-0.229278564453125
-0.231475830078125
-0.264068603515625
-0.236602783203125
0.086822509765625
0.0069580078125
-0.008056640625
0.0025634765625
-0.061187744140625
0.0029296875
0.028564453125
0.0032958984375
-0.0501708984375
0.000732421875
-0.0281982421875
0.0054931640625
0.015380859375
0.0018310546875
0.0626220703125
0.0128173828125
-0.0186767578125
-0.0003662109375
0.04541015625
0.009521484375
-0.0025634765625
0.0062255859375
-0.0252685546875
0.00439453125
0.028564453125
0.0076904296875
-0.0501708984375
0.0003662109375
0.024169921875
0.0029296875
0.0062255859375
-0.01171875
0.038818359375
-0.0128173828125
0.0340576171875
-0.0194091796875
0.0179443359375
-0.0721435546875
-0.0260009765625
-0.267730712890625
-0.035888671875
-0.224517822265625
-0.0509033203125
0.195953369140625
-0.55633544921875
0.097808837890625
-0.246490478515625
-0.0487060546875
-0.00732421875
1.0
-0.227447509765625
1.0
0.0
0.0
0.0
0.0
0.0
0.0
0.0
0.0
0.0
0.0
0.0
-0.0003662109375
0.0
-0.0003662109375
0.0
0.0003662109375
0.0
0.0003662109375
0.0
0.0
0.0
0.0
0.0
0.0
0.0205078125
0.0
0.156768798828125
0.0
0.253082275390625
0.0
0.218292236328125
0.0
0.195953369140625
0.0
0.1666259765625
0.0
0.142852783203125
0.0003662109375
0.121978759765625
0.0003662109375
0.0977783203125
-0.0003662109375
0.082763671875
-0.0003662109375
0.064453125
0.0003662109375
0.064453125
0.0003662109375
0.0567626953125
0.0
0.03515625
0.0
0.0340576171875
-0.0003662109375
0.03369140625
0.0
0.027862548828125
0.0
0.018707275390625
-0.0003662109375
0.0084228515625
-0.013916015625
0.002197265625
-0.053497314453125
0.00146484375
-0.089385986328125
0.0032958984375
-0.100341796875
0.0003662109375
-0.0809326171875
0.0029296875
-0.0611572265625
0.000732421875
-0.0662841796875
-0.005859375
-0.0692138671875
-0.0062255859375
-0.064453125
-0.00732421875
-0.056793212890625
-0.008453369140625
-0.054595947265625
-0.006988525390625
-0.0589599609375
-0.01611328125
-0.0655517578125
-0.0142822265625
-0.0333251953125
-0.0025634765625
-0.0252685546875
-0.006591796875
-0.053466796875
-0.00732421875
-0.04248046875
-0.00732421875
-0.02490234375
-0.010986328125
-0.0194091796875
-0.01025390625
-0.017578125
-0.0087890625
-0.018310546875
-0.0091552734375
-0.0234375
-0.0087890625
-0.0194091796875
-0.006591796875
-0.0135498046875
-0.0069580078125
-0.0281982421875
-0.0142822265625
-0.045074462890625
-0.0106201171875
-0.035919189453125
-0.010986328125
-0.03076171875
-0.01904296875
-0.0252685546875
-0.0150146484375
-0.015380859375
-0.01025390625
-0.017578125
-0.01025390625
-0.0234375
-0.0098876953125
-0.0274658203125
-0.0069580078125
-0.0252685546875
-0.0106201171875
-0.0296630859375
-0.0120849609375
-0.030029296875
-0.008056640625
-0.024169921875
0.0260009765625
-0.0626220703125
-0.0032958984375
-0.0340576171875
-0.0435791015625
-0.00146484375
-0.0113525390625
-0.0091552734375
-0.0040283203125
-0.006591796875
-0.0076904296875
-0.0230712890625
-0.008056640625
-0.0150146484375
-0.0076904296875
-0.0150146484375
-0.009521484375
-0.0150146484375
-0.008056640625
-0.0142822265625
-0.005126953125
-0.0150146484375
-0.005126953125
-0.0205078125
-0.0047607421875
-0.0201416015625
-0.00732421875
-0.0098876953125
-0.0062255859375
-0.00732421875
-0.005859375
-0.006591796875
-0.005859375
-0.002197265625
-0.0018310546875
-0.0076904296875
0.00146484375
-0.013580322265625
-0.002197265625
-0.005157470703125
-0.0054931640625
0.012115478515625
-0.0018310546875
0.013580322265625
-0.0018310546875
-0.002197265625
-0.0029296875
-0.0054931640625
-0.00439453125
-0.0032958984375
-0.0047607421875
-0.008453369140625
-0.002197265625
-0.005889892578125
-0.00732421875
0.009552001953125
-0.0135498046875
0.006256103515625
-0.0076904296875
-0.005126953125
0.0010986328125
-0.026397705078125
-0.002197265625
-0.0025634765625
-0.0054931640625
0.026397705078125
-0.00439453125
0.0142822265625
-0.000732421875
0.0113525390625
0.0003662109375
-0.00146484375
0.0032958984375
-0.002197265625
0.000732421875
0.0029296875
-0.0098876953125
-0.0010986328125
-0.0010986328125
-0.012451171875
0.0054931640625
-0.0047607421875
-0.005126953125
0.0157470703125
-0.005859375
0.0106201171875
-0.000732421875
-0.0003662109375
0.0146484375
-0.019073486328125
0.0238037109375
-0.027862548828125
0.008056640625
-0.015380859375
-0.0062255859375
0.00439453125
-0.0135498046875
0.024932861328125
-0.008056640625
0.020538330078125
0.0106201171875
-0.011016845703125
0.000732421875
-0.0106201171875
-0.0018310546875
-0.002197265625
0.003662109375
-0.007354736328125
0.0084228515625
-0.010986328125
0.0179443359375
-0.0157470703125
-0.0062255859375
0.01171875
-0.0142822265625
0.009521484375
0.0003662109375
0.006622314453125
0.0087890625
0.016143798828125
0.0047607421875
0.01025390625
0.0010986328125
0.0069580078125
0.00439453125
0.0032958984375
0.03955078125
-0.038848876953125
0.0263671875
-0.034820556640625
-0.01318359375
0.0150146484375
-0.00439453125
0.005126953125
0.0029296875
-0.005859375
0.005859375
0.000732421875
0.002197265625
0.005859375
-0.0054931640625
0.008056640625
-0.0150146484375
0.020172119140625
-0.015380859375
0.022003173828125
-0.0025634765625
0.0054931640625
0.005126953125
-0.0040283203125
-0.0003662109375
-0.008056640625
-0.0054931640625
0.0
-0.006591796875
0.005859375
-0.008056640625
-0.0076904296875
-0.0069580078125
-0.01025390625
-0.0018310546875
-0.006988525390625
-0.0029296875
-0.006256103515625
-0.00732421875
0.004425048828125
-0.0098876953125
0.0003662109375
-0.009521484375
-0.016876220703125
-0.00439453125
-0.0098876953125
-0.003662109375
0.003662109375
0.016845703125
-0.02197265625
0.0076904296875
-0.0164794921875
-0.022705078125
0.0098876953125
-0.0179443359375
0.010986328125
-0.015380859375
0.0172119140625
-0.012451171875
0.009521484375
-0.0029296875
-0.005126953125
-0.000732421875
-0.01025390625
0.01171875
-0.0186767578125
0.01611328125
-0.02783203125
0.00439453125
-0.0252685546875
-0.005859375
-0.00439453125
-0.01611328125
0.0120849609375
-0.013916015625
0.00439453125
-0.009521484375
-0.0047607421875
-0.0069580078125
0.0003662109375
-0.0032958984375
0.0040283203125
-0.0128173828125
0.0018310546875
-0.019775390625
0.01171875
-0.0084228515625
0.0025634765625
-0.0018310546875
-0.010986328125
-0.000732421875
0.00146484375
-0.0025634765625
0.0120849609375
-0.005126953125
0.00732421875
-0.0029296875
-0.0029296875
0.00439453125
-0.005859375
0.0040283203125
-0.005859375
-0.0029296875
0.0084228515625
-0.002197265625
0.0157470703125
-0.0018310546875
0.00732421875
0.010986328125
-0.024169921875
-0.002227783203125
-0.0340576171875
-0.015411376953125
-0.01318359375
-0.0032958984375
-0.019775390625
-0.002197265625
-0.017578125
-0.0010986328125
-0.0128173828125
-0.003662109375
-0.0029296875
-0.000732421875
0.0186767578125
0.0
0.0113525390625
-0.00146484375
-0.0029296875
-0.00439453125
-0.0003662109375
-0.0003662109375
-0.0142822265625
0.005859375
-0.04541015625
0.005126953125
-0.063720703125
0.00146484375
-0.176910400390625
0.006988525390625
-0.187164306640625
0.014678955078125
-0.0787353515625
0.0084228515625
-0.064453125
0.010986328125
-0.052734375
0.01171875
-0.0347900390625
0.002197265625
-0.0172119140625
0.0091552734375
-0.0238037109375
0.005126953125
-0.040283203125
-0.0003662109375
-0.0296630859375
0.0029296875
-0.0069580078125
0.0
0.00439453125
0.0003662109375
0.015380859375
-0.003662109375
0.0318603515625
-0.0040283203125
0.046142578125
0.0032958984375
0.041748046875
0.005859375
0.0380859375
0.0003662109375
0.0509033203125
-0.002197265625
0.0655517578125
0.0018310546875
0.062255859375
0.017578125
0.0230712890625
0.009521484375
0.015777587890625
-0.006591796875
0.056427001953125
-0.0040283203125
0.0772705078125
0.0047607421875
0.05859375
0.006591796875
0.04248046875
-0.0047607421875
0.0673828125
-0.00439453125
0.08203125
-0.005126953125
0.0732421875
-0.0003662109375
0.049072265625
0.00439453125
0.029296875
-0.00146484375
0.041412353515625
-0.000732421875
0.056060791015625
0.0098876953125
0.0435791015625
0.01611328125
0.0303955078125
0.013916015625
0.034423828125
0.008056640625
0.0208740234375
0.0098876953125
0.006591796875
0.0194091796875
0.0032958984375
0.00732421875
0.0047607421875
-0.0106201171875
0.0208740234375
-0.0087890625
0.0377197265625
-0.0025634765625
0.032958984375
-0.003662109375
0.028564453125
-0.0062255859375
0.0355224609375
-0.005859375
0.0238037109375
-0.000732421875
-0.0062255859375
0.003662109375
-0.031494140625
-0.0091552734375
-0.0238037109375
-0.0194091796875
-0.019775390625
-0.0201416015625
-0.0626220703125
-0.0216064453125
-0.145782470703125
-0.0194091796875
-0.254180908203125
-0.0205078125
-0.335113525390625
-0.015380859375
-0.290435791015625
-0.009552001953125
-0.176513671875
-0.008453369140625
-0.103271484375
-0.005126953125
-0.057159423828125
-0.0040283203125
-0.024566650390625
0.019073486328125
-0.0234375
0.017242431640625
-0.0091552734375
-0.0069580078125
0.0179443359375
-0.0029296875
-0.00146484375
-0.005889892578125
-0.0054931640625
-0.011749267578125
0.0128173828125
-0.0164794921875
0.022003173828125
-0.01171875
0.021636962890625
-0.0029296875
0.01171875
0.0003662109375
0.012451171875
0.015380859375
0.0
0.0010986328125
0.022705078125
-0.008056640625
0.038818359375
-0.00146484375
0.02490234375
-0.009521484375
0.0384521484375
-0.0054931640625
0.0362548828125
0.0
0.0296630859375
0.0084228515625
0.0208740234375
0.005126953125
0.022705078125
-0.0010986328125
0.0333251953125
0.0003662109375
0.0311279296875
-0.000732421875
0.0260009765625
-0.0010986328125
0.02783203125
-0.0010986328125
0.0333251953125
-0.0029296875
0.0318603515625
-0.0010986328125
0.0263671875
0.000732421875
0.0260009765625
0.002197265625
0.0296630859375
0.0003662109375
0.029327392578125
-0.0040283203125
0.026763916015625
-0.003662109375
0.0238037109375
0.000732421875
0.0252685546875
0.0047607421875
0.0238037109375
0.0032958984375
0.022705078125
0.00439453125
0.02490234375
0.0062255859375
0.0252685546875
0.0047607421875
0.02197265625
0.0029296875
0.0201416015625
0.0
0.01904296875
-0.0025634765625
0.01025390625
-0.0003662109375
0.0150146484375
0.0040283203125
0.0238037109375
0.0029296875
0.0274658203125
0.0010986328125
0.0252685546875
0.0003662109375
0.0201416015625
0.003662109375
0.016845703125
0.006591796875
0.01171875
0.0018310546875
0.017578125
0.002227783203125
0.015380859375
0.005157470703125
0.0087890625
0.0025634765625
0.0120849609375
-0.004425048828125
0.0179443359375
-0.006622314453125
0.0281982421875
0.005889892578125
0.01904296875
0.013580322265625
0.0084228515625
0.0054931640625
0.0179443359375
-0.0047607421875
0.028961181640625
-0.0018310546875
0.020172119140625
0.003662109375
0.0087890625
0.0025634765625
0.0201416015625
0.0091552734375
0.0208740234375
0.0084228515625
0.019775390625
0.0029296875
0.0260009765625
0.0025634765625
0.0179443359375
0.0010986328125
0.0223388671875
-0.0032958984375
0.035888671875
0.00732421875
0.01611328125
0.0106201171875
0.003662109375
0.000732421875
0.01611328125
-0.0025634765625
0.0252685546875
0.0032958984375
0.0120849609375
0.0091552734375
0.003662109375
0.005126953125
0.015380859375
0.005859375
0.012451171875
0.0010986328125
0.010986328125
0.0025634765625
0.006591796875
0.0025634765625
0.01318359375
0.0029296875
0.027099609375
0.0087890625
0.0205078125
0.00732421875
0.0062255859375
0.0106201171875
-0.0003662109375
0.0238037109375
-0.0135498046875
0.028564453125
-0.017578125
0.0201416015625
-0.0087890625
0.0223388671875
-0.0172119140625
0.0296630859375
-0.0362548828125
0.016845703125
-0.0274658203125
-0.0091552734375
-0.00146484375
-0.024169921875
0.0091552734375
-0.0201416015625
0.0076904296875
-0.015380859375
0.00146484375
-0.02197265625
-0.0003662109375
-0.0260009765625
-0.00439453125
-0.0223388671875
-0.0150146484375
-0.017578125
-0.025634765625
-0.01611328125
-0.0333251953125
-0.0146484375
-0.0443115234375
-0.01171875
-0.0406494140625
-0.0087890625
-0.0205078125
-0.009521484375
-0.0003662109375
-0.0076904296875
0.0047607421875
-0.005126953125
0.00146484375
-0.005126953125
-0.0003662109375
-0.00439453125
0.0018310546875
-0.0047607421875
0.0032958984375
-0.0040283203125
0.005126953125
-0.0032958984375
0.006591796875
-0.002197265625
0.000732421875
-0.005889892578125
0.005126953125
-0.001495361328125
0.00146484375
-0.0047607421875
0.005126953125
-0.013916015625
0.019775390625
-0.002197265625
0.0062255859375
0.01318359375
-0.008056640625
0.011383056640625
-0.00439453125
-0.0003662109375
0.0029296875
-0.004425048828125
0.009521484375
-0.0032958984375
0.013916015625
-0.0018310546875
0.0120849609375
-0.0076904296875
0.01611328125
-0.0113525390625
0.01318359375
-0.002197265625
-0.0029296875
0.002197265625
-0.005859375
0.0
0.0025634765625
0.0003662109375
0.005126953125
0.0010986328125
0.0091552734375
0.0003662109375
0.0157470703125
-0.0032958984375
0.01025390625
-0.0010986328125
0.0025634765625
0.0025634765625
-0.0025634765625
0.006591796875
-0.0087890625
0.0018310546875
0.000732421875
0.0040283203125
0.00439453125
0.0040283203125
0.0087890625
0.009185791015625
0.002197265625
0.012115478515625
-0.009521484375
-0.0003662109375
0.00146484375
0.0010986328125
0.0040283203125
0.0003662109375
0.0069580078125
-0.006256103515625
0.0135498046875
-0.004425048828125
0.01025390625
0.004425048828125
-0.002197265625
0.000762939453125
-0.0040283203125
-0.0018310546875
0.0018310546875
-0.000762939453125
0.005859375
0.0076904296875
-0.00732421875
0.005523681640625
-0.0076904296875
0.0
0.000732421875
0.002197265625
-0.0054931640625
-0.00146484375
0.00146484375
0.0
0.0069580078125
-0.0032958984375
0.0054931640625
-0.00732421875
0.0069580078125
-0.005889892578125
0.0054931640625
-0.002593994140625
0.008056640625
0.0018310546875
0.003662109375
0.003692626953125
-0.0047607421875
0.002960205078125
-0.0054931640625
0.0029296875
-0.0010986328125
0.0018310546875
0.0062255859375
0.003662109375
0.005126953125
0.0164794921875
-0.019775390625
0.01171875
-0.0186767578125
-0.0025634765625
0.008056640625
-0.003662109375
0.0135498046875
-0.0010986328125
0.01904296875
0.0029296875
0.017578125
0.00439453125
0.00732421875
0.00439453125
0.0098876953125
0.0029296875
0.016845703125
0.0029296875
0.0194091796875
0.0025634765625
0.0150146484375
0.0010986328125
0.0091552734375
0.0025634765625
0.01025390625
0.006591796875
0.00439453125
0.0062255859375
-0.0040283203125
0.005126953125
0.0018310546875
0.0040283203125
0.019775390625
0.003662109375
0.0205078125
0.003662109375
0.00732421875
0.0040283203125
0.00146484375
0.002197265625
0.01318359375
0.0
0.0252685546875
0.00146484375
0.0194091796875
0.0032958984375
0.01318359375
0.0062255859375
0.015380859375
0.00439453125
0.018310546875
0.002197265625
0.018707275390625
0.00439453125
0.011749267578125
0.01171875
0.0018310546875
0.012451171875
-0.0018310546875
0.0010986328125
0.01025390625
0.003662109375
0.01611328125
0.012451171875
-0.0003662109375
0.0113525390625
-0.009521484375
-0.00146484375
-0.01025390625
-0.01318359375
-0.012847900390625
-0.01318359375
-0.020904541015625
-0.018310546875
-0.0245361328125
-0.0208740234375
-0.0194091796875
-0.010986328125
-0.03515625
-0.0076904296875
-0.069580078125
-0.0146484375
-0.088623046875
-0.016845703125
-0.0823974609375
-0.0106201171875
-0.049072265625
-0.0029296875
-0.013916015625
-0.0029296875
0.005126953125
-0.0047607421875
0.0208740234375
0.009521484375
0.0
0.0069580078125
-0.01171875
-0.0032958984375
-0.005126953125
0.0
-0.013916015625
-0.002197265625
-0.008056640625
-0.0018310546875
0.00146484375
0.0128173828125
-0.02197265625
0.0084228515625
-0.0340576171875
-0.0098876953125
-0.013916015625
-0.005126953125
-0.005126953125
-0.00732421875
0.012451171875
-0.006591796875
0.0172119140625
0.002197265625
0.0029296875
-0.0003662109375
-0.0120849609375
0.0
-0.00732421875
0.0
0.0076904296875
-0.0047607421875
0.009521484375
-0.0040283203125
0.0106201171875
-0.000732421875
0.0087890625
-0.005859375
0.0201416015625
-0.0106201171875
0.029296875
-0.0040283203125
0.01611328125
-0.002960205078125
0.005859375
-0.004791259765625
0.00439453125
-0.0025634765625
0.0010986328125
-0.000732421875
0.0054931640625
-0.0032958984375
0.013916015625
-0.0032958984375
0.0128173828125
-0.0003662109375
0.0091552734375
0.0
0.002197265625
0.0069580078125
-0.015380859375
0.0040283203125
-0.01171875
-0.003662109375
0.0054931640625
0.0
0.00146484375
0.004791259765625
-0.00439453125
0.005157470703125
-0.0029296875
0.00439453125
-0.00146484375
0.003662109375
-0.0018310546875
0.0003662109375
-0.0047607421875
0.00146484375
-0.005126953125
0.0
-0.0135498046875
0.0025634765625
-0.005859375
0.0054931640625
0.00146484375
0.003662109375
-0.01318359375
0.0040283203125
-0.013916015625
0.0018310546875
-0.0223388671875
0.000732421875
-0.0296630859375
0.0062255859375
-0.0311279296875
0.008056640625
-0.03515625
0.01025390625
-0.034088134765625
0.0150146484375
-0.022735595703125
0.0157470703125
-0.0029296875
0.0084228515625
0.014678955078125
0.000732421875
0.028594970703125
0.0029296875
0.027099609375
0.0
0.029296875
-0.0025634765625
0.0263671875
0.0
0.0172119140625
0.0010986328125
0.0194091796875
0.0010986328125
0.028564453125
-0.0018310546875
0.0340576171875
-0.0025634765625
0.0216064453125
0.000732421875
0.013916015625
0.000732421875
0.0205078125
0.0
0.0223388671875
0.0003662109375
0.01611328125
0.0003662109375
0.01611328125
0.0040283203125
0.0047607421875
0.005859375
0.0025634765625
0.000732421875
0.0146484375
-0.002197265625
0.0208740234375
-0.00146484375
0.0205078125
0.002197265625
0.008056640625
0.005126953125
-0.0010986328125
0.0029296875
-0.005859375
0.0018310546875
-0.0003662109375
0.0010986328125
0.005859375
0.0040283203125
0.0025634765625
0.0076904296875
-0.003662109375
0.005859375
-0.0054931640625
0.00439453125
-0.0047607421875
0.0010986328125
0.0010986328125
-0.002197265625
0.00146484375
-0.0106201171875
0.00439453125
-0.01318359375
0.0029296875
-0.006591796875
-0.0076904296875
-0.005859375
-0.0087890625
-0.0040283203125
-0.013916015625
-0.005859375
-0.0142822265625
-0.0084228515625
-0.01318359375
-0.00732421875
-0.0194091796875
-0.0029296875
-0.031494140625
-0.0029296875
-0.030029296875
-0.006591796875
-0.0128173828125
-0.0054931640625
-0.0128173828125
-0.00439453125
-0.00146484375
-0.00439453125
0.0047607421875
-0.003662109375
-0.0084228515625
-0.0040283203125
-0.0087890625
-0.0054931640625
-0.0091552734375
-0.0029296875
-0.005126953125
-0.0032958984375
-0.005859375
-0.0106201171875
-0.010986328125
-0.00732421875
-0.01611328125
0.00146484375
-0.01318359375
0.0010986328125
-0.0047607421875
0.0003662109375
-0.0029296875
-0.0010986328125
-0.0010986328125
-0.0010986328125
0.0018310546875
0.0010986328125
0.0029296875
0.0062255859375
-0.005859375
0.005126953125
-0.0029296875
0.0029296875
0.0018310546875
0.0040283203125
0.00146484375
0.0018310546875
0.006591796875
0.0003662109375
0.00732421875
-0.00146484375
0.0047607421875
-0.002197265625
0.00146484375
-0.002197265625
0.0025634765625
-0.000732421875
0.00146484375
-0.0003662109375
0.00439453125
0.0018310546875
0.0106201171875
-0.0003662109375
0.00146484375
0.003662109375
0.0
0.0069580078125
0.0010986328125
0.0
-0.0069580078125
-0.0029296875
0.0047607421875
-0.002197265625
0.012451171875
0.00146484375
0.0091552734375
0.00146484375
0.00146484375
-0.0003662109375
-0.006591796875
0.00146484375
-0.003662109375
0.00439453125
0.0
0.0003662109375
0.0076904296875
0.0003662109375
0.006591796875
0.0025634765625
-0.0018310546875
-0.0010986328125
0.000732421875
0.0003662109375
0.0040283203125
0.000732421875
0.000732421875
0.0003662109375
-0.0047607421875
-0.0010986328125
-0.003662109375
0.0
-0.000732421875
0.005859375
0.0084228515625
0.00146484375
0.0157470703125
0.0
0.0084228515625
-0.0003662109375
0.0018310546875
0.0
0.000732421875
0.0047607421875
0.002197265625
0.003662109375
-0.0010986328125
0.0010986328125
-0.000732421875
-0.0018310546875
-0.008056640625
0.0150146484375
-0.017578125
0.0135498046875
0.0
-0.00439453125
0.012451171875
-0.0025634765625
0.0128173828125
0.0010986328125
0.01611328125
0.0047607421875
0.0186767578125
0.0032958984375
0.02197265625
0.002197265625
0.013916015625
0.0010986328125
0.0076904296875
0.00146484375
0.013916015625
0.0010986328125
0.0234375
0.0
0.0194091796875
0.0
0.016845703125
-0.0003662109375
0.0340576171875
-0.0018310546875
0.0648193359375
-0.0032958984375
0.069976806640625
-0.0040283203125
0.072540283203125
-0.00439453125
0.0523681640625
-0.0018310546875
0.01904296875
-0.0003662109375
0.01904296875
0.002197265625
-0.0032958984375
0.0025634765625
-0.019775390625
0.0040283203125
-0.0150146484375
0.0047607421875
-0.01025390625
0.0032958984375
-0.038818359375
0.0098876953125
-0.059356689453125
0.0113525390625
-0.047271728515625
0.01025390625
-0.0205078125
0.01318359375
-0.0113525390625
0.0091552734375
-0.0146484375
0.0003662109375
-0.005859375
0.0018310546875
-0.018310546875
0.0076904296875
-0.0223388671875
0.0062255859375
-0.0142822265625
0.008056640625
-0.0091552734375
0.0084228515625
-0.0069580078125
0.0120849609375
-0.0150146484375
0.022705078125
-0.0234375
0.015380859375
-0.0201416015625
-0.0029296875
-0.0106201171875
-0.005859375
-0.0025634765625
-0.005859375
0.0018310546875
-0.0113525390625
0.002197265625
-0.013916015625
0.003662109375
-0.012451171875
0.0003662109375
-0.00732421875
-0.0062255859375
-0.00732421875
-0.0040283203125
-0.0076904296875
0.0003662109375
-0.005859375
-0.0025634765625
-0.010986328125
-0.0032958984375
-0.012451171875
-0.008056640625
-0.0120849609375
-0.0223388671875
-0.0128173828125
-0.0322265625
-0.01025390625
-0.03515625
-0.0106201171875
-0.04541015625
-0.008056640625
-0.01904296875
-0.0054931640625
0.00439453125
-0.0054931640625
-0.0025634765625
-0.005126953125
-0.0040283203125
-0.0032958984375
-0.0120849609375
0.0018310546875
-0.01611328125
-0.0018310546875
-0.01171875
-0.010986328125
-0.0135498046875
-0.01171875
-0.028564453125
-0.002197265625
-0.0362548828125
0.0010986328125
-0.0238037109375
-0.005859375
0.0010986328125
-0.0062255859375
0.0120849609375
0.00146484375
0.01025390625
0.0054931640625
0.006591796875
-0.0010986328125
0.005859375
-0.0040283203125
0.006591796875
-0.0003662109375
0.00732421875
0.0003662109375
0.0087890625
0.0
0.0205078125
0.00146484375
0.0205078125
-0.002197265625
0.0146484375
-0.000732421875
0.0098876953125
0.005126953125
0.005126953125
0.0003662109375
0.015380859375
0.0
0.015380859375
0.0010986328125
0.0062255859375
-0.0018310546875
0.0029296875
-0.0025634765625
-0.012451171875
0.0032958984375
-0.00439453125
0.003662109375
0.013916015625
0.0003662109375
0.0106201171875
0.0010986328125
0.008056640625
0.0003662109375
0.003662109375
0.00146484375
-0.000732421875
0.0010986328125
-0.0040283203125
0.0003662109375
-0.000732421875
-0.0018310546875
0.008056640625
0.0
0.003662109375
0.0018310546875
-0.000732421875
0.0003662109375
0.0084228515625
0.00146484375
0.006591796875
0.0018310546875
0.005859375
0.00439453125
0.000732421875
0.0054931640625
-0.0032958984375
0.0047607421875
-0.00439453125
0.0029296875
-0.00439453125
0.0003662109375
0.003662109375
0.0025634765625
0.008056640625
0.0025634765625
0.0084228515625
-0.000732421875
0.0062255859375
0.0
0.0054931640625
0.0032958984375
-0.0010986328125
0.0010986328125
-0.00439453125
0.000732421875
-0.0040283203125
0.0142822265625
-0.0252685546875
0.016845703125
-0.028564453125
0.006591796875
-0.006591796875
0.0018310546875
0.0032958984375
0.00146484375
0.0091552734375
0.0025634765625
0.01171875
0.00146484375
0.0091552734375
0.0018310546875
0.00439453125
0.0018310546875
0.005126953125
0.0025634765625
0.006591796875
0.0025634765625
0.0087890625
0.0029296875
0.01171875
0.002197265625
0.0120849609375
0.000732421875
0.0087890625
0.0003662109375
0.0054931640625
0.0010986328125
0.0047607421875
0.0029296875
0.0032958984375
0.00146484375
0.0025634765625
0.0003662109375
0.00439453125
0.0025634765625
0.005126953125
0.002197265625
0.0084228515625
-0.0010986328125
0.0098876953125
0.0032958984375
0.0047607421875
0.0029296875
0.0047607421875
0.000732421875
0.0076904296875
0.0025634765625
0.0087890625
0.002197265625
0.00732421875
0.0040283203125
0.0025634765625
0.0029296875
-0.0216064453125
0.00439453125
-0.0054931640625
0.0087890625
0.0076904296875
0.0062255859375
-0.0047607421875
-0.0003662109375
0.00439453125
0.0
0.0003662109375
0.0040283203125
-0.0025634765625
0.0018310546875
0.000732421875
0.0018310546875
-0.0054931640625
0.00732421875
-0.01318359375
0.0091552734375
-0.006591796875
0.0029296875
-0.0029296875
-0.0032958984375
0.00146484375
-0.00439453125
0.00146484375
-0.0040283203125
-0.00146484375
-0.002197265625
-0.0032958984375
-0.0018310546875
-0.0025634765625
0.0054931640625
-0.0113525390625
0.0
-0.009521484375
-0.008056640625
-0.0010986328125
-0.005859375
-0.0040283203125
-0.0087890625
-0.003662109375
-0.0047607421875
-0.0062255859375
-0.01025390625
-0.0003662109375
-0.0120849609375
-0.0040283203125
-0.0084228515625
-0.015380859375
-0.0098876953125
-0.02197265625
-0.0084228515625
-0.022705078125
-0.008056640625
-0.027099609375
-0.0018310546875
-0.010986328125
-0.0018310546875
-0.0040283203125
-0.0054931640625
-0.0142822265625
-0.0029296875
-0.0076904296875
-0.003662109375
-0.0040283203125
-0.005126953125
0.0032958984375
-0.0029296875
0.0
-0.0040283203125
-0.01025390625
-0.005126953125
-0.02197265625
-0.0018310546875
-0.0234375
-0.000732421875
-0.0113525390625
-0.000732421875
0.0029296875
-0.0010986328125
0.013916015625
-0.0010986328125
0.0186767578125
-0.0003662109375
0.0135498046875
-0.0003662109375
0.006591796875
0.0003662109375
0.002197265625
-0.0018310546875
0.0069580078125
-0.0003662109375
0.013916015625
0.002197265625
0.010986328125
0.000732421875
0.006591796875
0.0010986328125
0.0069580078125
0.000732421875
0.0084228515625
0.0003662109375
0.0025634765625
0.00146484375
0.000732421875
0.0025634765625
0.0032958984375
0.0029296875
0.00732421875
0.0029296875
0.005859375
-0.002197265625
-0.012451171875
0.0025634765625
-0.002197265625
0.015380859375
0.0
0.0076904296875
-0.0062255859375
-0.0084228515625
0.0142822265625
-0.0076904296875
0.0150146484375
-0.000732421875
0.0084228515625
0.0003662109375
0.0025634765625
0.0032958984375
-0.0010986328125
0.0018310546875
-0.0025634765625
-0.0003662109375
-0.0003662109375
0.000732421875
0.0047607421875
-0.0010986328125
0.0076904296875
-0.0018310546875
0.01171875
-0.0010986328125
0.0098876953125
0.00146484375
0.0029296875
0.0040283203125
-0.0032958984375
0.003662109375
-0.0076904296875
0.0032958984375
-0.01318359375
0.00146484375
-0.010986328125
0.0
-0.00146484375
0.009521484375
-0.012451171875
0.0113525390625
-0.0150146484375
0.000732421875
0.000732421875
0.000732421875
0.005859375
-0.000732421875
0.0113525390625
-0.0032958984375
0.0164794921875
0.0010986328125
0.010986328125
-0.0010986328125
0.010986328125
0.0010986328125
0.0076904296875
0.0
0.00732421875
0.0003662109375
0.0084228515625
-0.0010986328125
0.013916015625
-0.00732421875
0.0260009765625
-0.0029296875
0.015380859375
-0.000732421875
0.0047607421875
0.0018310546875
0.0062255859375
0.0018310546875
0.0032958984375
-0.0010986328125
0.0054931640625
-0.0029296875
0.017578125
-0.0018310546875
0.0186767578125
-0.0003662109375
0.0054931640625
0.0062255859375
-0.0040283203125
0.0091552734375
-0.003662109375
0.0029296875
0.0010986328125
0.002197265625
0.0
0.0087890625
-0.0084228515625
0.010986328125
-0.009521484375
0.003662109375
0.003662109375
-0.00439453125
0.0142822265625
-0.0010986328125
0.009521484375
0.005859375
-0.000732421875
0.00732421875
-0.008056640625
0.005859375
-0.01318359375
0.0018310546875
-0.00439453125
0.0029296875
-0.0054931640625
0.0018310546875
-0.0135498046875
0.0
-0.00146484375
-0.0029296875
-0.00146484375
-0.00732421875
-0.0047607421875
-0.01025390625
0.000732421875
-0.00732421875
-0.0054931640625
-0.006591796875
-0.0047607421875
-0.01025390625
0.0003662109375
-0.008056640625
-0.0084228515625
-0.005859375
-0.0164794921875
-0.0032958984375
-0.0263671875
0.0003662109375
-0.0380859375
-0.0018310546875
-0.024169921875
-0.0047607421875
-0.0025634765625
-0.005859375
0.0003662109375
-0.008056640625
0.0010986328125
-0.005859375
-0.0040283203125
-0.0029296875
-0.0157470703125
0.0003662109375
-0.0179443359375
0.0087890625
-0.0234375
-0.000732421875
-0.0091552734375
-0.009521484375
0.0146484375
-0.0032958984375
0.015380859375
-0.0032958984375
0.0164794921875
-0.0018310546875
0.0146484375
0.000732421875
0.006591796875
0.0003662109375
0.0003662109375
0.0025634765625
-0.005859375
0.003662109375
-0.006591796875
-0.0040283203125
-0.00439453125
0.0
0.0091552734375
0.0025634765625
0.0135498046875
-0.00146484375
0.003662109375
-0.000732421875
0.0010986328125
-0.002197265625
0.00439453125
-0.0003662109375
0.0098876953125
0.00146484375
0.0032958984375
0.0010986328125
-0.0040283203125
0.0003662109375
-0.010986328125
0.00146484375
-0.0164794921875
0.0018310546875
-0.01025390625
0.0
-0.00146484375
-0.0010986328125
0.005859375
0.0003662109375
0.009521484375
0.0
0.005126953125
0.0003662109375
-0.0025634765625
0.0025634765625
-0.0084228515625
0.0029296875
-0.00146484375
0.0018310546875
0.0069580078125
0.0010986328125
0.009521484375
0.000732421875
0.01171875
0.0003662109375
0.005859375
-0.0010986328125
0.0
-0.000732421875
0.00146484375
0.00439453125
0.00146484375
0.003662109375
-0.0032958984375
0.00146484375
0.0032958984375
0.0018310546875
-0.0087890625
0.010986328125
-0.01171875
0.009521484375
-0.000732421875
0.003662109375
-0.01025390625
0.002197265625
-0.0120849609375
-0.005859375
0.00732421875
-0.0018310546875
0.01025390625
0.008056640625
-0.0084228515625
0.005859375
-0.003662109375
-0.002197265625
0.0106201171875
0.000732421875
0.0150146484375
0.002197265625
0.0150146484375
0.0003662109375
0.008056640625
-0.000732421875
0.005859375
0.0003662109375
0.01025390625
-0.000732421875
0.0106201171875
0.002197265625
0.0069580078125
0.0054931640625
0.0029296875
0.0018310546875
0.0069580078125
0.00146484375
0.0084228515625
-0.0003662109375
0.0032958984375
0.0018310546875
0.0025634765625
0.0003662109375
0.00732421875
-0.0003662109375
0.0032958984375
0.0025634765625
0.0069580078125
0.0106201171875
-0.00732421875
0.00439453125
-0.0032958984375
-0.002197265625
0.0150146484375
0.0029296875
-0.013916015625
0.0018310546875
-0.00146484375
0.005859375
0.012451171875
0.005859375
0.00146484375
0.005859375
0.00146484375
0.00732421875
-0.0047607421875
0.0076904296875
-0.00732421875
0.0087890625
-0.0106201171875
0.0128173828125
-0.010986328125
0.0113525390625
-0.006591796875
0.0029296875
-0.00146484375
0.0010986328125
-0.0010986328125
-0.000732421875
0.0025634765625
-0.0003662109375
-0.005859375
-0.0032958984375
-0.0069580078125
-0.0062255859375
-0.00146484375
-0.005126953125
-0.0003662109375
-0.00732421875
0.0
-0.0084228515625
-0.0003662109375
-0.0120849609375
0.005126953125
-0.0025634765625
-0.008056640625
-0.0054931640625
-0.006591796875
-0.0179443359375
0.0047607421875
-0.0164794921875
-0.003662109375
-0.0106201171875
-0.00732421875
-0.0003662109375
-0.0157470703125
-0.003662109375
-0.0076904296875
-0.0106201171875
0.0010986328125
-0.0084228515625
-0.0106201171875
-0.0010986328125
-0.0113525390625
0.000732421875
-0.018310546875
-0.002197265625
-0.0201416015625
-0.002197265625
-0.0069580078125
-0.002197265625
-0.0040283203125
-0.0032958984375
0.002197265625
-0.003662109375
0.000732421875
-0.003662109375
-0.00732421875
-0.0040283203125
-0.0106201171875
-0.0003662109375
-0.0003662109375
-0.0018310546875
0.0164794921875
-0.0062255859375
0.010986328125
0.0
0.005126953125
0.003662109375
0.0054931640625
0.0003662109375
0.003662109375
0.0
0.0029296875
-0.00146484375
-0.0010986328125
-0.0029296875
0.0
-0.0003662109375
0.0040283203125
0.000732421875
0.0047607421875
0.0010986328125
0.0069580078125
0.0010986328125
0.008056640625
-0.0003662109375
0.0087890625
-0.0003662109375
0.0029296875
0.0003662109375
0.0018310546875
0.0010986328125
0.0029296875
-0.0010986328125
0.003662109375
-0.0047607421875
0.005859375
0.0047607421875
-0.0128173828125
0.0128173828125
-0.0179443359375
0.0032958984375
-0.0054931640625
-0.00439453125
0.0025634765625
-0.0054931640625
0.0146484375
-0.0091552734375
0.0230712890625
-0.0087890625
0.0164794921875
-0.002197265625
0.006591796875
-0.00146484375
-0.0025634765625
-0.000732421875
-0.0106201171875
0.017578125
-0.0245361328125
0.0164794921875
-0.017578125
0.0
0.002197265625
-0.0010986328125
0.00146484375
-0.0054931640625
0.009521484375
0.0054931640625
-0.0032958984375
0.0106201171875
-0.0106201171875
-0.002197265625
0.01025390625
-0.0032958984375
0.0208740234375
0.00146484375
0.01904296875
0.002197265625
0.010986328125
0.00146484375
0.008056640625
0.002197265625
0.008056640625
0.003662109375
0.002197265625
0.00439453125
-0.0018310546875
0.0047607421875
0.0018310546875
0.00439453125
0.0054931640625
0.0054931640625
0.0084228515625
0.005126953125
0.0084228515625
0.005859375
-0.0084228515625
0.00439453125
-0.00146484375
0.0018310546875
0.0106201171875
0.0040283203125
0.0
0.0032958984375
0.0047607421875
0.006591796875
0.0032958984375
0.008056640625
0.0
0.006591796875
-0.0029296875
0.005126953125
-0.0084228515625
-0.000732421875
-0.00146484375
0.00146484375
0.003662109375
0.005859375
0.0018310546875
0.0040283203125
-0.0087890625
0.0025634765625
-0.0084228515625
0.0025634765625
-0.002197265625
0.0032958984375
-0.0069580078125
0.0032958984375
-0.00732421875
0.005859375
-0.0018310546875
0.0040283203125
-0.000732421875
0.0
0.002197265625
0.0
0.000732421875
0.0
-0.003662109375
-0.0010986328125
-0.005859375
-0.0025634765625
-0.005126953125
-0.0040283203125
-0.0003662109375
-0.00732421875
0.000732421875
-0.01025390625
0.0029296875
-0.0087890625
-0.0032958984375
-0.00732421875
-0.021240234375
-0.00732421875
-0.0128173828125
0.0032958984375
-0.015380859375
0.0069580078125
-0.02783203125
-0.005126953125
-0.0087890625
-0.00439453125
-0.0062255859375
-0.000732421875
-0.0106201171875
-0.00439453125
-0.0091552734375
-0.0040283203125
-0.013916015625
-0.0040283203125
-0.0179443359375
-0.0054931640625
-0.0142822265625
-0.0047607421875
-0.0106201171875
-0.0025634765625
-0.0047607421875
-0.0025634765625
0.00439453125
-0.0018310546875
0.00732421875
-0.000732421875
0.008056640625
0.0
0.006591796875
0.000732421875
0.005126953125
0.0
0.008056640625
0.0003662109375
0.01025390625
-0.0003662109375
0.01318359375
-0.00146484375
0.0106201171875
0.0010986328125
0.00439453125
0.0018310546875
0.0003662109375
0.00146484375
0.0
0.00146484375
0.006591796875
-0.00146484375
0.0084228515625
-0.0018310546875
0.002197265625
-0.0025634765625
0.000732421875
0.0
-0.006591796875
0.003662109375
-0.0054931640625
0.0018310546875
0.005859375
0.000732421875
0.005126953125
0.0032958984375
0.0003662109375
0.000732421875
-0.000732421875
-0.0054931640625
0.0076904296875
-0.003662109375
0.010986328125
0.0018310546875
-0.002197265625
0.002197265625
-0.008056640625
-0.003662109375
0.0003662109375
-0.0062255859375
0.008056640625
-0.00439453125
0.008056640625
0.00732421875
-0.0047607421875
0.01318359375
-0.0113525390625
-0.0054931640625
0.0062255859375
-0.0128173828125
0.0135498046875
0.0010986328125
0.005126953125
0.005126953125
0.005126953125
0.00439453125
0.0029296875
0.0025634765625
-0.0032958984375
0.0025634765625
-0.005126953125
0.0032958984375
-0.0029296875
0.0018310546875
-0.005859375
0.0084228515625
-0.0047607421875
0.01171875
-0.0025634765625
0.005859375
0.0018310546875
0.0010986328125
0.0087890625
0.0010986328125
-0.010986328125
0.0029296875
0.0047607421875
0.0032958984375
0.018310546875
0.0
0.00146484375
-0.0003662109375
0.0069580078125
0.0010986328125
0.006591796875
0.00146484375
0.0018310546875
-0.0010986328125
0.0025634765625
0.0040283203125
-0.0018310546875
0.008056640625
-0.00732421875
0.000732421875
0.0025634765625
-0.002197265625
0.0062255859375
-0.00146484375
0.0076904296875
0.00146484375
0.0029296875
0.0010986328125
0.0025634765625
0.0
0.005126953125
0.0040283203125
-0.0010986328125
0.0029296875
0.0003662109375
0.0
0.0029296875
0.002197265625
0.0040283203125
0.0029296875
0.0
0.0025634765625
-0.0040283203125
0.0018310546875
0.0003662109375
-0.003662109375
0.0040283203125
0.0
0.0018310546875
0.005859375
-0.0003662109375
0.0062255859375
-0.0032958984375
0.0062255859375
-0.00732421875
0.0054931640625
-0.021240234375
0.005126953125
-0.0032958984375
0.0047607421875
0.0087890625
0.0032958984375
-0.00439453125
0.0003662109375
-0.000732421875
0.0010986328125
-0.002197265625
-0.0010986328125
0.0003662109375
-0.00146484375
-0.000732421875
-0.0018310546875
-0.0062255859375
-0.003662109375
-0.005126953125
-0.0025634765625
-0.003662109375
-0.0040283203125
-0.000732421875
-0.0087890625
0.0029296875
-0.010986328125
0.0076904296875
-0.006591796875
0.0029296875
-0.005859375
-0.0018310546875
-0.006591796875
-0.002197265625
-0.0040283203125
-0.0113525390625
-0.0047607421875
-0.010986328125
-0.00439453125
-0.0084228515625
-0.0025634765625
-0.0098876953125
-0.0029296875
-0.006591796875
0.003662109375
-0.0142822265625
0.005859375
-0.025634765625
-0.002197265625
-0.0164794921875
-0.002197265625
-0.0040283203125
-0.005859375
0.0040283203125
-0.0091552734375
0.0040283203125
-0.005859375
-0.0003662109375
0.0
0.0
0.00146484375
-0.0025634765625
-0.0010986328125
0.000732421875
0.0
0.005859375
0.0
0.003662109375
0.00146484375
0.0
-0.000732421875
-0.0032958984375
-0.0003662109375
-0.0069580078125
0.002197265625
-0.005859375
0.0032958984375
-0.0032958984375
0.0003662109375
0.0032958984375
-0.0047607421875
0.01025390625
-0.0040283203125
0.01171875
-0.0018310546875
0.008056640625
0.000732421875
0.0010986328125
0.0018310546875
0.0003662109375
0.000732421875
0.0040283203125
0.0010986328125
0.0047607421875
0.0032958984375
0.00146484375
0.019775390625
-0.0245361328125
0.0069580078125
-0.009521484375
-0.0157470703125
0.0289306640625
-0.0076904296875
0.019775390625
-0.0032958984375
0.009521484375
0.0029296875
0.00146484375
0.00439453125
0.0
-0.0010986328125
0.0054931640625
-0.00146484375
0.005859375
0.0
-0.0025634765625
0.005126953125
0.002197265625
0.0091552734375
0.0
0.0084228515625
-0.01171875
0.000732421875
0.0025634765625
-0.0010986328125
0.0069580078125
0.0040283203125
-0.003662109375
0.0
-0.0032958984375
-0.002197265625
0.0
0.000732421875
0.0010986328125
0.0029296875
0.006591796875
0.0018310546875
0.0054931640625
0.0003662109375
-0.000732421875
0.0010986328125
0.0040283203125
0.0010986328125
0.0054931640625
0.0
0.00439453125
0.000732421875
0.00732421875
0.002197265625
-0.0040283203125
0.0029296875
-0.0010986328125
-0.0003662109375
0.0106201171875
0.0010986328125
0.00439453125
0.0025634765625
0.0040283203125
0.0025634765625
-0.0018310546875
0.0047607421875
-0.005859375
0.0032958984375
-0.0010986328125
0.0032958984375
-0.000732421875
0.000732421875
0.00732421875
0.0010986328125
0.003662109375
0.000732421875
-0.0142822265625
0.003662109375
-0.0029296875
0.0087890625
0.003662109375
0.005126953125
-0.002197265625
0.0040283203125
0.002197265625
0.0062255859375
-0.0018310546875
0.005859375
0.0003662109375
0.0054931640625
0.00146484375
0.0076904296875
-0.0076904296875
0.009521484375
-0.01025390625
0.0091552734375
-0.0054931640625
0.00732421875
-0.01318359375
0.0087890625
-0.0186767578125
0.01318359375
-0.0186767578125
0.009521484375
-0.01025390625
0.000732421875
0.0029296875
0.0040283203125
0.000732421875
0.0087890625
-0.0084228515625
0.0032958984375
-0.012451171875
-0.0018310546875
-0.008056640625
-0.01025390625
0.0018310546875
-0.015380859375
0.0098876953125
-0.01318359375
0.00732421875
-0.013916015625
0.009521484375
-0.0128173828125
0.0087890625
-0.0128173828125
0.00732421875
-0.01318359375
0.00146484375
-0.009521484375
-0.0091552734375
-0.0087890625
-0.01171875
-0.0047607421875
-0.008056640625
-0.0018310546875
-0.00439453125
-0.002197265625
-0.0018310546875
-0.000732421875
0.0018310546875
0.0029296875
-0.008056640625
-0.00439453125
-0.0029296875
-0.0076904296875
0.0032958984375
-0.002197265625
-0.008056640625
-0.0010986328125
-0.016845703125
-0.000732421875
-0.01611328125
-0.0029296875
-0.0098876953125
-0.002197265625
-0.006591796875
-0.003662109375
0.0029296875
-0.0025634765625
0.005126953125
-0.00146484375
0.0010986328125
-0.0032958984375
0.002197265625
-0.0018310546875
0.0025634765625
-0.0032958984375
0.006591796875
-0.000732421875
0.00732421875
0.0
0.0069580078125
-0.002197265625
0.009521484375
0.000732421875
0.0062255859375
-0.0003662109375
0.00439453125
-0.00146484375
0.0069580078125
0.0003662109375
0.00439453125
0.0025634765625
0.0018310546875
-0.0010986328125
0.005859375
-0.0025634765625
0.005126953125
-0.0029296875
0.0029296875
-0.0018310546875
0.00146484375
0.0032958984375
0.0
0.0032958984375
0.00439453125
0.000732421875
0.00439453125
-0.0010986328125
0.00439453125
0.0010986328125
0.006591796875
0.0010986328125
0.003662109375
0.0029296875
-0.005126953125
0.00146484375
-0.008056640625
-0.00146484375
-0.002197265625
0.0018310546875
-0.0003662109375
-0.00146484375
0.002197265625
-0.005126953125
0.00439453125
-0.0025634765625
0.0029296875
-0.0010986328125
0.0025634765625
-0.0003662109375
0.0025634765625
0.002197265625
0.00146484375
0.003662109375
-0.002197265625
0.002197265625
-0.0029296875
0.002197265625
-0.0010986328125
0.0025634765625
0.002197265625
0.00146484375
0.00146484375
0.01171875
-0.01318359375
0.0120849609375
-0.018310546875
0.0010986328125
-0.0010986328125
-0.0010986328125
0.01171875
0.0018310546875
0.0084228515625
0.0
-0.01171875
0.0
0.005126953125
0.00439453125
0.0146484375
0.005859375
-0.0025634765625
0.00439453125
0.0047607421875
0.0003662109375
0.0010986328125
0.00146484375
-0.000732421875
0.002197265625
0.0047607421875
0.005859375
-0.003662109375
0.0010986328125
-0.0018310546875
-0.005126953125
0.0128173828125
0.000732421875
0.0087890625
0.002197265625
0.0025634765625
0.0
0.0032958984375
0.000732421875
0.0025634765625
0.003662109375
0.0
0.003662109375
0.000732421875
0.00146484375
0.000732421875
0.0010986328125
0.0003662109375
0.002197265625
0.0032958984375
0.0106201171875
-0.005859375
0.01171875
-0.01025390625
0.002197265625
-0.0018310546875
0.0
-0.0010986328125
0.000732421875
-0.0018310546875
-0.0018310546875
0.008056640625
-0.000732421875
0.009521484375
0.0040283203125
-0.005126953125
0.005126953125
-0.0025634765625
0.003662109375
0.0003662109375
0.0010986328125
-0.002197265625
0.000732421875
-0.002197265625
0.0
-0.00146484375
0.00732421875
-0.01171875
0.0076904296875
-0.019775390625
-0.0069580078125
0.0
-0.012451171875
0.01171875
-0.0106201171875
0.01171875
-0.01025390625
0.012451171875
-0.01171875
0.0120849609375
-0.012451171875
0.0091552734375
-0.01025390625
-0.0003662109375
-0.006591796875
-0.0135498046875
0.0040283203125
-0.02490234375
0.0047607421875
-0.024169921875
-0.010986328125
-0.003662109375
-0.0120849609375
0.008056640625
-0.000732421875
-0.003662109375
-0.0018310546875
-0.00439453125
-0.0062255859375
-0.002197265625
-0.003662109375
-0.0025634765625
-0.002197265625
-0.000732421875
-0.0003662109375
-0.0084228515625
0.000732421875
-0.005859375
-0.000732421875
-0.0018310546875
-0.002197265625
0.0032958984375
-0.005126953125
-0.0025634765625
0.00146484375
0.0025634765625
0.0062255859375
0.0150146484375
0.000732421875
0.0062255859375
0.000732421875
0.0087890625
0.0
0.0069580078125
0.000732421875
0.00146484375
0.0
0.0025634765625
-0.00146484375
-0.0010986328125
0.0003662109375
-0.0040283203125
0.0003662109375
0.0
0.0003662109375
-0.00146484375
-0.000732421875
0.000732421875
-0.00146484375
0.0040283203125
-0.0010986328125
-0.0018310546875
-0.00146484375
0.0010986328125
0.0010986328125
0.0
0.0010986328125
-0.003662109375
0.0003662109375
0.0025634765625
0.0010986328125
0.0018310546875
0.000732421875
-0.0018310546875
0.0010986328125
0.0025634765625
0.0003662109375
0.00146484375
0.0003662109375
-0.000732421875
-0.0029296875
0.0032958984375
0.000732421875
0.0047607421875
0.0047607421875
0.0029296875
0.0010986328125
-0.0018310546875
-0.0018310546875
-0.00439453125
0.0003662109375
0.002197265625
0.00439453125
-0.0010986328125
0.00439453125
-0.0010986328125
0.0029296875
0.0087890625
0.000732421875
0.000732421875
0.00146484375
-0.0025634765625
0.018310546875
-0.0201416015625
0.016845703125
-0.02783203125
-0.006591796875
0.0003662109375
-0.012451171875
0.0186767578125
-0.0029296875
0.0142822265625
0.0164794921875
-0.0157470703125
0.005126953125
-0.008056640625
-0.0128173828125
0.0223388671875
-0.00439453125
0.0157470703125
0.0018310546875
0.0054931640625
0.0010986328125
-0.0003662109375
-0.0003662109375
0.002197265625
0.0025634765625
0.0029296875
0.0047607421875
-0.0029296875
0.0025634765625
-0.00146484375
0.0054931640625
-0.0040283203125
0.009521484375
-0.010986328125
0.010986328125
-0.01904296875
0.0018310546875
0.00146484375
-0.005859375
0.0186767578125
0.000732421875
0.0054931640625
-0.000732421875
0.000732421875
0.00439453125
0.00732421875
0.00732421875
-0.000732421875
0.0018310546875
-0.0054931640625
0.0025634765625
0.005126953125
0.002197265625
0.0025634765625
0.000732421875
-0.0003662109375
0.0029296875
0.0010986328125
0.0054931640625
0.000732421875
0.0029296875
0.0
0.002197265625
0.0018310546875
0.002197265625
-0.0003662109375
0.0003662109375
0.0003662109375
0.0018310546875
-0.0025634765625
0.0025634765625
-0.0087890625
-0.0003662109375
-0.005126953125
0.0018310546875
-0.0062255859375
0.00146484375
-0.0091552734375
0.0
-0.006591796875
0.000732421875
-0.0062255859375
0.0069580078125
-0.013916015625
0.003662109375
-0.0084228515625
-0.005859375
0.00439453125
-0.0062255859375
0.002197265625
-0.0054931640625
0.00146484375
-0.003662109375
0.0018310546875
-0.003662109375
-0.0010986328125
-0.009521484375
0.0087890625
-0.012451171875
0.0128173828125
-0.0018310546875
0.0003662109375
0.0010986328125
-0.0084228515625
-0.000732421875
-0.0120849609375
-0.0029296875
0.0003662109375
-0.005126953125
0.0003662109375
-0.0054931640625
-0.0032958984375
-0.0025634765625
-0.0010986328125
0.0003662109375
-0.008056640625
-0.0010986328125
-0.0098876953125
0.0
-0.0087890625
-0.0040283203125
-0.000732421875
-0.003662109375
0.0003662109375
0.000732421875
-0.0010986328125
0.00146484375
-0.00146484375
0.0029296875
-0.006591796875
0.0003662109375
-0.0029296875
-0.000732421875
0.0018310546875
0.0018310546875
-0.00146484375
0.00146484375
0.0010986328125
-0.000732421875
0.0062255859375
-0.000732421875
0.0047607421875
0.0
0.00439453125
-0.00146484375
0.0029296875
0.0
-0.0003662109375
0.0018310546875
0.0025634765625
0.000732421875
0.0029296875
0.000732421875
-0.002197265625
0.0010986328125
0.0
-0.005859375
-0.012451171875
0.00146484375
-0.00146484375
0.0069580078125
0.0164794921875
-0.0029296875
0.0076904296875
-0.000732421875
0.008056640625
0.0032958984375
0.00439453125
0.003662109375
-0.0018310546875
0.0010986328125
-0.0040283203125
-0.000732421875
-0.00439453125
0.0
-0.006591796875
0.0003662109375
-0.0018310546875
0.0010986328125
0.0029296875
0.00146484375
0.0018310546875
0.0
0.0047607421875
-0.0018310546875
0.002197265625
0.0
0.0
0.002197265625
0.00146484375
0.0003662109375
-0.000732421875
0.00146484375
0.002197265625
0.0018310546875
-0.0003662109375
0.00146484375
-0.000732421875
0.0113525390625
-0.012451171875
0.0120849609375
-0.01904296875
-0.0029296875
0.0040283203125
-0.006591796875
0.01611328125
0.0069580078125
-0.0029296875
0.003662109375
-0.0069580078125
0.006591796875
-0.0069580078125
0.0113525390625
-0.0208740234375
-0.000732421875
0.000732421875
0.0010986328125
0.01025390625
0.003662109375
-0.000732421875
0.0018310546875
0.0029296875
0.0003662109375
0.00439453125
0.0
0.000732421875
-0.0040283203125
0.0054931640625
-0.0029296875
0.0098876953125
0.0
0.0047607421875
0.00146484375
0.0047607421875
0.00146484375
0.005859375
0.000732421875
0.0018310546875
0.0003662109375
0.0040283203125
-0.0003662109375
0.0062255859375
0.0010986328125
0.00146484375
0.00146484375
-0.0018310546875
0.003662109375
-0.005126953125
0.0040283203125
-0.0010986328125
0.00439453125
0.0003662109375
0.00439453125
-0.00146484375
0.0047607421875
-0.0047607421875
0.005126953125
-0.0025634765625
0.0040283203125
-0.0003662109375
0.003662109375
-0.0029296875
0.002197265625
0.002197265625
0.003662109375
0.0003662109375
0.0018310546875
-0.015380859375
0.0025634765625
-0.0040283203125
0.0098876953125
-0.0029296875
0.00732421875
-0.0142822265625
-0.0003662109375
-0.0047607421875
-0.0003662109375
-0.0087890625
0.0
-0.005859375
-0.005859375
0.003662109375
-0.009521484375
0.0069580078125
-0.008056640625
0.0084228515625
-0.005126953125
0.0084228515625
-0.00439453125
0.006591796875
-0.0062255859375
0.0029296875
-0.00439453125
-0.003662109375
0.000732421875
-0.0087890625
0.0
-0.0062255859375
-0.002197265625
-0.00439453125
0.0
-0.0025634765625
-0.0003662109375
-0.0047607421875
-0.0025634765625
-0.00732421875
-0.002197265625
-0.003662109375
0.00146484375
-0.0069580078125
-0.00146484375
-0.0018310546875
-0.0029296875
-0.0032958984375
-0.0003662109375
-0.00439453125
-0.000732421875
-0.003662109375
0.0025634765625
-0.006591796875
-0.0018310546875
-0.0003662109375
-0.0018310546875
0.002197265625
0.0025634765625
-0.00439453125
-0.00146484375
-0.0003662109375
-0.0018310546875
0.005126953125
0.00146484375
-0.0003662109375
0.00146484375
-0.00146484375
-0.0003662109375
-0.000732421875
0.0018310546875
-0.0040283203125
0.002197265625
-0.0076904296875
0.00146484375
-0.006591796875
0.0003662109375
0.0010986328125
-0.0025634765625
0.0069580078125
0.0003662109375
0.005859375
0.0
0.01025390625
0.000732421875
0.0084228515625
0.0018310546875
0.003662109375
0.0010986328125
0.000732421875
0.0010986328125
-0.006591796875
0.0003662109375
-0.005859375
0.0025634765625
0.0025634765625
0.00146484375
0.005859375
0.0010986328125
0.0029296875
-0.0018310546875
-0.0029296875
-0.000732421875
-0.005859375
0.00146484375
0.00439453125
0.000732421875
0.0084228515625
-0.000732421875
0.00439453125
-0.003662109375
-0.008056640625
-0.0010986328125
0.0
0.0010986328125
0.009521484375
0.000732421875
0.000732421875
-0.0003662109375
0.005859375
-0.0003662109375
0.006591796875
0.002197265625
0.00146484375
0.0029296875
-0.005126953125
0.002197265625
-0.005859375
0.000732421875
-0.00146484375
0.0003662109375
-0.0025634765625
0.012451171875
-0.0150146484375
0.0032958984375
0.0025634765625
-0.008056640625
0.017578125
0.012451171875
-0.0142822265625
0.0128173828125
-0.0179443359375
-0.005859375
0.0062255859375
-0.0091552734375
0.0120849609375
-0.000732421875
0.0091552734375
0.000732421875
0.003662109375
-0.0010986328125
0.0003662109375
0.0032958984375
-0.0010986328125
0.0047607421875
-0.0029296875
0.003662109375
-0.0029296875
0.0018310546875
-0.00146484375
0.0003662109375
-0.002197265625
0.00146484375
-0.0029296875
0.00146484375
-0.010986328125
0.002197265625
0.0018310546875
0.00439453125
0.005859375
0.0032958984375
-0.0029296875
0.0
0.0018310546875
0.0
-0.0025634765625
0.00146484375
0.000732421875
0.0010986328125
0.002197265625
0.0025634765625
-0.0029296875
0.002197265625
-0.000732421875
0.0
0.0032958984375
0.0029296875
-0.000732421875
0.0025634765625
-0.000732421875
0.00146484375
0.0003662109375
0.0029296875
-0.002197265625
0.0032958984375
-0.005859375
0.0
-0.00439453125
-0.0010986328125
0.0003662109375
0.0018310546875
-0.0018310546875
0.0010986328125
-0.0025634765625
-0.00146484375
-0.0010986328125
-0.0018310546875
-0.000732421875
-0.0029296875
0.0047607421875
-0.003662109375
0.005859375
-0.0047607421875
0.005126953125
-0.00732421875
0.0062255859375
-0.005859375
0.0032958984375
-0.006591796875
0.0
-0.00439453125
0.0
0.0003662109375
-0.0054931640625
0.0010986328125
-0.003662109375
-0.0018310546875
0.0003662109375
-0.00439453125
0.0010986328125
-0.00146484375
0.00146484375
-0.0025634765625
-0.000732421875
-0.005859375
0.002197265625
-0.0018310546875
-0.0018310546875
0.0010986328125
-0.005126953125
-0.0010986328125
-0.0010986328125
-0.002197265625
0.0032958984375
-0.00146484375
0.0032958984375
0.0
0.000732421875
-0.0003662109375
-0.00146484375
0.0
-0.0032958984375
0.0018310546875
-0.005126953125
-0.0003662109375
-0.005126953125
-0.0040283203125
0.000732421875
0.0003662109375
-0.0029296875
0.0029296875
-0.0040283203125
0.0025634765625
0.0003662109375
0.00146484375
-0.00439453125
0.0
-0.0032958984375
0.0018310546875
-0.00146484375
0.0025634765625
-0.0025634765625
0.00146484375
-0.0029296875
-0.003662109375
-0.0084228515625
0.0
0.0040283203125
0.006591796875
0.0106201171875
0.0025634765625
0.005859375
-0.0003662109375
0.01171875
0.000732421875
0.01025390625
-0.000732421875
0.005859375
-0.0003662109375
0.0
0.0032958984375
-0.0062255859375
0.00146484375
-0.0025634765625
-0.000732421875
0.0003662109375
0.000732421875
-0.0025634765625
0.0
0.0010986328125
0.0010986328125
-0.0018310546875
0.0018310546875
-0.00439453125
0.0303955078125
-0.035919189453125
0.0274658203125
-0.037384033203125
-0.0142822265625
0.016876220703125
-0.0164794921875
0.024200439453125
-0.00732421875
0.01318359375
0.01171875
-0.0106201171875
-0.003662109375
0.0
-0.0179443359375
0.016845703125
-0.0010986328125
-0.0047607421875
0.0040283203125
-0.0098876953125
0.009521484375
-0.013916015625
0.005859375
-0.008453369140625
0.0
-0.003692626953125
-0.005859375
-0.0087890625
-0.0003662109375
0.004425048828125
0.0040283203125
0.011383056640625
0.0018310546875
0.0018310546875
0.0
0.00732421875
0.0003662109375
0.00732421875
0.0018310546875
0.0
0.0003662109375
-0.0029296875
0.0010986328125
-0.0010986328125
0.000732421875
0.0
-0.0003662109375
0.0010986328125
-0.000732421875
0.0054931640625
-0.000732421875
0.0047607421875
-0.0025634765625
0.00146484375
-0.0018310546875
0.0029296875
0.0010986328125
0.0040283203125
0.0003662109375
0.0040283203125
0.0003662109375
0.0003662109375
0.003662109375
-0.0029296875
0.009521484375
-0.0069580078125
0.0120849609375
-0.006591796875
0.0113525390625
0.000732421875
0.0062255859375
0.0087890625
0.0054931640625
0.0054931640625
0.0098876953125
-0.00732421875
0.0084228515625
-0.01025390625
0.005126953125
-0.0091552734375
-0.000732421875
-0.016876220703125
0.0010986328125
-0.00146484375
0.010986328125
0.00146484375
0.00439453125
-0.004791259765625
-0.0054931640625
0.005126953125
0.0
0.0
0.0091552734375
-0.0098876953125
0.0084228515625
-0.015380859375
-0.0054931640625
-0.000732421875
-0.01611328125
0.0084228515625
-0.0179443359375
0.01171875
-0.0186767578125
0.016143798828125
-0.0208740234375
0.016510009765625
-0.01611328125
0.0164794921875
-0.00732421875
0.0062255859375
-0.01025390625
0.003662109375
-0.015380859375
0.0029296875
-0.0135498046875
0.00146484375
-0.0091552734375
0.0040283203125
-0.0069580078125
0.0
-0.0054931640625
-0.002197265625
-0.0054931640625
0.0025634765625
0.0
-0.005859375
0.010986328125
-0.0205078125
-0.0010986328125
-0.0018310546875
-0.0146484375
0.0135498046875
-0.008056640625
0.0054931640625
-0.002197265625
0.0
-0.0018310546875
-0.006591796875
-0.00146484375
-0.0054931640625
-0.0003662109375
0.002197265625
0.0
0.0018310546875
-0.0040283203125
0.003662109375
-0.003662109375
0.0025634765625
-0.0025634765625
-0.0018310546875
-0.000732421875
-0.005126953125
0.0
-0.0029296875
-0.005126953125
-0.0010986328125
-0.00146484375
-0.0040283203125
0.0062255859375
-0.0040283203125
0.002197265625
0.0029296875
-0.0010986328125
0.0010986328125
0.0069580078125
-0.0113525390625
0.0025634765625
-0.0018310546875
-0.0062255859375
0.01171875
-0.0040283203125
0.0076904296875
-0.00146484375
0.0010986328125
0.0018310546875
-0.0010986328125
0.008056640625
-0.0084228515625
0.002197265625
-0.00146484375
-0.00146484375
0.006591796875
-0.0003662109375
0.0010986328125
0.01171875
-0.0142822265625
0.0146484375
-0.0146484375
0.00146484375
0.000732421875
0.0018310546875
0.0032958984375
-0.0010986328125
-0.006988525390625
0.0010986328125
0.0
0.005859375
0.007720947265625
0.0018310546875
0.0010986328125
-0.000732421875
0.00439453125
0.0
0.0010986328125
-0.00439453125
0.008056640625
-0.0032958984375
0.0113525390625
0.0010986328125
-0.0010986328125
-0.00146484375
-0.0029296875
-0.002197265625
0.0047607421875
-0.0025634765625
0.0054931640625
-0.0032958984375
0.00732421875
-0.0029296875
0.0069580078125
-0.0003662109375
0.0047607421875
0.0010986328125
0.0
0.0062255859375
-0.010986328125
0.003662109375
-0.006591796875
-0.00146484375
0.005126953125
0.0010986328125
0.005126953125
0.002197265625
0.0029296875
0.005859375
0.002197265625
0.0054931640625
-0.0003662109375
0.00439453125
0.000732421875
0.00146484375
0.00439453125
0.000732421875
0.0054931640625
0.0054931640625
0.005126953125
0.00732421875
-0.0047607421875
0.009521484375
-0.0029296875
0.0091552734375
-0.00439453125
0.0054931640625
-0.0120849609375
0.0047607421875
-0.000732421875
0.0054931640625
-0.0010986328125
0.0025634765625
0.000732421875
0.0025634765625
0.0025634765625
0.0087890625
-0.00439453125
0.008056640625
-0.003662109375
0.0040283203125
0.000732421875
0.0054931640625
-0.0010986328125
0.0040283203125
0.0
0.0032958984375
0.0
0.0062255859375
-0.0047607421875
0.0054931640625
-0.005859375
0.0040283203125
-0.0076904296875
0.0040283203125
-0.0025634765625
0.005126953125
0.0010986328125
0.005126953125
-0.00439453125
0.0018310546875
-0.00439453125
0.0018310546875
-0.0018310546875
0.0040283203125
-0.0047607421875
0.0032958984375
-0.005126953125
0.0029296875
-0.005889892578125
0.0
-0.003326416015625
0.0003662109375
0.00146484375
0.002197265625
0.000732421875
-0.0029296875
-0.01025390625
-0.002197265625
0.000732421875
0.0025634765625
0.008056640625
0.0010986328125
-0.00146484375
-0.0003662109375
-0.00146484375
-0.0010986328125
-0.002197265625
0.000732421875
-0.0018310546875
0.00439453125
-0.006591796875
0.0032958984375
-0.00439453125
0.0025634765625
-0.0010986328125
0.003662109375
-0.0062255859375
0.00146484375
-0.005126953125
0.0010986328125
-0.000732421875
-0.0010986328125
0.000732421875
-0.002197265625
-0.0018310546875
-0.0010986328125
-0.0018310546875
-0.0018310546875
0.0010986328125
-0.0010986328125
0.00146484375
-0.00146484375
-0.0029296875
-0.00146484375
-0.005859375
0.0
0.0
0.0
0.0025634765625
0.002197265625
-0.00146484375
-0.0018310546875
-0.0040283203125
-0.003662109375
-0.002197265625
0.0018310546875
0.0
-0.00146484375
0.00146484375
-0.00439453125
0.0029296875
-0.0032958984375
-0.00439453125
-0.000732421875
0.0010986328125
0.0018310546875
0.003662109375
0.0029296875
-0.002197265625
0.000732421875
0.0
-0.0010986328125
0.002197265625
-0.000732421875
0.005126953125
-0.0025634765625
0.002197265625
-0.0018310546875
0.002197265625
0.0
0.000732421875
0.0025634765625
-0.002197265625
0.002197265625
-0.0010986328125
-0.0047607421875
0.005859375
-0.005126953125
0.0054931640625
-0.0029296875
0.0
-0.000732421875
-0.0025634765625
0.0025634765625
-0.0040283203125
-0.000732421875
-0.0003662109375
-0.00439453125
0.0032958984375
0.0
0.0003662109375
0.0018310546875
-0.003662109375
-0.00146484375
-0.0025634765625
-0.0032958984375
-0.0047607421875
-0.0029296875
-0.002197265625
-0.00146484375
0.0
0.000732421875
-0.0025634765625
0.0010986328125
-0.0010986328125
-0.0003662109375
0.0029296875
-0.0003662109375
0.003662109375
0.0025634765625
-0.008056640625
0.005859375
-0.002197265625
0.002197265625
0.008056640625
0.0
0.0047607421875
0.002197265625
0.0054931640625
0.0025634765625
0.0040283203125
0.002197265625
0.0003662109375
0.00146484375
0.0010986328125
-0.000732421875
-0.0018310546875
0.00146484375
-0.00439453125
0.0003662109375
0.0
-0.0018310546875
0.005126953125
0.000732421875
0.0018310546875
0.0
0.0
-0.0003662109375
-0.0003662109375
0.00146484375
-0.0025634765625
0.00146484375
-0.002197265625
-0.0010986328125
-0.0029296875
-0.0010986328125
-0.003662109375
-0.0003662109375
-0.0018310546875
-0.0010986328125
0.000732421875
0.00146484375
0.0010986328125
0.00439453125
-0.000732421875
0.0003662109375
-0.005126953125
-0.0003662109375
0.0003662109375
0.0047607421875
0.0029296875
0.0025634765625
0.0003662109375
-0.000732421875
0.0003662109375
0.0
-0.0076904296875
0.000732421875
0.0010986328125
0.0032958984375
0.00146484375
0.0029296875
-0.00732421875
0.002197265625
0.0010986328125
0.003662109375
0.0040283203125
0.0025634765625
-0.00146484375
0.002197265625
-0.0054931640625
0.006591796875
-0.01171875
0.0076904296875
-0.0157470703125
0.000732421875
-0.0091552734375
0.009521484375
-0.0146484375
0.005859375
-0.0076904296875
-0.0087890625
0.0128173828125
0.005126953125
0.00146484375
0.0040283203125
-0.0003662109375
-0.005126953125
0.009521484375
-0.000732421875
0.0025634765625
0.0003662109375
-0.0018310546875
0.0018310546875
-0.000732421875
0.0029296875
0.002197265625
0.0025634765625
-0.00146484375
0.0029296875
-0.0040283203125
0.0029296875
-0.0032958984375
0.0010986328125
-0.00146484375
0.003662109375
-0.0040283203125
0.0029296875
-0.0040283203125
0.001861572265625
-0.00146484375
0.005523681640625
-0.00146484375
0.0032958984375
-0.01904296875
0.002197265625
0.0
0.005126953125
0.0084228515625
0.005126953125
-0.01025390625
0.00439453125
0.000732421875
0.0047607421875
0.00146484375
0.00439453125
0.0018310546875
0.005126953125
-0.0040283203125
0.0054931640625
-0.00439453125
0.0062255859375
-0.0010986328125
0.005859375
-0.0040283203125
0.002197265625
-0.00146484375
0.0025634765625
-0.0032958984375
0.0047607421875
-0.0062255859375
0.0040283203125
-0.003662109375
0.0025634765625
-0.000732421875
0.0029296875
-0.00146484375
0.0054931640625
-0.00732421875
0.008056640625
-0.009521484375
0.005859375
-0.009521484375
0.0018310546875
-0.005126953125
0.003662109375
-0.0029296875
0.006591796875
-0.01025390625
0.0062255859375
-0.009521484375
0.0054931640625
-0.0025634765625
0.0047607421875
-0.002197265625
0.0054931640625
-0.005126953125
0.0054931640625
-0.0047607421875
0.002197265625
-0.0135498046875
-0.0018310546875
0.005126953125
0.0003662109375
0.0098876953125
0.0029296875
-0.0062255859375
-0.005126953125
0.0098876953125
-0.0128173828125
0.0150146484375
-0.01318359375
0.015380859375
-0.0054931640625
0.0157470703125
-0.0047607421875
0.0120849609375
-0.009521484375
0.0087890625
-0.009521484375
0.0087890625
-0.0084228515625
0.00732421875
-0.0054931640625
0.0003662109375
-0.0047607421875
-0.0025634765625
-0.003662109375
-0.0003662109375
-0.0032958984375
0.0010986328125
-0.002197265625
0.000732421875
-0.0025634765625
-0.0032958984375
-0.0032958984375
-0.0025634765625
-0.000732421875
0.000732421875
-0.003662109375
-0.0018310546875
-0.003662109375
-0.0003662109375
0.0
-0.0029296875
-0.002197265625
-0.0025634765625
-0.0047607421875
0.0032958984375
-0.0032958984375
-0.0032958984375
-0.0025634765625
-0.0029296875
-0.0032958984375
0.0032958984375
-0.00146484375
-0.000732421875
-0.0040283203125
-0.0113525390625
0.0
-0.002197265625
0.00439453125
0.00732421875
-0.00146484375
0.005126953125
-0.0025634765625
0.010986328125
-0.0003662109375
0.0076904296875
-0.0003662109375
0.005859375
-0.0010986328125
0.000732421875
0.00146484375
-0.005859375
0.0040283203125
-0.006591796875
0.0010986328125
-0.0018310546875
-0.002197265625
0.0054931640625
0.0003662109375
0.0040283203125
0.0010986328125
0.0032958984375
0.00146484375
0.0
0.0040283203125
-0.0029296875
0.0010986328125
0.0
-0.000732421875
-0.0010986328125
0.002197265625
-0.0047607421875
0.0010986328125
-0.000732421875
0.000732421875
0.00439453125
-0.000732421875
0.002197265625
-0.0018310546875
0.0025634765625
0.0003662109375
0.003662109375
0.0010986328125
-0.0010986328125
0.002197265625
-0.00439453125
0.0003662109375
0.0025634765625
0.00146484375
0.0003662109375
-0.00146484375
-0.0025634765625
0.0010986328125
0.0029296875
0.0032958984375
0.0
0.000732421875
-0.0025634765625
0.00439453125
0.0003662109375
0.0010986328125
0.005859375
-0.0040283203125
0.0047607421875
-0.00146484375
0.0
0.0018310546875
-0.0069580078125
0.0032958984375
-0.0098876953125
0.002197265625
-0.0062255859375
0.0
-0.000732421875
0.000732421875
0.002197265625
0.0010986328125
-0.0025634765625
0.012451171875
-0.01904296875
0.0091552734375
-0.016845703125
0.000732421875
-0.00439453125
-0.0010986328125
-0.00146484375
-0.0106201171875
0.0091552734375
-0.00732421875
0.012451171875
0.006591796875
-0.006591796875
0.0003662109375
-0.0025634765625
-0.006591796875
0.01318359375
-0.0029296875
0.0076904296875
-0.0025634765625
0.0054931640625
0.009521484375
-0.0087890625
0.0113525390625
-0.0113525390625
0.005126953125
-0.0047607421875
0.0
-0.0029296875
-0.002197265625
-0.012451171875
0.0029296875
0.0
0.0087890625
0.00439453125
0.0106201171875
-0.01025390625
0.00732421875
-0.0047607421875
0.0054931640625
-0.0047607421875
-0.0018310546875
0.005859375
-0.000732421875
0.0062255859375
0.0062255859375
-0.0047607421875
0.00732421875
-0.0062255859375
0.0069580078125
-0.0040283203125
0.0040283203125
0.0018310546875
0.0029296875
0.0018310546875
0.005126953125
-0.0018310546875
0.0040283203125
0.0010986328125
0.000732421875
0.0018310546875
0.0047607421875
-0.0029296875
0.01318359375
-0.0106201171875
0.0091552734375
-0.005859375
-0.00732421875
0.0128173828125
-0.009521484375
0.018310546875
-0.003662109375
0.008056640625
0.0032958984375
-0.000732421875
0.005859375
-0.00146484375
0.005859375
-0.003662109375
0.005126953125
-0.005859375
0.003662109375
-0.0010986328125
0.0040283203125
-0.0029296875
0.00146484375
-0.012451171875
0.0032958984375
-0.00146484375
0.0047607421875
0.0010986328125
0.005126953125
-0.009521484375
0.0032958984375
-0.005859375
-0.0003662109375
-0.005126953125
-0.0032958984375
0.0
0.0
0.0018310546875
0.0
0.0018310546875
-0.0032958984375
0.00439453125
-0.0025634765625
0.0029296875
-0.0047607421875
0.0029296875
-0.0054931640625
0.0
-0.0069580078125
-0.0062255859375
-0.0054931640625
-0.0084228515625
0.0040283203125
-0.01318359375
0.0296630859375
-0.052001953125
0.016845703125
-0.041015625
-0.0120849609375
0.00146484375
-0.0084228515625
0.0010986328125
-0.0098876953125
0.002197265625
-0.008056640625
0.000732421875
-0.0054931640625
-0.0029296875
-0.0032958984375
-0.00439453125
-0.0025634765625
0.0018310546875
0.0003662109375
0.0032958984375
-0.000732421875
0.000732421875
-0.003662109375
0.0032958984375
-0.002197265625
-0.0003662109375
-0.005859375
-0.009521484375
0.0
0.005126953125
0.0029296875
0.013916015625
-0.000732421875
0.0069580078125
-0.0010986328125
0.0091552734375
-0.0010986328125
0.0018310546875
-0.002197265625
0.0032958984375
-0.002197265625
0.0025634765625
0.0003662109375
-0.0054931640625
0.0010986328125
-0.0076904296875
0.0018310546875
-0.005126953125
-0.0172119140625
0.0216064453125
-0.02197265625
0.034423828125
-0.0029296875
0.0223388671875
0.000732421875
0.012451171875
0.0018310546875
0.0029296875
0.0032958984375
-0.0029296875
0.0032958984375
-0.005859375
0.00439453125
-0.005126953125
0.0054931640625
-0.0032958984375
0.0010986328125
0.003662109375
0.0
0.00146484375
0.0032958984375
-0.002197265625
0.000732421875
0.0003662109375
0.0208740234375
-0.032958984375
0.0267333984375
-0.035888671875
0.0032958984375
0.002197265625
-0.0003662109375
0.003662109375
-0.0003662109375
0.0029296875
-0.005126953125
-0.008056640625
-0.0025634765625
0.000732421875
-0.0010986328125
0.01611328125
-0.0018310546875
0.0069580078125
0.0010986328125
0.006591796875
-0.00146484375
0.0025634765625
-0.0010986328125
0.00146484375
0.0029296875
-0.0029296875
0.0018310546875
-0.006591796875
0.0003662109375
-0.0062255859375
-0.0003662109375
-0.0003662109375
0.0
0.0062255859375
0.0
0.00439453125
-0.005859375
0.0098876953125
0.0003662109375
0.005126953125
0.0025634765625
-0.0025634765625
-0.0076904296875
0.0087890625
-0.0040283203125
0.01171875
0.0098876953125
-0.01025390625
0.0003662109375
-0.0029296875
0.00439453125
-0.0047607421875
0.0120849609375
-0.02197265625
-0.00146484375
-0.0062255859375
-0.002197265625
-0.00146484375
-0.0040283203125
0.0029296875
-0.002197265625
0.0032958984375
-0.0018310546875
0.0
0.0018310546875
-0.000732421875
0.002197265625
-0.0032958984375
0.0025634765625
-0.0054931640625
0.005126953125
-0.00732421875
0.0113525390625
-0.018310546875
-0.0010986328125
-0.000732421875
-0.0128173828125
0.0205078125
-0.0029296875
0.005859375
-0.0018310546875
0.00146484375
-0.002197265625
0.002197265625
-0.000732421875
0.0010986328125
0.0032958984375
-0.0029296875
0.018310546875
-0.0230712890625
0.006591796875
-0.002197265625
-0.002197265625
0.0106201171875
-0.00146484375
0.005126953125
-0.0047607421875
0.01171875
0.009521484375
-0.01025390625
-0.000732421875
-0.005859375
-0.01025390625
0.01611328125
-0.0025634765625
0.01171875
0.002197265625
0.00146484375
0.0018310546875
0.000732421875
0.002197265625
0.0003662109375
0.00439453125
-0.006591796875
0.0029296875
-0.0018310546875
0.003662109375
0.0
0.006591796875
-0.0054931640625
0.002197265625
-0.0003662109375
0.0032958984375
0.000732421875
0.0069580078125
-0.0142822265625
0.008056640625
-0.0032958984375
0.0150146484375
-0.0032958984375
0.013916015625
-0.015380859375
0.0076904296875
-0.003662109375
0.00439453125
-0.0047607421875
0.0025634765625
0.0018310546875
0.00439453125
-0.0018310546875
0.0040283203125
-0.0047607421875
0.0054931640625
-0.00439453125
0.0054931640625
-0.0087890625
0.005859375
-0.005126953125
0.008056640625
-0.008056640625
0.0076904296875
-0.01318359375
0.0029296875
-0.0040283203125
-0.0054931640625
0.0018310546875
-0.0054931640625
0.00146484375
-0.0040283203125
0.0069580078125
-0.0084228515625
0.012451171875
-0.0091552734375
0.0128173828125
-0.006591796875
0.0106201171875
-0.0098876953125
0.0113525390625
-0.0128173828125
0.012451171875
-0.0106201171875
0.008056640625
-0.0091552734375
-0.00146484375
-0.0076904296875
-0.00439453125
-0.0069580078125
0.0
-0.005859375
0.0003662109375
-0.005859375
0.0010986328125
-0.002197265625
0.002197265625
-0.00146484375
-0.0032958984375
-0.0032958984375
-0.002197265625
-0.0018310546875
0.005859375
-0.002197265625
0.0054931640625
-0.0025634765625
0.0003662109375
-0.006591796875
0.005126953125
-0.0047607421875
0.00439453125
-0.000732421875
-0.0040283203125
0.0
-0.0018310546875
-0.003662109375
0.0047607421875
-0.0047607421875
0.005859375
-0.0003662109375
0.00146484375
-0.002197265625
0.0032958984375
-0.000732421875
-0.00146484375
-0.0003662109375
-0.0029296875
-0.0032958984375
0.00146484375
-0.0018310546875
-0.00146484375
-0.00146484375
0.0
-0.0003662109375
0.002197265625
-0.0025634765625
0.0032958984375
-0.0032958984375
0.002197265625
0.0003662109375
-0.0025634765625
-0.0025634765625
-0.0003662109375
-0.0018310546875
0.000732421875
0.0010986328125
-0.0029296875
0.00146484375
-0.003662109375
0.0010986328125
-0.002197265625
-0.0032958984375
-0.000732421875
-0.0018310546875
0.005126953125
0.0018310546875
0.000732421875
0.000732421875
-0.0025634765625
0.00146484375
0.005126953125
-0.00146484375
0.0025634765625
-0.0025634765625
0.0029296875
0.0
0.0029296875
0.0
-0.005126953125
0.0003662109375
-0.0087890625
-0.0003662109375
-0.003662109375
0.002197265625
-0.002197265625
0.0010986328125
-0.0010986328125
-0.0025634765625
0.002197265625
-0.002197265625
0.0029296875
-0.0010986328125
0.0018310546875
0.0
0.0018310546875
0.000732421875
0.0018310546875
0.0029296875
0.000732421875
0.0069580078125
-0.0029296875
0.012451171875
-0.0172119140625
0.0025634765625
-0.002197265625
-0.01025390625
0.016845703125
-0.0062255859375
0.01025390625
-0.0003662109375
0.0047607421875
0.0018310546875
0.0010986328125
0.000732421875
0.0040283203125
0.0
0.003662109375
0.0
0.002197265625
0.003662109375
-0.0076904296875
0.002197265625
0.0010986328125
0.0029296875
0.006591796875
0.0032958984375
-0.002197265625
-0.0010986328125
0.0018310546875
0.0010986328125
0.0010986328125
0.0010986328125
0.00146484375
0.0032958984375
-0.002197265625
0.003662109375
-0.003662109375
0.00146484375
-0.002197265625
0.003662109375
0.000732421875
0.0029296875
0.002197265625
0.00146484375
0.0029296875
0.002197265625
0.0025634765625
0.0029296875
-0.000732421875
0.00146484375
-0.0025634765625
0.00146484375
-0.002197265625
0.002197265625
0.00146484375
0.0040283203125
-0.006591796875
0.008056640625
-0.0076904296875
0.0040283203125
0.0010986328125
0.0025634765625
-0.000732421875
0.005126953125
-0.0047607421875
0.0029296875
-0.005126953125
0.0029296875
-0.002197265625
0.00146484375
0.0
-0.000732421875
-0.0018310546875
0.000732421875
-0.0084228515625
-0.002197265625
-0.0135498046875
-0.003662109375
0.0062255859375
-0.0010986328125
0.013916015625
-0.0029296875
0.005126953125
-0.0054931640625
0.00732421875
-0.005859375
0.0087890625
-0.006591796875
0.0120849609375
-0.005859375
0.009521484375
-0.005859375
0.0054931640625
-0.0029296875
-0.000732421875
-0.0010986328125
-0.00146484375
-0.0054931640625
0.005859375
-0.0062255859375
0.0029296875
-0.0032958984375
-0.003662109375
-0.0029296875
-0.0018310546875
-0.0025634765625
0.0
-0.0018310546875
-0.0025634765625
-0.003662109375
-0.0029296875
-0.003662109375
-0.002197265625
-0.000732421875
-0.0025634765625
-0.0010986328125
0.0010986328125
-0.000732421875
0.0010986328125
0.000732421875
-0.002197265625
-0.0040283203125
-0.0010986328125
-0.00146484375
0.0
0.0040283203125
0.0003662109375
-0.000732421875
0.000732421875
-0.0025634765625
-0.0003662109375
-0.0018310546875
-0.0025634765625
-0.0010986328125
0.0018310546875
0.0040283203125
-0.0032958984375
0.003662109375
-0.005859375
-0.00146484375
0.0010986328125
-0.0040283203125
0.003662109375
-0.00146484375
0.0040283203125
0.0003662109375
-0.0025634765625
-0.0018310546875
-0.005126953125
0.0010986328125
-0.0091552734375
-0.000732421875
-0.005126953125
-0.0025634765625
0.0018310546875
-0.00146484375
0.00146484375
-0.00146484375
0.0040283203125
-0.000732421875
0.002197265625
-0.0018310546875
0.00146484375
-0.000732421875
0.0047607421875
0.002197265625
0.00146484375
0.0018310546875
-0.0010986328125
-0.0032958984375
-0.000732421875
-0.0010986328125
0.000732421875
0.0040283203125
0.0040283203125
-0.00146484375
0.003662109375
-0.00146484375
0.002197265625
0.0003662109375
-0.00146484375
-0.0010986328125
-0.0010986328125
0.000732421875
0.003662109375
-0.000732421875
0.0032958984375
0.000732421875
0.002197265625
-0.0025634765625
-0.0003662109375
-0.0018310546875
0.005859375
0.00439453125
0.002197265625
0.000732421875
-0.00146484375
-0.0029296875
0.00732421875
-0.0003662109375
0.0029296875
0.0
0.00439453125
0.0
0.0047607421875
0.0003662109375
-0.000732421875
-0.0003662109375
-0.00439453125
0.0010986328125
-0.005126953125
-0.000732421875
0.0025634765625
-0.000732421875
0.0025634765625
-0.0003662109375
0.002197265625
-0.000732421875
0.005126953125
0.0003662109375
0.000732421875
-0.0003662109375
-0.002197265625
0.0003662109375
-0.0032958984375
0.0010986328125
0.00146484375
-0.0003662109375
0.0032958984375
0.0010986328125
0.0003662109375
0.003662109375
-0.0040283203125
0.002197265625
-0.00146484375
0.0010986328125
-0.000732421875
0.0
0.000732421875
0.0025634765625
-0.0003662109375
0.0032958984375
-0.00439453125
0.0
0.000732421875
0.0025634765625
0.0003662109375
0.0010986328125
-0.01318359375
0.0
0.0
0.002197265625
0.01171875
0.0025634765625
-0.0032958984375
0.0018310546875
0.000732421875
-0.0003662109375
0.0032958984375
0.0003662109375
0.000732421875
-0.000732421875
-0.0010986328125
0.0
-0.002197265625
0.0029296875
-0.00146484375
0.0040283203125
0.0003662109375
0.002197265625
-0.000732421875
-0.0010986328125
-0.0003662109375
0.0003662109375
0.0003662109375
0.0010986328125
-0.000732421875
0.0018310546875
-0.0003662109375
0.000732421875
0.00146484375
0.0
-0.002197265625
0.0010986328125
0.0
0.00439453125
-0.003662109375
0.0047607421875
-0.00732421875
-0.0003662109375
-0.0025634765625
-0.0010986328125
-0.002197265625
-0.00732421875
0.0062255859375
-0.01025390625
0.01025390625
-0.00439453125
0.0087890625
-0.00439453125
0.003662109375
-0.008056640625
0.0054931640625
-0.006591796875
0.00439453125
-0.003662109375
-0.0087890625
-0.00439453125
-0.0025634765625
-0.0062255859375
0.00439453125
-0.005126953125
0.0018310546875
-0.0010986328125
0.0025634765625
-0.002197265625
0.0
0.000732421875
-0.0076904296875
0.00146484375
-0.0062255859375
-0.0025634765625
-0.0025634765625
-0.0029296875
-0.0069580078125
-0.0032958984375
-0.0029296875
-0.0025634765625
0.0018310546875
-0.00439453125
0.005859375
-0.0018310546875
0.00439453125
0.0
0.000732421875
-0.0018310546875
0.00146484375
-0.0003662109375
-0.00146484375
-0.000732421875
-0.0010986328125
-0.0032958984375
-0.00146484375
-0.0010986328125
0.00146484375
0.0018310546875
0.0018310546875
-0.0018310546875
0.0018310546875
-0.00146484375
0.003662109375
0.0018310546875
0.0003662109375
0.00146484375
0.0
0.000732421875
0.0
-0.0018310546875
0.0025634765625
-0.0025634765625
0.00146484375
-0.0003662109375
0.0029296875
-0.0025634765625
-0.0054931640625
-0.0032958984375
0.005126953125
0.0025634765625
0.0135498046875
0.0025634765625
0.002197265625
-0.0032958984375
0.0040283203125
-0.0029296875
0.0047607421875
-0.0010986328125
0.0076904296875
-0.00146484375
-0.0003662109375
0.0010986328125
-0.0025634765625
0.002197265625
-0.0018310546875
0.00146484375
-0.005126953125
0.0018310546875
-0.0029296875
-0.0029296875
0.0054931640625
-0.0047607421875
0.008056640625
0.00146484375
-0.0010986328125
-0.0003662109375
-0.0018310546875
-0.0029296875
-0.0010986328125
0.0025634765625
-0.003662109375
0.000732421875
-0.002197265625
-0.0029296875
0.002197265625
0.0
0.0029296875
0.0029296875
0.0018310546875
0.0003662109375
0.003662109375
-0.0010986328125
0.00146484375
0.0
-0.00146484375
0.00146484375
-0.002197265625
0.0032958984375
-0.000732421875
0.0010986328125
0.0018310546875
0.00146484375
0.000732421875
-0.0003662109375
-0.000732421875
0.0010986328125
0.003662109375
0.000732421875
-0.0003662109375
-0.0018310546875
-0.003662109375
0.0
0.0010986328125
-0.00146484375
-0.0029296875
-0.0010986328125
0.000732421875
0.000732421875
0.00146484375
0.0
-0.0018310546875
0.000732421875
-0.00439453125
0.00146484375
-0.0047607421875
0.0
0.003662109375
0.0010986328125
0.0029296875
-0.000732421875
-0.0018310546875
-0.00146484375
-0.0025634765625
0.0003662109375
0.0029296875
-0.000732421875
0.0025634765625
0.002197265625
-0.0010986328125
0.0018310546875
-0.0029296875
-0.0010986328125
-0.0025634765625
0.0010986328125
-0.00146484375
0.003662109375
-0.0032958984375
0.0010986328125
0.0054931640625
-0.00146484375
0.006591796875
-0.0003662109375
0.002197265625
0.0010986328125
0.00146484375
0.0029296875
0.00146484375
0.002197265625
0.0029296875
0.0
0.0010986328125
0.0032958984375
-0.009521484375
0.0029296875
-0.00732421875
0.0010986328125
0.0040283203125
0.00439453125
-0.00146484375
0.0025634765625
-0.002197265625
0.0
0.0010986328125
0.0
-0.0010986328125
-0.0003662109375
0.0003662109375
0.000732421875
-0.000732421875
0.0029296875
-0.0040283203125
0.0
-0.0010986328125
-0.0018310546875
0.0010986328125
-0.0040283203125
0.0047607421875
-0.0047607421875
0.008056640625
-0.0040283203125
0.0069580078125
-0.0032958984375
0.0054931640625
-0.000732421875
0.0032958984375
-0.0032958984375
0.0054931640625
-0.00439453125
0.0032958984375
-0.002197265625
0.0029296875
-0.0003662109375
0.0040283203125
-0.0003662109375
-0.0018310546875
-0.0025634765625
-0.0025634765625
-0.00439453125
-0.0018310546875
-0.0029296875
0.00146484375
-0.0025634765625
0.002197265625
-0.002197265625
-0.0010986328125
-0.000732421875
-0.002197265625
-0.00439453125
0.0010986328125
-0.0025634765625
0.0
0.003662109375
-0.0098876953125
-0.0003662109375
-0.002197265625
-0.0054931640625
0.0040283203125
-0.0025634765625
0.0018310546875
0.0010986328125
0.0
0.0010986328125
-0.00439453125
0.0010986328125
-0.0032958984375
-0.00146484375
-0.0032958984375
-0.0062255859375
-0.0025634765625
-0.0010986328125
-0.0025634765625
0.000732421875
0.002197265625
-0.0040283203125
0.0025634765625
-0.0010986328125
-0.0025634765625
-0.0040283203125
0.002197265625
-0.0054931640625
0.0003662109375
-0.000732421875
-0.00439453125
-0.0029296875
0.0025634765625
-0.0010986328125
0.008056640625
0.000732421875
0.005126953125
-0.0032958984375
0.0
0.0
0.0010986328125
0.0025634765625
0.003662109375
-0.002197265625
0.0040283203125
-0.0029296875
0.0029296875
0.0003662109375
0.002197265625
-0.0003662109375
0.00732421875
-0.0010986328125
0.005126953125
0.0003662109375
0.0010986328125
-0.0040283203125
-0.012451171875
0.000732421875
-0.0032958984375
0.0040283203125
0.0128173828125
0.0
0.0010986328125
-0.000732421875
0.003662109375
-0.00146484375
0.005126953125
-0.0010986328125
0.00146484375
-0.0010986328125
0.0018310546875
0.0003662109375
-0.000732421875
0.0010986328125
-0.002197265625
0.00146484375
-0.0018310546875
-0.0003662109375
-0.00146484375
-0.0029296875
0.0032958984375
-0.003662109375
0.005859375
-0.00146484375
0.0025634765625
0.0029296875
0.0003662109375
0.00146484375
-0.000732421875
-0.000732421875
-0.003662109375
0.000732421875
-0.00146484375
-0.0018310546875
0.00146484375
-0.0029296875
-0.00146484375
-0.0003662109375
0.0032958984375
-0.0025634765625
0.0076904296875
-0.000732421875
0.000732421875
0.0029296875
-0.003662109375
0.0025634765625
0.0003662109375
0.0010986328125
0.002197265625
0.0
-0.000732421875
0.0
0.0
0.000732421875
-0.010986328125
0.0025634765625
0.0018310546875
0.0010986328125
0.0106201171875
-0.0003662109375
-0.0010986328125
0.0025634765625
0.0003662109375
0.00439453125
-0.0018310546875
0.0029296875
0.000732421875
0.000732421875
0.00146484375
0.0003662109375
-0.0003662109375
0.0003662109375
0.000732421875
0.0003662109375
-0.000732421875
0.000732421875
-0.000732421875
0.0
0.0062255859375
0.0003662109375
0.00439453125
-0.000732421875
0.0032958984375
0.0
0.0029296875
0.0003662109375
0.0029296875
0.0
0.003662109375
0.0
0.0018310546875
-0.0010986328125
0.00146484375
0.0
-0.000732421875
0.0025634765625
0.0010986328125
0.00146484375
0.00146484375
-0.0003662109375
0.0003662109375
-0.000732421875
0.0010986328125
-0.0010986328125
0.000732421875
-0.000732421875
-0.0029296875
-0.0018310546875
-0.00146484375
-0.00439453125
0.0018310546875
-0.00732421875
-0.0029296875
-0.0062255859375
0.0113525390625
-0.0032958984375
0.013916015625
-0.0040283203125
0.005859375
-0.00439453125
0.0076904296875
-0.0047607421875
0.0029296875
-0.010650634765625
0.0054931640625
-0.008453369140625
0.0025634765625
-0.0032958984375
-0.0010986328125
-0.0047607421875
0.0
-0.003662109375
-0.0025634765625
-0.006591796875
0.0003662109375
-0.008056640625
0.006591796875
-0.005859375
0.0040283203125
-0.005126953125
0.00146484375
-0.005859375
0.000732421875
-0.0025634765625
0.0003662109375
-0.0032958984375
0.00146484375
-0.0062255859375
0.00146484375
-0.003662109375
0.0025634765625
-0.005859375
0.0025634765625
-0.0062255859375
0.0010986328125
-0.003662109375
0.002197265625
-0.003662109375
0.0029296875
-0.0047607421875
0.0029296875
-0.0032958984375
-0.0018310546875
-0.0029296875
0.0
-0.0054931640625
0.0040283203125
-0.00439453125
0.0010986328125
-0.0069580078125
0.0025634765625
-0.00732421875
-0.0054931640625
0.0003662109375
-0.0010986328125
0.0010986328125
0.011016845703125
-0.0047607421875
0.006988525390625
-0.0054931640625
0.005126953125
-0.003662109375
0.005859375
-0.003662109375
0.0029296875
-0.0032958984375
0.0
-0.005859375
-0.0029296875
-0.0040283203125
-0.002197265625
-0.0025634765625
0.003662109375
-0.002197265625
0.005126953125
-0.000732421875
0.0040283203125
-0.0032958984375
0.003662109375
-0.0032958984375
0.0054931640625
-0.0018310546875
0.0047607421875
0.0
0.0029296875
-0.002197265625
0.0032958984375
-0.0047607421875
0.0040283203125
-0.0029296875
0.006591796875
-0.0025634765625
0.0062255859375
-0.0010986328125
0.0040283203125
-0.0003662109375
0.0010986328125
-0.000732421875
0.002197265625
-0.0018310546875
0.0047607421875
-0.00146484375
0.0018310546875
-0.0010986328125
0.0087890625
-0.002197265625
0.006591796875
-0.0029296875
0.002197265625
-0.003662109375
-0.0113525390625
0.0018310546875
-0.00439453125
0.002197265625
0.013916015625
-0.0010986328125
0.0047607421875
-0.0018310546875
0.0025634765625
-0.002197265625
0.0025634765625
-0.0018310546875
0.00146484375
-0.002197265625
-0.0010986328125
-0.000732421875
-0.0029296875
-0.000732421875
-0.002197265625
0.003662109375
0.0
0.00439453125
0.002197265625
-0.0018310546875
0.0018310546875
0.0
0.0003662109375
0.0025634765625
-0.00146484375
0.0025634765625
-0.0032958984375
0.0003662109375
-0.000732421875
-0.0018310546875
0.0
0.0003662109375
-0.0003662109375
0.0018310546875
0.000732421875
0.0003662109375
0.0
0.000732421875
0.0
0.0010986328125
0.002197265625
-0.0010986328125
-0.0010986328125
0.0003662109375
-0.00146484375
0.0010986328125
-0.0003662109375
-0.0003662109375
0.0025634765625
-0.0003662109375
0.0025634765625
-0.000732421875
-0.0025634765625
0.003662109375
0.00146484375
0.0025634765625
-0.0010986328125
-0.000732421875
-0.0040283203125
0.0003662109375
0.0010986328125
0.0
0.0040283203125
0.0010986328125
0.0029296875
0.000732421875
0.0
0.0010986328125
-0.0018310546875
0.00146484375
-0.0029296875
0.0003662109375
-0.00146484375
0.0018310546875
-0.00146484375
0.00439453125
0.0003662109375
0.000732421875
0.0018310546875
-0.00146484375
0.0010986328125
-0.000732421875
0.0025634765625
0.0010986328125
0.0010986328125
0.0018310546875
-0.0025634765625
-0.0018310546875
0.000732421875
0.0025634765625
-0.00146484375
0.006591796875
-0.006591796875
0.000732421875
-0.0025634765625
-0.0029296875
-0.000732421875
0.00146484375
-0.0029296875
0.00146484375
-0.0010986328125
-0.002197265625
0.0032958984375
-0.0018310546875
0.0069580078125
-0.0047607421875
0.0106201171875
-0.0062255859375
0.0098876953125
-0.008056640625
-0.00146484375
-0.0047607421875
0.0062255859375
-0.0003662109375
0.0062255859375
-0.005126953125
-0.0032958984375
-0.0047607421875
0.0010986328125
-0.00146484375
-0.002197265625
-0.00439453125
0.0010986328125
-0.005859375
0.002197265625
-0.0029296875
-0.00146484375
-0.00146484375
-0.003662109375
-0.000732421875
-0.00146484375
-0.0029296875
0.0025634765625
-0.005859375
0.000732421875
-0.0032958984375
-0.0010986328125
-0.000732421875
0.0003662109375
-0.0018310546875
0.0003662109375
-0.0018310546875
0.0
0.0003662109375
-0.0010986328125
0.0018310546875
0.0003662109375
-0.00146484375
0.00146484375
-0.005126953125
0.0018310546875
-0.00146484375
0.002197265625
0.0003662109375
0.002197265625
-0.0010986328125
0.0029296875
-0.0018310546875
-0.000732421875
-0.00146484375
-0.0010986328125
-0.0003662109375
0.00146484375
-0.0018310546875
0.000732421875
-0.000732421875
0.00146484375
-0.0025634765625
-0.00439453125
-0.0025634765625
0.0032958984375
0.000732421875
0.0076904296875
0.0
0.0018310546875
0.0010986328125
0.0029296875
0.00146484375
0.0018310546875
0.0
0.0029296875
0.0
0.002197265625
-0.0003662109375
-0.00146484375
-0.002197265625
-0.0025634765625
-0.0010986328125
-0.00146484375
-0.0025634765625
-0.0003662109375
-0.0032958984375
0.0025634765625
0.000732421875
0.00146484375
-0.002197265625
0.0018310546875
-0.0029296875
0.0003662109375
0.0010986328125
0.000732421875
-0.000732421875
0.0010986328125
-0.0018310546875
-0.0047607421875
0.00146484375
-0.0029296875
0.0047607421875
0.0003662109375
0.0010986328125
0.0
-0.0018310546875
-0.0010986328125
0.0003662109375
-0.0010986328125
0.000732421875
0.0003662109375
0.0032958984375
-0.0003662109375
0.00146484375
0.0010986328125
0.0003662109375
-0.0003662109375
0.00732421875
-0.006591796875
0.003662109375
-0.01025390625
-0.000732421875
-0.0003662109375
0.0018310546875
0.0029296875
0.01171875
-0.0135498046875
0.019775390625
-0.0234375
0.0018310546875
-0.0091552734375
-0.0172119140625
0.017578125
-0.01318359375
0.0194091796875
-0.0029296875
0.005859375
0.0010986328125
0.0003662109375
0.0025634765625
-0.0010986328125
0.0025634765625
-0.00146484375
-0.000732421875
0.00146484375
-0.003662109375
0.0025634765625
0.000732421875
-0.0003662109375
0.0040283203125
-0.0018310546875
0.00439453125
-0.005126953125
0.00732421875
-0.006591796875
0.009521484375
-0.008056640625
0.0087890625
-0.0091552734375
0.0076904296875
-0.006591796875
0.005859375
-0.0040283203125
0.0054931640625
-0.006591796875
0.0087890625
-0.0098876953125
0.008056640625
-0.006591796875
0.0047607421875
-0.0029296875
0.0040283203125
-0.003662109375
0.00439453125
-0.005859375
0.003662109375
-0.008056640625
0.00732421875
0.0003662109375
0.0054931640625
-0.0029296875
0.0047607421875
-0.0113525390625
0.00732421875
-0.0029296875
0.0040283203125
0.0
0.0018310546875
-0.003662109375
0.0025634765625
-0.00439453125
0.00732421875
-0.005859375
0.0091552734375
-0.005126953125
0.005859375
-0.00439453125
0.0025634765625
0.00146484375
0.0025634765625
0.0040283203125
0.0047607421875
-0.0025634765625
0.0047607421875
-0.000732421875
0.003662109375
-0.000732421875
0.0029296875
-0.0032958984375
0.002197265625
-0.005523681640625
0.0025634765625
-0.004058837890625
0.0003662109375
0.0003662109375
0.0018310546875
0.0010986328125
0.0018310546875
0.0
-0.00146484375
0.0
-0.0010986328125
0.001129150390625
-0.0003662109375
0.003692626953125
0.0025634765625
0.002197265625
-0.002197265625
0.0054931640625
-0.0069580078125
0.009521484375
-0.0010986328125
0.000732421875
-0.005859375
-0.0087890625
-0.009521484375
0.0076904296875
0.000732421875
0.005126953125
0.002197265625
-0.00732421875
-0.0032958984375
0.0
-0.0018310546875
-0.000732421875
-0.0010986328125
0.0
0.000732421875
-0.0076904296875
-0.0010986328125
-0.003662109375
-0.00439453125
0.0040283203125
-0.0025634765625
-0.0003662109375
-0.0025634765625
0.0010986328125
-0.0025634765625
0.00732421875
-0.0018310546875
0.003662109375
-0.0018310546875
-0.0018310546875
-0.003662109375
0.0018310546875
-0.0040283203125
0.002197265625
-0.00439453125
0.0029296875
-0.0040283203125
0.000732421875
-0.00439453125
-0.000732421875
-0.000732421875
-0.0003662109375
0.000732421875
0.0
-0.0010986328125
0.0018310546875
0.0029296875
-0.0029296875
-0.0003662109375
-0.003662109375
-0.0010986328125
-0.0018310546875
0.00146484375
-0.0003662109375
-0.0018310546875
0.0010986328125
-0.0018310546875
-0.0010986328125
-0.000732421875
-0.0062255859375
0.000732421875
0.002197265625
0.000732421875
0.00439453125
-0.0003662109375
-0.0018310546875
0.0003662109375
0.0025634765625
0.0
0.0010986328125
-0.000732421875
-0.0010986328125
-0.000732421875
-0.000732421875
-0.0018310546875
-0.0025634765625
-0.00439453125
-0.0040283203125
-0.000732421875
-0.0029296875
0.000732421875
-0.0010986328125
-0.0010986328125
0.003662109375
0.0003662109375
0.002197265625
0.0010986328125
0.0003662109375
0.0003662109375
-0.00146484375
0.000732421875
-0.002197265625
0.0025634765625
0.0010986328125
0.002197265625
-0.002197265625
0.00146484375
-0.000732421875
0.0003662109375
0.0032958984375
-0.0018310546875
-0.0010986328125
-0.0010986328125
-0.0029296875
0.0018310546875
0.000732421875
0.0018310546875
0.0010986328125
0.0003662109375
0.0010986328125
-0.0025634765625
0.0025634765625
0.0003662109375
-0.0010986328125
0.0069580078125
-0.005859375
0.0040283203125
-0.006256103515625
0.0018310546875
0.00146484375
-0.0018310546875
0.0003662109375
-0.0029296875
0.00146484375
0.00146484375
0.008819580078125
0.0091552734375
-0.005889892578125
0.0084228515625
-0.009552001953125
-0.00146484375
0.000396728515625
0.0
0.001495361328125
0.0029296875
-0.001861572265625
-0.0032958984375
0.003662109375
-0.0076904296875
0.010284423828125
0.0032958984375
0.000732421875
0.0091552734375
-0.008056640625
-0.0018310546875
-0.000732421875
-0.0069580078125
0.01025390625
0.0003662109375
0.00439453125
0.00146484375
-0.0010986328125
0.0003662109375
0.0025634765625
0.0
0.002197265625
0.0
-0.0018310546875
0.00146484375
-0.0010986328125
0.00439453125
0.0003662109375
0.0025634765625
0.0025634765625
0.0010986328125
0.002197265625
0.0040283203125
-0.0029296875
0.00439453125
-0.0040283203125
0.003662109375
-0.003662109375
0.0010986328125
0.0025634765625
0.0025634765625
-0.012115478515625
0.0047607421875
-0.0032958984375
0.005859375
0.008087158203125
0.0047607421875
-0.00146484375
0.0010986328125
0.0018310546875
0.0010986328125
-0.00146484375
0.00732421875
-0.008453369140625
0.0084228515625
-0.011749267578125
0.0032958984375
-0.00732421875
0.00439453125
-0.00732421875
0.0098876953125
-0.009521484375
0.005859375
-0.005859375
-0.00146484375
0.0029296875
-0.0010986328125
0.005859375
-0.002197265625
0.0010986328125
0.0003662109375
-0.002197265625
0.0040283203125
-0.00146484375
0.0010986328125
-0.00146484375
-0.0018310546875
0.0003662109375
-0.00146484375
0.00146484375
-0.0040283203125
0.005126953125
-0.0084228515625
0.0098876953125
-0.0069580078125
0.016876220703125
-0.0062255859375
0.024932861328125
-0.0003662109375
0.0135498046875
0.0047607421875
-0.0087890625
-0.0062255859375
-0.0054931640625
0.00732421875
-0.021636962890625
0.0146484375
-0.030792236328125
0.0
-0.0208740234375
-0.0029296875
-0.00732421875
-0.0084228515625
0.0113525390625
-0.0025634765625
-0.00146484375
-0.000732421875
-0.0076904296875
-0.0091552734375
0.000732421875
-0.0128173828125
0.0091552734375
-0.003662109375
0.00146484375
0.0010986328125
-0.0025634765625
-0.00732421875
-0.000732421875
-0.0069580078125
0.000732421875
-0.00439453125
0.008056640625
-0.0062255859375
0.009521484375
-0.0062255859375
0.01025390625
-0.0084228515625
0.0106201171875
-0.0150146484375
0.017242431640625
-0.0146484375
0.017242431640625
-0.0084228515625
0.0120849609375
-0.0047607421875
0.0091552734375
-0.0003662109375
0.00439453125
-0.003662109375
0.00439453125
-0.00732421875
0.0040283203125
-0.0018310546875
0.00732421875
0.000732421875
0.0054931640625
-0.0003662109375
0.0010986328125
0.0003662109375
0.0
0.005859375
-0.006591796875
0.000732421875
-0.0010986328125
0.000732421875
-0.005859375
0.0
-0.0098876953125
-0.005126953125
0.0084228515625
0.0010986328125
0.0032958984375
-0.0003662109375
-0.0032958984375
-0.0010986328125
0.0025634765625
0.0018310546875
-0.0010986328125
-0.0018310546875
0.000732421875
-0.0029296875
0.003662109375
0.0032958984375
-0.0047607421875
0.0032958984375
-0.0054931640625
-0.000732421875
-0.002197265625
-0.00146484375
-0.0018310546875
0.0003662109375
0.0029296875
-0.000732421875
0.0003662109375
-0.0025634765625
0.0
0.0010986328125
0.00146484375
0.0025634765625
0.0
0.0010986328125
-0.0032958984375
0.0
-0.0040283203125
-0.00146484375
0.00146484375
-0.0003662109375
0.0032958984375
0.000732421875
-0.0003662109375
0.002197265625
-0.0029296875
0.0018310546875
0.0003662109375
0.0003662109375
0.0010986328125
0.0018310546875
0.00146484375
0.0018310546875
0.0040283203125
-0.0003662109375
0.006591796875
-0.00146484375
0.006591796875
0.0010986328125
0.002197265625
0.003662109375
0.0091552734375
0.0025634765625
0.0029296875
0.0003662109375
-0.002197265625
0.0003662109375
0.00439453125
0.002197265625
-0.0010986328125
0.0010986328125
-0.000732421875
-0.00146484375
-0.00146484375
0.0
-0.0029296875
0.0047607421875
-0.00439453125
0.0010986328125
-0.0032958984375
-0.00439453125
0.005859375
-0.0047607421875
0.006591796875
-0.0025634765625
0.0032958984375
0.00439453125
0.002197265625
0.003662109375
0.0
0.0
-0.002197265625
0.0010986328125
0.002197265625
0.0032958984375
0.0047607421875
0.0018310546875
-0.00439453125
0.0018310546875
-0.0029296875
0.0018310546875
-0.000732421875
0.002197265625
-0.00146484375
0.0029296875
-0.000732421875
0.0018310546875
-0.0025634765625
0.0018310546875
-0.0025634765625
0.0029296875
-0.0018310546875
0.00439453125
-0.0032958984375
0.0010986328125
-0.0010986328125
0.003662109375
-0.012451171875
0.0032958984375
-0.0018310546875
0.002197265625
0.0128173828125
0.0040283203125
0.005126953125
-0.0018310546875
0.005126953125
-0.0010986328125
0.000732421875
0.0032958984375
0.0010986328125
-0.0003662109375
0.0087890625
0.002197265625
0.012451171875
0.0025634765625
0.0054931640625
0.0054931640625
-0.0128173828125
0.0084228515625
-0.01611328125
-0.0029296875
-0.0150146484375
-0.0084228515625
-0.00732421875
-0.003662109375
0.000732421875
-0.000732421875
-0.012451171875
0.0010986328125
-0.0142822265625
-0.0003662109375
-0.0047607421875
-0.0135498046875
0.010986328125
0.00146484375
-0.0076904296875
0.0150146484375
-0.02197265625
-0.0018310546875
0.0040283203125
-0.005126953125
0.0142822265625
-0.0003662109375
0.0098876953125
0.00439453125
0.0025634765625
0.005126953125
-0.0150146484375
0.0054931640625
-0.030426025390625
-0.00146484375
-0.017608642578125
-0.01904296875
0.0032958984375
-0.0230712890625
0.0106201171875
-0.024169921875
0.0040283203125
-0.0322265625
0.013946533203125
-0.0362548828125
0.030792236328125
-0.0267333984375
0.018310546875
0.0029296875
-0.005859375
0.0325927734375
-0.041046142578125
0.013916015625
-0.025299072265625
-0.00732421875
-0.0084228515625
0.005859375
-0.0157470703125
0.002197265625
0.003662109375
-0.009521484375
0.016845703125
0.02197265625
-0.005859375
0.119781494140625
-0.094482421875
0.119049072265625
-0.0985107421875
0.027099609375
-0.01318359375
-0.0098876953125
0.0238037109375
-0.0142822265625
0.024169921875
-0.0120849609375
0.02783203125
-0.030426025390625
0.046142578125
-0.039215087890625
0.0501708984375
-0.006591796875
0.005859375
0.017578125
-0.022705078125
0.00439453125
0.0010986328125
-0.00732421875
0.01171875
-0.008056640625
0.012451171875
-0.0029296875
0.008056640625
-0.0216064453125
0.028961181640625
-0.0498046875
0.060821533203125
-0.043212890625
0.0465087890625
-0.021240234375
0.037353515625
-0.01171875
0.0406494140625
-0.016845703125
0.0311279296875
-0.022705078125
0.029296875
-0.016845703125
0.018310546875
-0.00732421875
0.0054931640625
-0.006591796875
0.0
0.00146484375
-0.01171875
0.0018310546875
-0.0087890625
-0.0069580078125
0.0054931640625
-0.009521484375
0.0076904296875
-0.0120849609375
0.0032958984375
-0.01025390625
0.000732421875
-0.00732421875
0.0032958984375
-0.0062255859375
0.0010986328125
-0.0076904296875
0.002197265625
-0.013916015625
0.0194091796875
-0.0150146484375
0.02490234375
-0.008056640625
0.0106201171875
-0.003662109375
0.0018310546875
-0.0047607421875
0.0
-0.005859375
0.000732421875
-0.000732421875
-0.00146484375
-0.002197265625
-0.00146484375
-0.003662109375
-0.002197265625
-0.000732421875
-0.002197265625
-0.00146484375
0.0010986328125
-0.003662109375
0.0025634765625
-0.008056640625
0.0018310546875
-0.0003662109375
0.0003662109375
0.005859375
-0.003662109375
-0.0003662109375
-0.0029296875
-0.00732421875
0.00732421875
-0.006591796875
0.006591796875
0.0047607421875
-0.0084228515625
0.005126953125
-0.0087890625
-0.0025634765625
-0.0025634765625
-0.0032958984375
-0.0040283203125
-0.0029296875
-0.0003662109375
-0.00439453125
0.0
-0.003662109375
-0.0003662109375
-0.0040283203125
-0.0003662109375
-0.0047607421875
0.003662109375
0.0
0.0003662109375
0.0029296875
-0.003662109375
0.000732421875
-0.0010986328125
-0.0032958984375
-0.000732421875
-0.006591796875
0.003662109375
-0.005859375
0.005126953125
-0.0054931640625
0.0025634765625
-0.0018310546875
-0.0018310546875
0.0018310546875
-0.0029296875
0.000732421875
-0.0003662109375
0.0025634765625
-0.002197265625
0.00439453125
-0.005859375
0.005859375
-0.005859375
0.012451171875
-0.013916015625
0.0084228515625
-0.010986328125
0.0047607421875
-0.0010986328125
0.00146484375
-0.0054931640625
-0.0025634765625
-0.002197265625
0.0010986328125
0.003662109375
-0.0032958984375
0.0076904296875
-0.0047607421875
0.00732421875
0.0084228515625
-0.0120849609375
0.0076904296875
-0.01171875
-0.0062255859375
0.0032958984375
0.0003662109375
-0.0054931640625
0.0029296875
-0.006591796875
-0.00146484375
0.0
-0.0029296875
-0.000732421875
-0.0032958984375
-0.0018310546875
0.000732421875
-0.0025634765625
0.0032958984375
-0.000732421875
0.002197265625
0.0025634765625
-0.0054931640625
0.0047607421875
-0.002197265625
0.0047607421875
0.00439453125
0.0032958984375
0.0003662109375
0.002197265625
-0.0010986328125
-0.0003662109375
0.005126953125
-0.0032958984375
0.0025634765625
0.0
-0.002197265625
0.00146484375
0.002197265625
0.0
0.0003662109375
0.0
0.00146484375
-0.0018310546875
0.0018310546875
-0.0029296875
0.0018310546875
0.0018310546875
0.0025634765625
-0.0003662109375
0.0010986328125
-0.0029296875
0.002197265625
0.0003662109375
-0.0010986328125
-0.000732421875
-0.0003662109375
-0.000732421875
0.00146484375
-0.000732421875
0.002197265625
0.0003662109375
0.00439453125
-0.0003662109375
0.002197265625
-0.0029296875
-0.0018310546875
-0.0025634765625
-0.0003662109375
0.0018310546875
0.0040283203125
0.0018310546875
0.0029296875
-0.000732421875
0.008056640625
-0.0084228515625
0.01171875
-0.013916015625
0.0047607421875
-0.005126953125
-0.0003662109375
0.0025634765625
-0.00146484375
0.00146484375
-0.00146484375
0.0025634765625
0.0
0.0062255859375
0.002197265625
0.005859375
0.000732421875
0.0025634765625
-0.0003662109375
0.0
0.0018310546875
-0.0025634765625
-0.0054931640625
0.005126953125
-0.005859375
0.0113525390625
0.00146484375
0.00439453125
-0.00146484375
-0.0029296875
0.0032958984375
0.00146484375
0.005126953125
-0.00146484375
-0.000732421875
-0.0062255859375
-0.0003662109375
0.00146484375
0.00146484375
-0.00146484375
0.0025634765625
-0.0010986328125
0.000732421875
0.00146484375
-0.000732421875
-0.0029296875
-0.003662109375
-0.0047607421875
0.008056640625
-0.0135498046875
0.0135498046875
-0.0135498046875
0.000732421875
-0.0047607421875
-0.0010986328125
-0.0010986328125
-0.0018310546875
0.0018310546875
-0.00439453125
0.00146484375
-0.0032958984375
0.0069580078125
-0.0047607421875
0.0069580078125
-0.0062255859375
0.0010986328125
-0.0003662109375
0.000732421875
0.0040283203125
-0.002197265625
0.0128173828125
-0.0150146484375
0.0128173828125
-0.01318359375
0.0029296875
-0.0025634765625
-0.0010986328125
0.00146484375
-0.0010986328125
0.0029296875
-0.0029296875
0.0047607421875
-0.0025634765625
0.0084228515625
0.003662109375
0.0010986328125
0.0032958984375
-0.0157470703125
0.000732421875
-0.00146484375
0.0032958984375
0.0084228515625
0.008056640625
-0.0084228515625
0.015380859375
-0.018310546875
0.0120849609375
-0.015380859375
0.0018310546875
0.000732421875
0.003662109375
0.0076904296875
0.0032958984375
0.0025634765625
-0.000732421875
-0.00439453125
0.0032958984375
-0.00439453125
0.0054931640625
-0.002197265625
0.0032958984375
0.0003662109375
0.000732421875
-0.0025634765625
0.000732421875
-0.005859375
0.002197265625
0.0003662109375
0.0018310546875
0.002197265625
0.002197265625
-0.0029296875
0.002197265625
-0.0062255859375
0.00146484375
-0.0047607421875
0.000732421875
-0.0003662109375
-0.0029296875
0.0047607421875
0.0
0.0054931640625
-0.000732421875
0.005859375
-0.0069580078125
0.0091552734375
-0.00439453125
0.0084228515625
-0.0018310546875
0.006591796875
-0.003662109375
0.0062255859375
-0.0098876953125
0.005126953125
-0.01025390625
0.0128173828125
-0.0062255859375
0.0062255859375
-0.002197265625
-0.0062255859375
-0.0029296875
0.0
-0.0032958984375
-0.000732421875
-0.0010986328125
-0.000732421875
-0.006591796875
0.002197265625
-0.0076904296875
0.0
-0.0003662109375
-0.00146484375
-0.002197265625
0.0
-0.0047607421875
0.002197265625
-0.0025634765625
0.0032958984375
-0.00439453125
0.0
-0.0054931640625
-0.000732421875
-0.0047607421875
0.0003662109375
-0.00146484375
0.0003662109375
0.000732421875
-0.0018310546875
-0.0018310546875
0.000732421875
-0.0025634765625
0.00146484375
-0.000732421875
-0.0025634765625
0.0003662109375
-0.000732421875
-0.00146484375
0.0010986328125
0.0
-0.00146484375
0.0029296875
-0.003662109375
0.0018310546875
-0.002197265625
-0.0003662109375
-0.0018310546875
-0.0018310546875
0.0010986328125
-0.0003662109375
0.00146484375
-0.00146484375
-0.005126953125
0.0003662109375
0.000732421875
0.0018310546875
0.0025634765625
0.0003662109375
-0.0029296875
0.0025634765625
0.0010986328125
0.0010986328125
0.000732421875
-0.000732421875
-0.000732421875
0.0003662109375
-0.0003662109375
0.0003662109375
0.0003662109375
-0.0018310546875
-0.0003662109375
0.000732421875
-0.0032958984375
-0.0003662109375
-0.002197265625
-0.003662109375
0.00146484375
0.0
0.0025634765625
0.003662109375
0.0010986328125
0.002197265625
0.000732421875
0.0
0.00146484375
0.0025634765625
0.0018310546875
0.0018310546875
0.000732421875
0.0032958984375
-0.0018310546875
0.0029296875
-0.000732421875
0.000732421875
0.000732421875
0.000732421875
0.0
0.000732421875
0.0
0.002197265625
0.0
0.0010986328125
-0.0010986328125
0.0
0.0
0.0
0.0010986328125
-0.000732421875
-0.0010986328125
0.00146484375
-0.006591796875
0.0018310546875
-0.003662109375
0.000732421875
0.0032958984375
-0.000732421875
0.0018310546875
-0.0010986328125
-0.00146484375
0.0029296875
0.00146484375
0.0003662109375
0.000732421875
0.0010986328125
-0.00146484375
0.0032958984375
-0.0003662109375
-0.0010986328125
-0.000732421875
0.008056640625
-0.0091552734375
0.0113525390625
-0.010986328125
-0.0003662109375
0.0003662109375
-0.005859375
0.0040283203125
-0.0018310546875
-0.0003662109375
0.0018310546875
-0.00146484375
-0.0003662109375
0.0010986328125
-0.0018310546875
0.0003662109375
-0.00439453125
0.0032958984375
-0.003662109375
0.00439453125
-0.00146484375
0.003662109375
-0.000732421875
0.000732421875
0.00439453125
-0.000732421875
0.0018310546875
0.0010986328125
-0.0018310546875
0.00146484375
0.0025634765625
-0.000732421875
0.0069580078125
-0.0069580078125
0.00732421875
-0.012451171875
0.0010986328125
-0.0146484375
-0.0029296875
0.01025390625
0.0
0.008056640625
0.0076904296875
-0.015380859375
0.005859375
-0.006591796875
0.0003662109375
-0.0010986328125
0.0029296875
-0.0010986328125
-0.000732421875
0.0025634765625
-0.002197265625
0.0054931640625
0.0003662109375
0.0018310546875
0.0010986328125
0.0010986328125
0.00439453125
0.0032958984375
0.0025634765625
0.0025634765625
0.0010986328125
-0.0003662109375
0.00439453125
-0.0025634765625
0.005859375
-0.0032958984375
0.005126953125
-0.00439453125
0.0018310546875
-0.0003662109375
0.003662109375
-0.00146484375
0.0047607421875
-0.0010986328125
0.0018310546875
0.0040283203125
0.00146484375
0.003662109375
0.0047607421875
-0.00146484375
0.0040283203125
-0.0054931640625
0.0025634765625
-0.0062255859375
0.0054931640625
-0.0029296875
0.0029296875
0.0003662109375
0.0040283203125
-0.008056640625
0.005126953125
-0.0150146484375
0.0040283203125
0.0
0.0040283203125
-0.000732421875
0.006591796875
-0.0150146484375
0.010986328125
-0.0098876953125
0.005859375
-0.0025634765625
-0.0047607421875
0.00439453125
-0.0062255859375
0.0054931640625
-0.0029296875
0.002197265625
-0.0025634765625
0.000732421875
-0.0018310546875
0.0029296875
-0.005126953125
0.0106201171875
-0.0098876953125
0.0157470703125
-0.0087890625
0.0146484375
-0.005859375
0.01171875
-0.0054931640625
0.0098876953125
-0.00732421875
0.01025390625
-0.006591796875
0.0098876953125
-0.005859375
0.0087890625
-0.0062255859375
0.005859375
-0.0054931640625
0.0025634765625
-0.005126953125
0.003662109375
-0.005126953125
0.003662109375
-0.005859375
0.0010986328125
-0.0029296875
0.0018310546875
-0.0018310546875
0.0018310546875
-0.00732421875
0.0018310546875
-0.0076904296875
0.002197265625
-0.0054931640625
-0.000732421875
-0.0069580078125
-0.00732421875
-0.000732421875
-0.000732421875
0.0040283203125
0.00146484375
-0.0029296875
-0.0003662109375
-0.00439453125
0.00439453125
-0.002197265625
0.002197265625
-0.0003662109375
0.0
0.0
-0.0032958984375
-0.0018310546875
-0.0003662109375
-0.002197265625
0.00439453125
0.0
0.0
0.0010986328125
-0.0010986328125
-0.002197265625
0.002197265625
-0.00146484375
0.00146484375
0.0003662109375
-0.0003662109375
0.0003662109375
-0.0003662109375
0.00146484375
0.0003662109375
0.0
-0.000732421875
-0.0003662109375
-0.00146484375
0.0010986328125
-0.00146484375
0.000732421875
0.0003662109375
-0.0018310546875
0.0003662109375
0.0
0.000732421875
0.0025634765625
-0.0010986328125
-0.000732421875
-0.0047607421875
0.0003662109375
-0.0003662109375
0.002197265625
0.005126953125
-0.0025634765625
0.0
-0.0018310546875
-0.0029296875
-0.0003662109375
-0.0091552734375
-0.0010986328125
-0.0047607421875
0.00146484375
0.003662109375
0.002197265625
0.0
-0.0010986328125
0.0029296875
0.0
-0.0010986328125
0.0010986328125
-0.0018310546875
-0.000732421875
-0.0018310546875
0.000732421875
-0.003662109375
0.000732421875
0.0
-0.000732421875
0.0003662109375
-0.0018310546875
0.00146484375
0.0
0.0018310546875
-0.000732421875
0.0
0.0
0.0
-0.0003662109375
0.0
0.0
0.0
-0.00146484375
0.00146484375
-0.0010986328125
0.0
0.0032958984375
-0.002197265625
0.0010986328125
-0.0010986328125
-0.000732421875
-0.000732421875
-0.0003662109375
0.0
-0.000732421875
0.000732421875
0.0
0.0010986328125
0.00439453125
-0.0018310546875
0.002197265625
-0.00146484375
0.0
-0.000732421875
-0.0010986328125
-0.0010986328125
-0.0029296875
-0.0076904296875
0.003662109375
-0.005126953125
0.0047607421875
0.0029296875
0.0010986328125
0.0025634765625
0.0
0.002197265625
-0.0003662109375
-0.0003662109375
0.0003662109375
0.0003662109375
-0.00146484375
-0.003662109375
0.0010986328125
-0.0062255859375
0.0047607421875
-0.0054931640625
0.003662109375
-0.00439453125
-0.0018310546875
0.00146484375
0.0
-0.00146484375
0.005859375
-0.0032958984375
0.000732421875
0.002197265625
-0.002197265625
0.0
-0.0003662109375
-0.0010986328125
0.00146484375
-0.002197265625
0.0029296875
-0.005126953125
0.00146484375
-0.0025634765625
0.0032958984375
0.0010986328125
0.0018310546875
0.000732421875
0.008056640625
-0.010986328125
0.0091552734375
-0.0113525390625
0.0010986328125
-0.00439453125
0.002197265625
-0.0025634765625
-0.000732421875
0.0029296875
0.00146484375
0.0025634765625
0.0040283203125
-0.013916015625
0.0029296875
-0.0032958984375
0.0025634765625
0.0084228515625
0.0054931640625
-0.0029296875
0.0054931640625
-0.0010986328125
0.002197265625
-0.002197265625
0.0032958984375
-0.00439453125
0.0047607421875
-0.005859375
0.0025634765625
-0.002197265625
0.000732421875
0.000732421875
0.002197265625
0.002197265625
0.0025634765625
0.0018310546875
0.002197265625
-0.0003662109375
0.003662109375
-0.0025634765625
0.0029296875
-0.0032958984375
0.0025634765625
-0.002197265625
0.0047607421875
-0.002197265625
0.0062255859375
-0.0069580078125
0.0076904296875
-0.0040283203125
0.0062255859375
-0.0018310546875
0.000732421875
-0.003662109375
-0.000732421875
-0.0010986328125
-0.0003662109375
0.0003662109375
0.0
0.0003662109375
-0.0032958984375
0.0029296875
-0.0054931640625
0.005126953125
-0.002197265625
-0.0029296875
-0.0018310546875
-0.0047607421875
-0.0003662109375
-0.0003662109375
-0.0040283203125
0.0003662109375
-0.0069580078125
0.0164794921875
-0.0091552734375
0.01611328125
-0.0069580078125
0.00439453125
-0.00439453125
0.0087890625
-0.0084228515625
0.0087890625
-0.0084228515625
0.0098876953125
-0.009521484375
0.010986328125
-0.0091552734375
0.006591796875
-0.0054931640625
0.0025634765625
-0.0054931640625
0.0032958984375
0.0040283203125
-0.0091552734375
0.01904296875
-0.0252685546875
0.009521484375
-0.0157470703125
-0.0069580078125
0.0010986328125
-0.0087890625
0.00439453125
-0.0087890625
0.00439453125
-0.0087890625
0.00732421875
-0.00732421875
0.0069580078125
-0.0076904296875
0.0018310546875
-0.009521484375
0.003662109375
-0.0186767578125
0.0205078125
-0.021240234375
0.0245361328125
-0.0091552734375
0.010986328125
-0.0032958984375
0.0029296875
-0.0029296875
0.002197265625
-0.0010986328125
0.0025634765625
-0.0018310546875
0.002197265625
-0.0032958984375
0.000732421875
-0.003662109375
-0.000732421875
-0.00439453125
-0.0087890625
0.0032958984375
-0.0054931640625
0.0032958984375
0.003662109375
-0.0047607421875
0.000732421875
-0.0018310546875
-0.0029296875
0.0010986328125
-0.0040283203125
0.0003662109375
0.0003662109375
0.0032958984375
0.000732421875
-0.00146484375
-0.0003662109375
-0.005126953125
-0.003662109375
0.00146484375
-0.0047607421875
0.0
0.0003662109375
-0.000732421875
0.0003662109375
0.0025634765625
-0.0003662109375
0.0
-0.0003662109375
0.0
-0.0003662109375
0.0025634765625
-0.0010986328125
0.000732421875
-0.0010986328125
-0.0010986328125
0.0018310546875
0.0003662109375
-0.002197265625
0.0032958984375
-0.0029296875
0.0003662109375
-0.0010986328125
0.000732421875
-0.0040283203125
0.0032958984375
-0.0010986328125
0.0025634765625
-0.0010986328125
0.0029296875
0.0
0.0010986328125
0.0029296875
-0.000732421875
0.002197265625
0.0018310546875
0.000732421875
0.0032958984375
-0.0010986328125
0.0
-0.0069580078125
0.0047607421875
-0.0047607421875
0.00732421875
0.0054931640625
0.0032958984375
0.0040283203125
0.003662109375
0.0029296875
0.002197265625
-0.0018310546875
0.0
-0.0032958984375
0.0010986328125
0.0010986328125
0.0029296875
-0.0003662109375
0.0018310546875
0.0
0.000732421875
-0.0003662109375
0.0025634765625
0.0
0.002197265625
0.00146484375
0.0
-0.0003662109375
0.00146484375
0.000732421875
0.00146484375
0.0003662109375
-0.0003662109375
0.0
0.0003662109375
-0.002197265625
0.000732421875
-0.0032958984375
0.0025634765625
-0.000732421875
0.0029296875
0.000732421875
0.0
-0.0018310546875
0.0025634765625
-0.005859375
0.00732421875
-0.0032958984375
0.00439453125
-0.000732421875
0.0010986328125
-0.0032958984375
0.003662109375
-0.003662109375
0.0040283203125
-0.0018310546875
0.0029296875
-0.002197265625
0.002197265625
-0.0106201171875
0.002197265625
0.0010986328125
0.0047607421875
0.0029296875
0.00439453125
-0.0087890625
0.0047607421875
-0.003662109375
0.0047607421875
-0.0029296875
0.0047607421875
-0.00146484375
0.0040283203125
-0.0032958984375
0.0032958984375
-0.0062255859375
0.0062255859375
-0.006591796875
0.005859375
-0.0025634765625
0.005859375
-0.00146484375
0.002197265625
-0.0003662109375
0.0010986328125
0.0025634765625
0.0040283203125
-0.0003662109375
0.0029296875
-0.0018310546875
0.002197265625
0.0
0.0
0.00146484375
0.002197265625
-0.0018310546875
0.005126953125
-0.0032958984375
0.003662109375
-0.0003662109375
0.003662109375
-0.000732421875
0.0032958984375
-0.003662109375
0.0040283203125
-0.0032958984375
0.003662109375
-0.0029296875
0.003662109375
-0.0029296875
0.002197265625
0.0010986328125
0.0003662109375
0.0
0.0029296875
-0.0025634765625
0.0018310546875
-0.0032958984375
0.0029296875
0.0018310546875
0.0047607421875
-0.0054931640625
0.0018310546875
-0.0087890625
0.0029296875
-0.002197265625
0.0025634765625
-0.0018310546875
0.0
0.0032958984375
-0.0010986328125
0.002197265625
0.0
0.0018310546875
0.0010986328125
0.003662109375
-0.002197265625
0.006591796875
-0.0054931640625
0.006591796875
-0.005126953125
0.005126953125
-0.0040283203125
0.0076904296875
-0.005126953125
0.00732421875
-0.00439453125
0.006591796875
-0.0047607421875
0.0069580078125
-0.008056640625
0.005859375
-0.0062255859375
0.005859375
-0.003662109375
0.0032958984375
-0.003662109375
0.0018310546875
-0.003662109375
0.003662109375
-0.00439453125
0.00146484375
-0.005859375
0.0018310546875
-0.003662109375
0.0010986328125
-0.002197265625
-0.000732421875
-0.0054931640625
-0.0003662109375
-0.003662109375
-0.0010986328125
-0.00146484375
-0.000732421875
-0.0010986328125
-0.00146484375
-0.022705078125
0.0640869140625
-0.022705078125
0.0655517578125
