-0.169586181640625
0.61053466796875
0.749725341796875
-0.749725341796875
0.083892822265625
-0.059326171875
0.0
0.149810791015625
0.70501708984375
-0.56842041015625
-0.111724853515625
0.52703857421875
0.130401611328125
-0.49151611328125
-0.66912841796875
0.55926513671875
-0.0003662109375
-0.240997314453125
-0.45269775390625
0.19921875
0.0
0.0062255859375
0.653045654296875
-0.420440673828125
-0.039581298828125
0.302886962890625
0.58013916015625
-1.0
0.039215087890625
-0.309112548828125
0.0
0.0
0.0
0.0
0.0
0.0
0.0003662109375
0.0
0.0
0.0
-0.0003662109375
0.008056640625
-0.0003662109375
0.064849853515625
0.000732421875
0.035919189453125
-0.036285400390625
0.288238525390625
-0.0003662109375
-0.043975830078125
-0.0816650390625
0.09375
0.0
0.000732421875
0.0384521484375
-0.08349609375
-0.050201416015625
0.271759033203125
0.0413818359375
-0.120880126953125
-0.12451171875
0.124542236328125
0.0010986328125
-0.097412109375
-1.0
0.942718505859375
0.037384033203125
-0.145050048828125
0.0531005859375
-0.0263671875
-0.177276611328125
0.287506103515625
0.675018310546875
-0.59552001953125
-0.340240478515625
0.40216064453125
0.2156982421875
-0.193389892578125
-0.53033447265625
0.52484130859375
0.210601806640625
-0.319366455078125
-0.329620361328125
0.216064453125
0.002197265625
-0.05712890625
0.1614990234375
-0.1343994140625
-0.75042724609375
0.843109130859375
-0.0604248046875
-0.0435791015625
-0.617156982421875
0.48455810546875
0.261871337890625
-0.43145751953125
0.013916015625
0.0230712890625
0.68670654296875
-0.56329345703125
-0.005126953125
-0.0003662109375
-0.444244384765625
0.48345947265625
-0.0087890625
-0.006591796875
-0.727020263671875
0.58819580078125
0.143951416015625
-0.45233154296875
0.0
0.0509033203125
0.49078369140625
-0.44720458984375
0.276153564453125
-0.438385009765625
0.408721923828125
-0.401763916015625
0.227813720703125
-0.238800048828125
-0.264068603515625
0.271026611328125
0.184600830078125
-0.167755126953125
-0.122314453125
0.114990234375
0.285308837890625
-0.274688720703125
0.046142578125
-0.0457763671875
0.52520751953125
-0.260772705078125
0.53326416015625
-0.52374267578125
0.0
0.0
-0.101104736328125
0.089019775390625
-1.0
0.746795654296875
-0.59222412109375
0.55816650390625
-0.48052978515625
0.48565673828125
0.0596923828125
-0.083526611328125
0.0029296875
0.234405517578125
0.174713134765625
-0.1527099609375
0.01025390625
-0.178375244140625
-0.777557373046875
0.866912841796875
0.053497314453125
-0.240264892578125
0.061920166015625
-0.191925048828125
0.193359375
-0.184967041015625
-0.061920166015625
0.106231689453125
0.46771240234375
-0.453033447265625
0.105499267578125
-0.171783447265625
-0.0263671875
0.0498046875
0.361846923828125
-0.353424072265625
-0.156402587890625
0.154205322265625
0.0882568359375
-0.083526611328125
-0.109130859375
0.0999755859375
0.215728759765625
-0.21533203125
-0.08642578125
0.082763671875
0.327789306640625
-0.319366455078125
0.003662109375
-0.032958984375
-0.280181884765625
0.269561767578125
0.23291015625
-0.228546142578125
-0.220489501953125
0.2178955078125
0.210968017578125
-0.1981201171875
-0.265869140625
0.261871337890625
0.265899658203125
-0.272491455078125
-0.103302001953125
0.126739501953125
-0.0692138671875
0.0999755859375
0.260406494140625
-0.292633056640625
-0.275054931640625
0.267364501953125
0.234039306640625
-0.224517822265625
-0.143585205078125
0.1387939453125
0.242095947265625
-0.224517822265625
-0.22265625
0.231842041015625
0.1666259765625
-0.1490478515625
0.10693359375
-0.1182861328125
-0.1856689453125
0.183837890625
0.254180908203125
-0.235504150390625
-0.196685791015625
0.201812744140625
0.214263916015625
-0.188262939453125
-0.125244140625
0.14501953125
0.2369384765625
-0.22412109375
-0.056427001953125
0.046173095703125
-0.109130859375
0.116455078125
0.186798095703125
-0.174346923828125
-0.169952392578125
0.178375244140625
0.106201171875
-0.0860595703125
-0.09228515625
0.087158203125
0.140289306640625
-0.152374267578125
-0.1318359375
0.1812744140625
0.0772705078125
-0.0479736328125
0.08935546875
-0.123046875
-0.094482421875
0.1036376953125
0.129638671875
-0.1190185546875
-0.090087890625
0.087554931640625
0.078765869140625
-0.076568603515625
-0.044708251953125
0.0523681640625
0.0882568359375
-0.0853271484375
-0.029296875
0.0142822265625
-0.0406494140625
0.0450439453125
0.082427978515625
-0.0673828125
-0.0457763671875
0.06591796875
0.0787353515625
-0.061920166015625
-0.0128173828125
0.014312744140625
0.0648193359375
-0.0626220703125
-0.0443115234375
0.0457763671875
0.0450439453125
-0.0347900390625
0.024169921875
-0.012451171875
-0.043212890625
0.050537109375
0.07470703125
-0.070343017578125
-0.046875
0.050537109375
0.0699462890625
-0.044677734375
-0.0318603515625
0.054962158203125
0.0838623046875
-0.0970458984375
-0.0340576171875
0.0194091796875
-0.00146484375
0.0084228515625
0.0732421875
-0.070709228515625
0.028594970703125
-0.016845703125
0.043212890625
-0.03515625
-0.161895751953125
0.14501953125
0.019775390625
-0.03515625
-0.047607421875
0.045440673828125
0.0487060546875
-0.025634765625
0.003662109375
0.01318359375
-0.0303955078125
0.03076171875
0.053466796875
-0.053497314453125
-0.0538330078125
0.0538330078125
0.047607421875
-0.035888671875
-0.0267333984375
0.0355224609375
0.046875
-0.04833984375
-0.046875
0.041046142578125
-0.0029296875
-0.000732421875
-0.0263671875
0.03076171875
-0.1201171875
0.128936767578125
0.0567626953125
-0.0560302734375
-0.005126953125
0.0040283203125
0.087158203125
-0.089385986328125
-0.0443115234375
0.050537109375
0.031494140625
0.006591796875
-0.01171875
0.0296630859375
0.013916015625
-0.0391845703125
0.095947265625
-0.110992431640625
-0.069580078125
0.07763671875
0.0289306640625
-0.02490234375
-0.0318603515625
0.032257080078125
0.0311279296875
-0.0303955078125
-0.073974609375
0.0703125
0.0194091796875
-0.0142822265625
-0.0146484375
0.0208740234375
-0.1025390625
0.109527587890625
0.0626220703125
-0.052734375
-0.0146484375
0.0194091796875
0.05859375
-0.054229736328125
-0.040283203125
0.0406494140625
0.02490234375
-0.0205078125
-0.008056640625
0.0106201171875
0.0465087890625
-0.0384521484375
0.0732421875
-0.06591796875
-0.0487060546875
0.052734375
0.06005859375
-0.054595947265625
-0.0472412109375
0.043975830078125
0.0615234375
-0.0611572265625
-0.0369873046875
0.041015625
0.057891845703125
-0.0531005859375
0.0201416015625
-0.0245361328125
-0.054962158203125
0.05126953125
0.08203125
-0.061187744140625
-0.0413818359375
0.08203125
0.057861328125
-0.06591796875
-0.0406494140625
0.010284423828125
0.083892822265625
-0.0787353515625
-0.024169921875
0.025634765625
-0.008056640625
0.0142822265625
0.05126953125
-0.050567626953125
-0.064483642578125
0.054931640625
0.0743408203125
-0.0867919921875
-0.0303955078125
0.021240234375
0.078033447265625
-0.066650390625
-0.087158203125
0.099273681640625
-0.006591796875
0.0128173828125
-0.09375
0.0933837890625
-0.35711669921875
0.360748291015625
-0.140655517578125
0.142822265625
-0.050537109375
0.0443115234375
0.0025634765625
-0.0062255859375
0.149810791015625
-0.14501953125
0.681610107421875
-0.57318115234375
-0.196685791015625
0.18310546875
-0.835052490234375
0.770599365234375
-0.759246826171875
0.802093505859375
-0.663665771484375
0.68304443359375
-0.0263671875
0.072906494140625
0.0003662109375
0.035919189453125
0.0
0.0076904296875
-0.0003662109375
0.0076904296875
0.141754150390625
-0.121612548828125
0.044708251953125
-0.063751220703125
0.1395263671875
-0.0985107421875
0.396270751953125
-0.287872314453125
0.263702392578125
-0.197418212890625
0.244659423828125
-0.221923828125
0.113555908203125
-0.0908203125
0.1849365234375
-0.146881103515625
0.043212890625
-0.00732421875
0.135162353515625
-0.1058349609375
0.223419189453125
-0.214996337890625
-0.003662109375
0.0029296875
0.1259765625
-0.140625
0.03955078125
-0.0487060546875
0.113525390625
-0.113189697265625
-0.01025390625
0.0076904296875
0.110260009765625
-0.1259765625
0.04833984375
-0.077667236328125
-0.0673828125
0.056396484375
0.052734375
-0.0648193359375
-0.072540283203125
0.0574951171875
0.0406494140625
-0.0531005859375
-0.064453125
0.0443115234375
0.046173095703125
-0.062255859375
-0.052734375
0.0428466796875
0.013916015625
-0.0234375
0.0706787109375
-0.1029052734375
-0.065582275390625
0.1025390625
0.0428466796875
-0.04248046875
-0.338043212890625
0.278350830078125
-0.258941650390625
0.256744384765625
-0.1885986328125
0.176544189453125
0.043975830078125
-0.0560302734375
0.01611328125
-0.023101806640625
-0.052032470703125
0.0545654296875
0.110595703125
-0.126708984375
-0.1080322265625
0.076171875
0.0194091796875
-0.03515625
-0.1219482421875
0.1234130859375
0.0355224609375
-0.0340576171875
-0.082794189453125
0.076202392578125
0.129669189453125
-0.138824462890625
0.38311767578125
-0.40765380859375
0.1292724609375
-0.1395263671875
0.245758056640625
-0.253814697265625
0.286041259765625
-0.310211181640625
-0.190826416015625
0.183135986328125
-0.364410400390625
0.364410400390625
0.278717041015625
-0.288970947265625
-0.0615234375
0.046142578125
-0.190460205078125
0.196685791015625
-0.008056640625
0.0098876953125
0.04833984375
-0.05859375
0.309844970703125
-0.336578369140625
0.088287353515625
-0.049468994140625
0.097412109375
-0.0831298828125
-0.130401611328125
0.085723876953125
0.0765380859375
-0.089019775390625
0.186431884765625
-0.199249267578125
-0.0611572265625
0.054595947265625
0.0955810546875
-0.0977783203125
-0.0311279296875
0.044677734375
0.02783203125
-0.033721923828125
-0.090087890625
0.082763671875
0.0560302734375
-0.03369140625
0.15966796875
-0.169586181640625
0.019073486328125
0.0
-0.00146484375
0.0025634765625
-0.018707275390625
0.0
0.098175048828125
-0.0281982421875
0.048736572265625
0.0
0.0076904296875
0.0
-0.0025634765625
0.0
-0.002197265625
0.0
-0.0062255859375
0.0
-0.008056640625
0.0
-0.029327392578125
0.0
-0.087554931640625
0.0
-0.420440673828125
0.34649658203125
-0.55157470703125
0.53399658203125
-0.0501708984375
0.037353515625
-0.175048828125
0.165191650390625
-0.262969970703125
0.268463134765625
-0.115386962890625
0.112060546875
-0.106201171875
0.111328125
0.069244384765625
-0.0706787109375
-0.098541259765625
0.065185546875
0.0596923828125
-0.0809326171875
-0.0325927734375
0.0318603515625
0.1065673828125
-0.107330322265625
0.0765380859375
-0.10107421875
-0.0955810546875
0.080963134765625
0.100372314453125
-0.10693359375
-0.03515625
0.015380859375
0.0831298828125
-0.101104736328125
-0.084625244140625
0.071044921875
0.099609375
-0.1083984375
-0.019775390625
0.0029296875
-0.0201416015625
0.002197265625
0.124542236328125
-0.162261962890625
-0.0926513671875
0.052001953125
0.06591796875
-0.091552734375
-0.0791015625
0.0556640625
0.0721435546875
-0.0853271484375
-0.075836181640625
0.090118408203125
0.100006103515625
-0.0465087890625
0.056793212890625
-0.076202392578125
-0.077667236328125
0.0380859375
0.146484375
-0.131103515625
-0.060791015625
0.0703125
0.095947265625
-0.0941162109375
-0.024169921875
0.0164794921875
0.138458251953125
-0.141021728515625
-0.05419921875
0.0428466796875
0.027099609375
-0.027099609375
0.15087890625
-0.141357421875
-0.0809326171875
0.101806640625
0.141021728515625
-0.111358642578125
-0.03515625
0.049102783203125
0.075439453125
-0.064453125
-0.083160400390625
0.093017578125
0.100341796875
-0.1025390625
0.01318359375
-0.0120849609375
-0.0640869140625
0.087890625
0.156036376953125
-0.142852783203125
-0.0765380859375
0.08642578125
0.0926513671875
-0.1043701171875
-0.0084228515625
0.0498046875
0.106964111328125
-0.060791015625
-0.0816650390625
0.063018798828125
0.03076171875
-0.0201416015625
0.07177734375
-0.069976806640625
-0.111724853515625
0.1146240234375
0.1226806640625
-0.10693359375
-0.0450439453125
0.0531005859375
0.074371337890625
-0.0772705078125
-0.0662841796875
0.0611572265625
0.0867919921875
-0.0787353515625
-0.0186767578125
0.028961181640625
-0.0596923828125
0.0750732421875
0.093017578125
-0.090118408203125
-0.104766845703125
0.1043701171875
0.090484619140625
-0.0721435546875
-0.0377197265625
0.0531005859375
0.0904541015625
-0.08056640625
-0.08203125
0.087921142578125
0.03515625
-0.0274658203125
0.090087890625
-0.087188720703125
-0.0838623046875
0.0992431640625
0.081695556640625
-0.0703125
-0.069610595703125
0.0633544921875
0.0794677734375
-0.0772705078125
-0.0457763671875
0.0802001953125
0.087158203125
-0.0626220703125
-0.0413818359375
0.015045166015625
-0.0281982421875
0.015380859375
0.122344970703125
-0.128570556640625
-0.09375
0.0908203125
0.0531005859375
-0.0516357421875
-0.0347900390625
0.0281982421875
0.097412109375
-0.1058349609375
-0.086456298828125
0.0714111328125
0.0421142578125
-0.036651611328125
0.0648193359375
-0.0626220703125
-0.0662841796875
0.074371337890625
0.089385986328125
-0.07470703125
-0.149078369140625
0.151611328125
-0.0391845703125
0.0391845703125
-0.06884765625
0.064453125
0.120849609375
-0.1190185546875
-0.038818359375
0.039215087890625
-0.03369140625
0.03515625
0.1007080078125
-0.101837158203125
-0.0802001953125
0.0867919921875
0.091949462890625
-0.068115234375
-0.067413330078125
0.073974609375
0.0362548828125
-0.06005859375
-0.082763671875
0.075469970703125
0.060791015625
-0.052734375
0.0303955078125
-0.033355712890625
-0.0721435546875
0.082763671875
0.110260009765625
-0.0992431640625
-0.0772705078125
0.075439453125
0.053466796875
-0.064453125
-0.065216064453125
0.05859375
0.0611572265625
-0.046142578125
-0.0648193359375
0.092681884765625
0.0062255859375
0.015380859375
0.09375
-0.098541259765625
-0.098876953125
0.09375
0.079498291015625
-0.0703125
-0.0567626953125
0.069580078125
0.0450439453125
-0.03515625
-0.098541259765625
0.105499267578125
0.030029296875
-0.02197265625
-0.003662109375
0.03662109375
-0.043212890625
0.12451171875
0.133331298828125
-0.137359619140625
-0.085693359375
0.03955078125
0.009521484375
0.0098876953125
0.14501953125
-0.1292724609375
0.271026611328125
-0.272491455078125
0.128204345703125
-0.165191650390625
-0.017578125
0.0
0.0018310546875
0.0
0.003662109375
0.0
0.0047607421875
0.0
-0.064849853515625
0.099639892578125
0.0010986328125
0.0120849609375
-0.0977783203125
0.113525390625
-0.012481689453125
-0.00439453125
-0.1014404296875
0.1014404296875
-0.0772705078125
0.125640869140625
0.1080322265625
-0.1025390625
0.081695556640625
-0.0703125
-0.340972900390625
0.323394775390625
-0.201446533203125
0.177978515625
0.473175048828125
-0.53546142578125
0.050537109375
-0.0498046875
0.020172119140625
0.0
-0.1029052734375
0.084228515625
-0.226715087890625
0.223419189453125
0.0391845703125
-0.05712890625
-0.03515625
0.0347900390625
0.0120849609375
-0.0010986328125
-0.101470947265625
0.111724853515625
0.0084228515625
-0.0062255859375
-0.135498046875
0.134033203125
-0.135894775390625
0.136260986328125
0.0194091796875
-0.0311279296875
-0.1468505859375
0.13916015625
0.024169921875
-0.0311279296875
-0.0684814453125
0.05712890625
0.029296875
-0.037353515625
-0.079132080078125
0.097076416015625
-0.018310546875
0.0362548828125
0.0069580078125
-0.03369140625
-0.065185546875
0.0604248046875
0.107696533203125
-0.094879150390625
-0.052734375
0.05419921875
0.059326171875
-0.056396484375
-0.02197265625
0.01904296875
0.0853271484375
-0.09375
-0.023468017578125
0.01318359375
-0.0186767578125
0.02197265625
0.102569580078125
-0.1007080078125
-0.0703125
0.0714111328125
0.0640869140625
-0.0560302734375
-0.0589599609375
0.0604248046875
0.056396484375
-0.0604248046875
-0.0479736328125
0.0439453125
0.0574951171875
-0.0487060546875
0.043212890625
-0.0421142578125
-0.076904296875
0.0787353515625
0.0809326171875
-0.0831298828125
-0.0706787109375
0.0626220703125
0.0538330078125
-0.047607421875
-0.0303955078125
0.065185546875
0.136260986328125
-0.103668212890625
0.12890625
-0.164794921875
0.1505126953125
-0.18310546875
0.229644775390625
-0.217559814453125
0.0450439453125
-0.0263671875
0.0135498046875
0.021240234375
0.0311279296875
-0.022705078125
0.132965087890625
-0.167022705078125
0.036285400390625
-0.050933837890625
0.0179443359375
0.0
0.0146484375
0.0
0.0
0.0
-0.0003662109375
0.0
0.0
0.0
0.0003662109375
0.0
-0.0029296875
0.0
-0.0010986328125
0.0
-0.0157470703125
0.0
0.0010986328125
0.0
-0.016143798828125
0.042877197265625
-0.016845703125
0.0047607421875
0.008453369140625
0.0234375
-0.027496337890625
0.102935791015625
0.0238037109375
-0.066314697265625
-0.0084228515625
0.00732421875
-0.0025634765625
0.0
0.044708251953125
-0.115020751953125
0.005126953125
0.0
0.008056640625
0.0
-0.00146484375
0.0
-0.0018310546875
0.0
-0.314239501953125
0.41864013671875
-0.32855224609375
0.42926025390625
0.0098876953125
-0.0069580078125
-0.19921875
0.211700439453125
-0.851898193359375
0.863250732421875
-0.46990966796875
0.470611572265625
0.2010498046875
-0.215728759765625
0.131134033203125
-0.1505126953125
-0.0640869140625
0.0501708984375
-0.170684814453125
0.169921875
-0.237335205078125
0.248687744140625
-0.46002197265625
0.36773681640625
-0.240631103515625
0.140289306640625
0.0
-0.0003662109375
0.0
0.0
0.0
0.0
0.0
0.0003662109375
0.305450439453125
-0.131866455078125
0.0
0.0
-0.305450439453125
0.132232666015625
0.117218017578125
0.0
0.40765380859375
-0.121612548828125
0.52593994140625
-0.36480712890625
0.50762939453125
-0.52703857421875
0.81524658203125
-0.884124755859375
0.58270263671875
-0.850067138671875
0.040679931640625
-0.249786376953125
-0.034454345703125
0.187530517578125
-0.089019775390625
0.289337158203125
-0.62115478515625
0.65301513671875
-0.69110107421875
0.654144287109375
-0.426300048828125
0.38421630859375
0.0179443359375
-0.046875
0.254180908203125
-0.276519775390625
-0.0823974609375
0.0556640625
-0.003662109375
-0.049072265625
-0.0281982421875
0.0263671875
-0.235870361328125
0.2427978515625
-0.149444580078125
0.117919921875
0.360748291015625
-0.364776611328125
0.376861572265625
-0.386749267578125
-0.1278076171875
0.122711181640625
-0.308380126953125
0.312774658203125
-0.37066650390625
0.383819580078125
-0.110595703125
0.14501953125
0.126739501953125
-0.0955810546875
-0.030029296875
0.038482666015625
-0.0853271484375
0.0977783203125
-0.213531494140625
0.21533203125
-0.038116455078125
0.046875
0.11572265625
-0.0662841796875
0.194854736328125
-0.153076171875
0.176544189453125
-0.181671142578125
-0.0087890625
-0.009552001953125
-0.197784423828125
0.239898681640625
-0.48236083984375
0.32855224609375
-0.266265869140625
0.084991455078125
0.0
-0.0003662109375
0.045074462890625
-0.0333251953125
0.133331298828125
-0.093414306640625
0.202880859375
-0.178375244140625
0.07470703125
-0.0615234375
0.148712158203125
0.057861328125
0.0457763671875
0.135894775390625
-0.054931640625
0.0054931640625
0.279815673828125
-0.35528564453125
0.189697265625
-0.262969970703125
0.044677734375
-0.0391845703125
-0.1285400390625
0.108428955078125
-0.1146240234375
0.0567626953125
-0.141021728515625
0.1021728515625
-0.46368408203125
0.32379150390625
-0.10400390625
0.1226806640625
0.124908447265625
0.0303955078125
0.0267333984375
0.068511962890625
-0.0721435546875
0.0029296875
0.323394775390625
-0.239166259765625
0.62042236328125
-0.38677978515625
-0.52740478515625
0.248687744140625
0.0552978515625
-0.084228515625
0.713836669921875
-0.48126220703125
0.0604248046875
-0.1336669921875
0.0267333984375
-0.1014404296875
0.229644775390625
-0.281646728515625
0.289703369140625
-0.33843994140625
0.330718994140625
-0.35308837890625
0.1021728515625
-0.262237548828125
0.146881103515625
-0.259307861328125
0.36663818359375
-0.314971923828125
0.0029296875
0.0
-0.00146484375
0.0
-0.009521484375
0.0018310546875
-0.42999267578125
0.48345947265625
-0.065216064453125
0.010986328125
0.42266845703125
-0.48345947265625
0.074737548828125
-0.0128173828125
0.0087890625
0.0
0.0
0.0
-0.0003662109375
0.0
0.0
0.0
-0.00146484375
0.0
-0.000732421875
0.0
-0.0223388671875
0.0
-0.0238037109375
0.0
0.00439453125
0.0
0.0164794921875
0.0
-0.041412353515625
0.0
-0.030426025390625
0.071075439453125
-0.0391845703125
0.071441650390625
0.025665283203125
-0.038482666015625
0.094146728515625
0.0523681640625
-0.00439453125
0.242828369140625
-1.0
0.349395751953125
-1.0
0.868011474609375
0.0
1.0
0.0
0.35528564453125
0.0
0.0
0.0
-0.0003662109375
0.0
-0.047637939453125
0.0
-0.312042236328125
0.0
-0.2373046875
0.0
-0.078399658203125
0.194488525390625
-0.264068603515625
0.33587646484375
-0.1680908203125
0.198883056640625
-0.0406494140625
0.0845947265625
0.097412109375
1.0
-0.092681884765625
1.0
-1.0
0.058990478515625
-0.816009521484375
-0.0003662109375
0.0
0.0
0.0
0.0
0.0
0.0003662109375
0.0333251953125
0.0
0.178741455078125
-0.0054931640625
-0.031494140625
-0.0010986328125
-0.178741455078125
0.0054931640625
-0.0018310546875
0.00146484375
0.0
0.0
0.0
0.0
0.0
-1.0
0.0
-1.0
0.0
0.010986328125
0.0
-0.0853271484375
0.0
-0.235870361328125
1.0
-0.117584228515625
1.0
0.0
-0.981903076171875
0.0
-1.0
0.091583251953125
0.03076171875
0.9713134765625
-0.49261474609375
0.998382568359375
-0.47283935546875
0.226348876953125
0.0
0.245025634765625
-0.0010986328125
0.269561767578125
0.0
0.163726806640625
0.0
0.0318603515625
0.0
-0.0003662109375
0.0
-0.0003662109375
0.0
0.000732421875
0.0
0.0003662109375
0.0
0.0
0.0
-0.250518798828125
0.42889404296875
-0.724090576171875
0.879730224609375
-0.44537353515625
0.387481689453125
-0.48748779296875
0.41680908203125
0.184234619140625
-0.189697265625
0.666961669921875
-0.64532470703125
-0.217559814453125
0.223388671875
-0.270294189453125
0.314605712890625
-0.263336181640625
0.240997314453125
-0.132598876953125
-0.0084228515625
0.04248046875
-0.199615478515625
0.077301025390625
-0.197784423828125
-0.076904296875
-0.0113525390625
-0.134796142578125
0.060791015625
-0.0465087890625
-0.03515625
-0.021240234375
-0.046875
0.0765380859375
-0.1087646484375
-0.0076904296875
0.0003662109375
0.0743408203125
-0.0699462890625
0.02197265625
0.017578125
-0.002197265625
-0.0479736328125
-0.201812744140625
0.097412109375
-0.135498046875
0.1065673828125
0.44573974609375
-0.476837158203125
0.429962158203125
-0.46075439453125
0.223419189453125
-0.265533447265625
0.045440673828125
-0.0926513671875
0.1827392578125
-0.146514892578125
-0.043975830078125
0.08935546875
-0.56182861328125
0.640594482421875
0.049835205078125
0.085723876953125
-0.1739501953125
0.255279541015625
-0.36480712890625
0.413848876953125
-0.107696533203125
0.141357421875
-0.1475830078125
0.170318603515625
-0.0194091796875
0.040283203125
0.221954345703125
-0.170318603515625
0.297760009765625
-0.228546142578125
0.1102294921875
-0.0498046875
0.124542236328125
-0.10546875
-0.10107421875
0.1160888671875
0.031494140625
0.0230712890625
0.0750732421875
-0.0296630859375
0.174346923828125
-0.15234375
0.0648193359375
-0.0538330078125
0.005126953125
-0.00732421875
0.0970458984375
-0.0809326171875
0.0472412109375
-0.032623291015625
0.43768310546875
-0.46185302734375
0.1805419921875
-0.2047119140625
-0.141021728515625
0.124176025390625
-0.0252685546875
0.0091552734375
-0.0498046875
0.0391845703125
-0.189697265625
0.1739501953125
-0.1527099609375
0.1336669921875
0.0377197265625
-0.0479736328125
-0.04541015625
0.0384521484375
-0.237335205078125
0.216094970703125
-0.124542236328125
0.082794189453125
0.234405517578125
-0.266632080078125
0.08935546875
-0.131866455078125
0.53985595703125
-0.45416259765625
0.606903076171875
-0.48675537109375
-0.010986328125
0.0
-0.0150146484375
0.0
-0.071441650390625
0.0234375
-0.123443603515625
0.066680908203125
-0.371368408203125
0.38165283203125
-0.228179931640625
0.17138671875
-0.0172119140625
-0.082763671875
0.0355224609375
-0.071044921875
0.1490478515625
-0.180572509765625
0.108795166015625
-0.133697509765625
0.238433837890625
-0.141754150390625
0.141357421875
-0.0333251953125
0.080963134765625
0.0
0.053131103515625
0.0
-0.009521484375
0.0
0.017578125
0.0
-0.080963134765625
0.0
-0.145050048828125
0.0
-0.0146484375
0.0
0.158233642578125
0.0
0.111724853515625
0.0
-0.0018310546875
0.0
-0.0245361328125
0.0
-0.00732421875
0.0
0.0238037109375
0.0
0.0091552734375
0.0
-0.0018310546875
0.0
-0.0040283203125
0.0
0.0018310546875
0.0
0.0018310546875
0.0
-0.0010986328125
0.0
-0.018310546875
0.0
-0.0252685546875
0.0
0.0113525390625
0.0
0.0194091796875
0.0
0.000732421875
0.0
-0.037750244140625
0.0146484375
-0.01904296875
0.0
-0.01025390625
0.032257080078125
0.0047607421875
0.0
-0.0413818359375
0.0303955078125
-0.143951416015625
0.153839111328125
-0.0596923828125
0.0662841796875
-0.054931640625
0.04541015625
-0.0146484375
0.01318359375
-0.0970458984375
0.09375
-0.0670166015625
0.0552978515625
-0.027130126953125
0.00732421875
-0.280548095703125
0.303619384765625
-0.2508544921875
0.288238525390625
-0.0816650390625
0.0677490234375
-0.061553955078125
0.043243408203125
-0.34100341796875
0.31427001953125
-0.1875
0.1505126953125
0.0238037109375
-0.065216064453125
-0.161163330078125
0.136627197265625
-0.355621337890625
0.35528564453125
-0.1226806640625
0.1673583984375
0.47320556640625
-0.33624267578125
0.73834228515625
-0.52520751953125
0.61749267578125
-0.414581298828125
0.331085205078125
-0.185302734375
0.173614501953125
-0.128570556640625
0.043609619140625
-0.021240234375
0.0010986328125
0.049102783203125
0.008056640625
0.0113525390625
-0.0032958984375
0.0498046875
-0.0172119140625
0.094482421875
-0.53399658203125
0.61163330078125
-0.777557373046875
0.828826904296875
-0.247955322265625
0.269195556640625
-0.068115234375
0.1307373046875
-0.239898681640625
0.193389892578125
-0.145782470703125
0.056060791015625
0.0743408203125
-0.063385009765625
-0.0538330078125
0.00146484375
-0.2003173828125
0.079132080078125
-0.212066650390625
0.021240234375
-0.087921142578125
0.00146484375
0.03369140625
0.0
0.0252685546875
-0.0029296875
0.238800048828125
-0.187896728515625
0.173980712890625
-0.160064697265625
0.06884765625
-0.0889892578125
0.0648193359375
-0.0765380859375
0.034423828125
-0.049102783203125
-0.087158203125
0.07177734375
-0.01611328125
-0.0194091796875
0.1160888671875
-0.10107421875
-0.0062255859375
0.017578125
0.04541015625
-0.090850830078125
0.283111572265625
-0.297760009765625
0.45745849609375
-0.466949462890625
0.100372314453125
-0.111328125
-0.0377197265625
0.0289306640625
0.054931640625
-0.0732421875
0.01025390625
-0.037353515625
0.0062255859375
-0.016845703125
-0.06298828125
0.0838623046875
-0.04541015625
0.0684814453125
-0.0413818359375
0.0428466796875
-0.099273681640625
0.0919189453125
0.0040283203125
0.0025634765625
0.301422119140625
-0.261138916015625
0.287139892578125
-0.237701416015625
0.041412353515625
0.0091552734375
0.02783203125
0.0087890625
0.002197265625
0.003662109375
-0.0098876953125
0.00732421875
-0.057891845703125
0.049102783203125
-0.0311279296875
0.0087890625
-0.02490234375
-0.002197265625
-0.075469970703125
0.050567626953125
-0.0897216796875
0.054931640625
-0.1864013671875
0.2200927734375
-0.190826416015625
0.15380859375
-0.063018798828125
-0.044677734375
-0.032958984375
-0.0062255859375
0.029693603515625
-0.076171875
0.41351318359375
-0.449005126953125
0.1834716796875
-0.215362548828125
-0.55194091796875
0.52593994140625
-0.329620361328125
0.313873291015625
0.220489501953125
-0.240997314453125
0.211700439453125
-0.221954345703125
0.1527099609375
-0.139923095703125
0.53472900390625
-0.60650634765625
0.44573974609375
-0.52923583984375
-0.0003662109375
0.0
0.0
0.0
0.0003662109375
0.0
0.0003662109375
0.0
-0.083160400390625
0.194854736328125
-0.275787353515625
0.40435791015625
-0.0281982421875
0.05126953125
-0.077667236328125
0.10546875
0.093048095703125
-0.10546875
0.35198974609375
-0.442413330078125
0.0164794921875
-0.101806640625
0.000732421875
-0.067413330078125
0.0010986328125
-0.038848876953125
0.000732421875
0.0
0.000732421875
0.0
-0.0003662109375
0.0
-0.109161376953125
0.312042236328125
-0.271392822265625
0.48638916015625
-0.267730712890625
0.275787353515625
-0.191558837890625
0.167755126953125
-0.13330078125
0.101837158203125
-0.13330078125
0.099609375
-0.279815673828125
0.245391845703125
-0.148345947265625
0.1351318359375
0.01611328125
-0.0091552734375
0.0263671875
-0.005126953125
0.116455078125
-0.100738525390625
-0.024169921875
0.033721923828125
-0.1318359375
0.145050048828125
-0.226348876953125
0.2391357421875
0.788177490234375
-0.97021484375
0.96728515625
-1.0
-0.0076904296875
0.089019775390625
-0.00439453125
0.010284423828125
-0.43658447265625
0.513458251953125
-1.0
1.0
-1.0
0.8958740234375
-0.32269287109375
0.228179931640625
0.0
0.0003662109375
0.0
0.0
0.0
-0.0003662109375
0.029296875
-0.015380859375
0.094146728515625
-0.067413330078125
0.072540283203125
-0.055694580078125
0.0589599609375
-0.0406494140625
0.034423828125
-0.0076904296875
0.296295166015625
-0.280181884765625
0.56439208984375
-0.55267333984375
0.921844482421875
-0.914886474609375
0.56329345703125
-0.57354736328125
-0.082763671875
0.0692138671875
0.0413818359375
-0.060791015625
-0.0692138671875
0.044677734375
-0.082763671875
0.05126953125
-0.01611328125
-0.01611328125
0.276519775390625
-0.284210205078125
-0.110626220703125
0.097076416015625
-0.311309814453125
0.306549072265625
-0.1138916015625
0.1226806640625
-0.44354248046875
0.43951416015625
-0.145782470703125
0.221221923828125
-0.45928955078125
0.49224853515625
0.00439453125
-0.047607421875
0.48895263671875
-0.48602294921875
0.109527587890625
-0.100372314453125
0.109130859375
-0.117919921875
-0.160064697265625
0.147247314453125
-0.525543212890625
0.524444580078125
-0.441680908203125
0.431427001953125
0.038818359375
-0.054931640625
0.019775390625
-0.0296630859375
0.1512451171875
-0.1380615234375
0.506134033203125
-0.509063720703125
0.45233154296875
-0.46514892578125
0.101837158203125
-0.095245361328125
-0.163360595703125
0.173248291015625
-0.079833984375
0.083160400390625
-0.233673095703125
0.249786376953125
0.292266845703125
-0.193756103515625
0.49517822265625
-0.37542724609375
-0.024200439453125
0.140625
0.0794677734375
0.0494384765625
0.056060791015625
0.064483642578125
-0.75042724609375
0.284576416015625
-0.951171875
0.224853515625
-0.05126953125
-0.474273681640625
0.163726806640625
-0.315704345703125
0.1171875
0.926605224609375
-0.264068603515625
0.940185546875
-0.128173828125
-0.0201416015625
-0.0172119140625
-0.0029296875
-0.36480712890625
0.183868408203125
-0.148345947265625
-0.696624755859375
0.0
-0.52044677734375
0.0
-0.345001220703125
0.0
0.0274658203125
0.0
0.73687744140625
0.677581787109375
-0.157501220703125
1.0
-0.67462158203125
0.821136474609375
-0.847869873046875
-0.000732421875
-0.49224853515625
0.0
0.0
0.0003662109375
0.0
0.0
0.0
0.0
0.0
0.0
0.181671142578125
0.0
0.41607666015625
-0.0003662109375
0.362213134765625
-0.0003662109375
0.08203125
-0.58526611328125
0.842376708984375
-0.00439453125
-0.49810791015625
0.57391357421875
-0.73284912109375
0.0047607421875
0.0
-0.197784423828125
0.325225830078125
-0.306182861328125
0.9573974609375
-0.329620361328125
-0.240264892578125
-0.37066650390625
-0.302154541015625
-0.0582275390625
-0.139190673828125
0.112091064453125
-0.056427001953125
0.087158203125
-0.13916015625
-0.053131103515625
-0.0941162109375
0.116455078125
-0.145050048828125
-0.59735107421875
0.60101318359375
0.39447021484375
-0.314971923828125
0.179107666015625
-0.1666259765625
-1.0
1.0
-0.0465087890625
-0.049468994140625
-0.0087890625
-0.1197509765625
0.0604248046875
-0.170654296875
0.00732421875
-0.118682861328125
-0.09521484375
-0.0450439453125
-0.1043701171875
-0.0556640625
-0.193023681640625
0.110595703125
0.04541015625
-0.10107421875
-0.1417236328125
0.0325927734375
-0.151611328125
0.1256103515625
-0.046905517578125
0.311309814453125
0.1171875
0.103302001953125
0.0062255859375
0.36993408203125
0.43695068359375
-0.235870361328125
0.723724365234375
-0.800262451171875
-0.065582275390625
0.2138671875
0.186431884765625
-0.268096923828125
-0.263702392578125
0.149078369140625
-0.828460693359375
0.863983154296875
0.051300048828125
-0.0853271484375
0.01904296875
-0.169952392578125
-0.37066650390625
0.266265869140625
-0.079864501953125
0.0205078125
0.35894775390625
-0.078033447265625
-0.027099609375
0.309478759765625
-0.35894775390625
0.297393798828125
0.0
0.0069580078125
0.0
-0.1461181640625
0.0
-0.2655029296875
0.0
-0.163726806640625
0.0
-0.254180908203125
0.0
-0.164794921875
0.0
-0.152008056640625
0.0
-0.076568603515625
0.164825439453125
-0.208038330078125
0.01025390625
-0.06005859375
0.0977783203125
0.154205322265625
0.50323486328125
-0.151611328125
0.215362548828125
-0.0003662109375
-0.0179443359375
0.231475830078125
-0.1212158203125
0.0487060546875
-0.426666259765625
-0.33953857421875
-0.35675048828125
-0.206939697265625
-0.068878173828125
0.074737548828125
0.0
0.0040283203125
0.0
0.050537109375
0.0
0.167388916015625
0.0
0.1343994140625
0.0
0.217193603515625
0.0
0.108062744140625
0.0
-0.138824462890625
0.0
-0.016845703125
0.0
0.071441650390625
0.0
0.0355224609375
0.0
-0.118316650390625
0.0
-0.120880126953125
0.0
0.143951416015625
0.0
0.0106201171875
0.0
-0.021240234375
0.078399658203125
-0.1761474609375
0.0
-0.122344970703125
-0.078399658203125
0.516387939453125
0.0
0.375762939453125
0.0
0.015777587890625
0.0
-0.037353515625
0.0
-0.046173095703125
0.0
-0.286407470703125
0.0
-0.73065185546875
0.0
-0.17138671875
0.0
1.0
0.0
0.831024169921875
0.012451171875
0.067047119140625
0.0
0.0069580078125
0.106231689453125
0.0
0.0
-0.0003662109375
0.07177734375
-0.024169921875
0.064483642578125
-0.178375244140625
-0.190460205078125
-0.276519775390625
-0.064483642578125
-0.57830810546875
0.0
0.300689697265625
0.0
0.757049560546875
0.0
-0.0003662109375
0.0
0.0
0.0
0.0
0.0
0.0
0.0
0.0003662109375
0.0
0.0
0.0
0.0
0.0
-0.0003662109375
0.0
-0.0003662109375
0.0
0.0
0.0
0.0003662109375
0.0
0.0
0.0
-0.0003662109375
0.0
0.0003662109375
0.0
0.0003662109375
0.0
0.0
0.0
-0.0003662109375
0.0
0.0
0.0
-0.039215087890625
0.0
-0.0003662109375
0.0
0.039581298828125
0.0
0.0
0.0
-0.0003662109375
0.0
0.0
0.0
0.0003662109375
0.0
0.0
0.0
-0.0003662109375
0.0
0.0
0.0
0.0003662109375
0.0
0.0003662109375
0.0
-0.0003662109375
0.0
0.0
0.0
0.0
0.0
0.0
0.0
0.0003662109375
0.0
-0.0003662109375
0.0
0.0
0.0
0.0
0.0
-0.0003662109375
0.0
0.0003662109375
0.0
0.0
0.0
0.0
0.0
0.0
0.0
0.0
0.0
0.0003662109375
0.0
-0.0003662109375
0.0
-0.0003662109375
0.0
0.0003662109375
0.0
0.0003662109375
0.0
0.0
0.0
0.0
0.0
-0.0003662109375
0.0
0.0
0.0
0.0003662109375
0.0
0.0
0.0
-0.0003662109375
0.0
0.0
0.0
0.0
0.0
0.0
0.0
-0.0281982421875
0.0
-0.053863525390625
0.0
-0.041412353515625
0.0
-0.015380859375
0.0
0.000732421875
0.0
-0.012451171875
0.0
-0.0303955078125
0.0
-0.04833984375
0.0
-0.05712890625
0.0
-0.0439453125
0.0
-0.028564453125
0.0
-0.0238037109375
0.0
-0.0267333984375
0.041046142578125
-0.0205078125
0.079132080078125
-0.0150146484375
0.0732421875
-0.0267333984375
0.076904296875
-0.0648193359375
0.075439453125
-0.0098876953125
0.12744140625
0.0069580078125
0.146148681640625
-0.046875
0.100006103515625
-0.041778564453125
0.0926513671875
-0.049835205078125
0.0911865234375
-0.0487060546875
0.0860595703125
-0.0472412109375
0.07470703125
-0.046142578125
0.0655517578125
-0.0399169921875
0.058624267578125
-0.02783203125
0.048736572265625
-0.0084228515625
0.0325927734375
-0.0010986328125
0.0194091796875
-0.0076904296875
0.0128173828125
-0.0128173828125
0.009521484375
-0.0205078125
0.0069580078125
-0.0223388671875
0.0047607421875
-0.0186767578125
0.003662109375
-0.0142822265625
0.0084228515625
-0.0172119140625
0.0120849609375
-0.021240234375
0.0087890625
-0.0216064453125
0.006591796875
-0.0208740234375
0.002197265625
-0.0128173828125
-0.0010986328125
-0.0054931640625
-0.04541015625
0.047607421875
-0.003662109375
-0.0135498046875
0.046142578125
-0.0736083984375
0.006591796875
-0.01904296875
0.0062255859375
-0.0164794921875
0.005859375
-0.0172119140625
0.0076904296875
-0.019805908203125
0.01318359375
-0.020904541015625
0.013916015625
-0.01904296875
0.0157470703125
-0.022705078125
0.0084228515625
-0.0157470703125
-0.00439453125
0.0054931640625
-0.0040283203125
0.0047607421875
0.003662109375
-0.000732421875
0.015380859375
-0.0047607421875
0.025634765625
-0.017578125
0.0281982421875
-0.013916015625
0.031494140625
-0.0091552734375
0.03076171875
-0.0047607421875
0.0252685546875
-0.000732421875
0.0201416015625
0.000732421875
0.0194091796875
0.0032958984375
0.0322265625
-0.01171875
-0.0135498046875
0.0391845703125
0.005126953125
0.0179443359375
0.0611572265625
-0.041015625
0.0391845703125
-0.0120849609375
0.035186767578125
-0.008056640625
0.023468017578125
-0.01171875
0.005126953125
-0.015380859375
-0.0047607421875
-0.01611328125
-0.0054931640625
-0.0234375
-0.0062255859375
-0.0186767578125
-0.014678955078125
-0.003662109375
-0.023101806640625
0.0047607421875
-0.02490234375
0.0054931640625
-0.0260009765625
0.0032958984375
-0.028564453125
-0.0025634765625
-0.0289306640625
-0.0047607421875
-0.02490234375
-0.0003662109375
-0.019775390625
0.000732421875
-0.0172119140625
-0.0003662109375
-0.013916015625
-0.003662109375
-0.0106201171875
-0.0029296875
-0.0098876953125
0.0010986328125
-0.0032958984375
-0.0029296875
0.0087890625
-0.017578125
-0.03662109375
0.03662109375
-0.0146484375
0.016845703125
0.0267333984375
-0.038818359375
-0.0091552734375
-0.0040283203125
-0.0084228515625
-0.000732421875
0.00146484375
-0.00732421875
0.0032958984375
-0.01025390625
0.000732421875
-0.012451171875
0.0018310546875
-0.0098876953125
0.000732421875
-0.0062255859375
-0.0087890625
0.003662109375
-0.0062255859375
0.009521484375
0.0084228515625
0.0003662109375
0.0084228515625
0.0003662109375
0.0025634765625
0.0018310546875
-0.0040283203125
-0.0025634765625
-0.00439453125
-0.0032958984375
0.005859375
-0.0040283203125
0.010986328125
-0.0025634765625
0.0062255859375
-0.0029296875
-0.0040283203125
-0.002197265625
-0.0087890625
0.0040283203125
-0.005859375
0.0018310546875
-0.03662109375
0.0501708984375
0.0069580078125
0.00146484375
0.03955078125
-0.05126953125
-0.0091552734375
0.005126953125
-0.0091552734375
0.0062255859375
0.0032958984375
-0.0018310546875
0.0076904296875
-0.009521484375
0.005859375
-0.0120849609375
0.0010986328125
-0.0091552734375
-0.0054931640625
-0.00439453125
-0.0069580078125
0.0032958984375
-0.0025634765625
0.0062255859375
0.0018310546875
0.0040283203125
-0.00146484375
0.0040283203125
-0.0062255859375
0.0032958984375
-0.0087890625
-0.0010986328125
0.002197265625
-0.003662109375
0.0106201171875
-0.002197265625
0.005126953125
0.0018310546875
0.0010986328125
0.0003662109375
-0.0010986328125
-0.0029296875
0.00146484375
-0.0084228515625
0.0003662109375
-0.01904296875
-0.0179443359375
0.0230712890625
0.0047607421875
0.0208740234375
0.017578125
-0.010986328125
-0.0032958984375
0.002197265625
-0.0018310546875
-0.002197265625
0.0003662109375
-0.0018310546875
0.00439453125
-0.005859375
0.006591796875
-0.01318359375
0.006591796875
-0.0157470703125
0.0010986328125
-0.0062255859375
-0.0076904296875
0.0120849609375
-0.00732421875
0.015380859375
-0.0025634765625
0.0106201171875
0.0029296875
0.0018310546875
0.0054931640625
-0.005126953125
0.0003662109375
-0.0029296875
0.0032958984375
-0.003662109375
0.00439453125
0.0010986328125
0.0135498046875
-0.0201416015625
-0.0069580078125
0.0003662109375
-0.01611328125
0.0355224609375
0.016845703125
0.0
0.01611328125
-0.0135498046875
0.005859375
-0.0040283203125
0.005859375
-0.0029296875
0.01025390625
-0.002197265625
0.0087890625
-0.0029296875
0.0040283203125
-0.0084228515625
0.0069580078125
-0.0113525390625
0.0054931640625
-0.0018310546875
0.0
0.009521484375
0.002197265625
0.009521484375
0.00439453125
0.0040283203125
0.0029296875
0.0029296875
0.002197265625
0.006591796875
0.00146484375
0.0025634765625
0.0076904296875
-0.006591796875
0.009521484375
-0.005126953125
0.00146484375
0.0010986328125
-0.003662109375
0.0062255859375
-0.01025390625
0.0157470703125
-0.041748046875
0.0560302734375
0.00439453125
-0.0076904296875
0.03955078125
-0.052001953125
-0.0018310546875
0.0003662109375
-0.00439453125
0.0
-0.0040283203125
-0.0029296875
-0.0054931640625
-0.0032958984375
-0.0010986328125
-0.0076904296875
0.003662109375
-0.0087890625
0.003662109375
-0.0084228515625
-0.0047607421875
-0.0003662109375
-0.0179443359375
0.0135498046875
-0.0164794921875
0.01025390625
-0.0032958984375
0.0010986328125
0.0047607421875
-0.005126953125
0.0032958984375
-0.005859375
-0.0018310546875
-0.0032958984375
-0.00732421875
-0.0018310546875
0.005126953125
-0.0274658203125
-0.0076904296875
-0.01318359375
-0.0205078125
0.035888671875
0.0106201171875
0.0135498046875
0.01025390625
-0.0113525390625
-0.00439453125
-0.0032958984375
-0.0025634765625
-0.00146484375
0.0003662109375
-0.0040283203125
0.005126953125
-0.01171875
0.008056640625
-0.018310546875
0.006591796875
-0.0146484375
-0.0018310546875
0.00146484375
-0.01171875
0.01904296875
-0.0098876953125
0.01611328125
0.0018310546875
-0.0010986328125
0.00732421875
-0.010986328125
0.0029296875
-0.008056640625
0.0146484375
-0.0380859375
-0.0369873046875
0.0380859375
-0.02197265625
0.046875
0.043212890625
-0.038818359375
0.017578125
-0.013916015625
0.0025634765625
-0.002197265625
0.0003662109375
-0.0029296875
0.005126953125
-0.01025390625
0.0084228515625
-0.016845703125
0.009521484375
-0.0208740234375
0.00439453125
-0.0106201171875
-0.0076904296875
0.0150146484375
-0.01171875
0.0186767578125
-0.0032958984375
0.0076904296875
0.002197265625
0.0025634765625
0.00439453125
-0.0025634765625
0.005126953125
0.0003662109375
0.0032958984375
0.003662109375
0.0018310546875
0.002197265625
0.0032958984375
-0.00146484375
0.0029296875
0.00439453125
0.0047607421875
0.0047607421875
0.0128173828125
-0.0040283203125
0.01318359375
-0.005859375
0.00732421875
-0.0010986328125
0.0084228515625
0.0010986328125
0.0113525390625
0.0010986328125
0.0172119140625
-0.0003662109375
0.021240234375
-0.0032958984375
-0.0289306640625
0.0677490234375
0.0047607421875
0.0142822265625
0.0560302734375
-0.0615234375
0.019439697265625
-0.0076904296875
0.017608642578125
-0.009521484375
0.0179443359375
-0.002197265625
0.0164794921875
0.0087890625
0.02197265625
-0.0018310546875
0.0238037109375
-0.0135498046875
0.02197265625
-0.0146484375
0.0201416015625
-0.00146484375
0.01904296875
0.01318359375
0.021240234375
0.010986328125
0.02197265625
-0.00146484375
0.0146484375
-0.0025634765625
0.006591796875
0.0018310546875
0.0106201171875
-0.0010986328125
0.016845703125
-0.0040283203125
0.0091552734375
-0.0025634765625
-0.0040283203125
0.0047607421875
-0.0091552734375
0.008056640625
-0.00732421875
0.0040283203125
-0.0003662109375
-0.0029296875
0.005126953125
-0.0040283203125
0.0106201171875
-0.0216064453125
-0.0234375
0.005126953125
-0.032958984375
0.037353515625
0.0040283203125
-0.0054931640625
-0.000732421875
-0.012451171875
-0.0087890625
-0.0003662109375
-0.0098876953125
-0.0040283203125
-0.0172119140625
-0.00439453125
-0.01611328125
-0.01025390625
-0.0113525390625
-0.0146484375
-0.0084228515625
-0.01171875
-0.0113525390625
-0.0032958984375
-0.0201416015625
0.005126953125
-0.0230712890625
0.0098876953125
-0.0179443359375
0.006591796875
-0.01318359375
0.002197265625
-0.0106201171875
-0.0062255859375
-0.0087890625
-0.0128173828125
-0.0091552734375
-0.006591796875
-0.014678955078125
0.00439453125
-0.013946533203125
0.0054931640625
-0.010986328125
-0.0018310546875
-0.013916015625
-0.002197265625
-0.01171875
0.0003662109375
-0.005859375
-0.002197265625
-0.010986328125
-0.0087890625
-0.0347900390625
0.0205078125
-0.005126953125
0.00732421875
0.01611328125
-0.016845703125
-0.005126953125
0.0018310546875
-0.0032958984375
-0.00146484375
-0.0040283203125
0.0
-0.006591796875
-0.005126953125
-0.0032958984375
-0.01171875
0.0003662109375
-0.01171875
-0.0010986328125
-0.005126953125
-0.0040283203125
0.00732421875
-0.0091552734375
0.01171875
-0.006591796875
0.00732421875
-0.0029296875
0.0003662109375
-0.002197265625
0.0010986328125
-0.002197265625
-0.00146484375
0.0
-0.005859375
0.002197265625
-0.00146484375
-0.003662109375
0.002197265625
-0.00732421875
0.0040283203125
-0.009521484375
-0.005126953125
-0.02490234375
0.018310546875
0.0003662109375
0.0106201171875
0.02197265625
-0.015380859375
0.003662109375
-0.0029296875
-0.002197265625
0.0003662109375
-0.0040283203125
-0.0003662109375
0.0
-0.005126953125
0.0062255859375
-0.0150146484375
0.0087890625
-0.022705078125
0.0040283203125
-0.00439453125
-0.008056640625
0.0179443359375
-0.00732421875
0.010986328125
0.000732421875
0.000732421875
-0.000732421875
0.0029296875
0.00439453125
-0.0003662109375
0.0076904296875
-0.0029296875
0.0032958984375
-0.00439453125
-0.0003662109375
0.0
0.0025634765625
0.0018310546875
0.003662109375
-0.000732421875
0.002197265625
0.0010986328125
0.005859375
0.00146484375
0.0069580078125
-0.0040283203125
-0.002197265625
0.00146484375
-0.0238037109375
0.0325927734375
0.010986328125
-0.0003662109375
0.031494140625
-0.0252685546875
0.0087890625
-0.0025634765625
0.015380859375
-0.0084228515625
0.0208740234375
-0.0047607421875
0.0238037109375
-0.00439453125
0.02197265625
-0.009521484375
0.018707275390625
-0.0128173828125
0.014312744140625
-0.0106201171875
0.0135498046875
0.008056640625
0.016845703125
0.017578125
0.0172119140625
0.0106201171875
0.0157470703125
0.0032958984375
0.01611328125
-0.0069580078125
0.0179443359375
-0.0032958984375
0.03076171875
0.003662109375
0.046142578125
0.0029296875
0.047607421875
0.0029296875
0.0421142578125
-0.0010986328125
0.0362548828125
-0.005126953125
0.0333251953125
0.0032958984375
0.0413818359375
0.0069580078125
0.052734375
0.0029296875
0.0450439453125
0.0010986328125
0.028564453125
-0.005859375
0.0172119140625
0.0087890625
-0.0245361328125
0.0714111328125
0.029327392578125
-0.003662109375
0.077667236328125
-0.06591796875
0.022705078125
-0.005859375
0.0091552734375
-0.0025634765625
0.0069580078125
-0.0010986328125
0.003662109375
0.002197265625
-0.0054931640625
-0.0054931640625
-0.0164794921875
-0.010986328125
-0.0223388671875
-0.006591796875
-0.031890869140625
0.0032958984375
-0.032257080078125
0.01171875
-0.028564453125
0.0076904296875
-0.0281982421875
0.0040283203125
-0.01904296875
0.0010986328125
-0.0135498046875
-0.000732421875
-0.0205078125
0.0
-0.0274658203125
-0.0003662109375
-0.0230712890625
-0.0010986328125
-0.0186767578125
0.000732421875
-0.012451171875
0.0003662109375
-0.012451171875
-0.0029296875
-0.0230712890625
0.0003662109375
-0.0274658203125
0.006591796875
-0.0604248046875
0.065185546875
-0.0142822265625
-0.002197265625
0.0289306640625
-0.069580078125
-0.01025390625
-0.0029296875
-0.0238037109375
0.0054931640625
-0.02490234375
0.00146484375
-0.0164794921875
-0.005859375
-0.010986328125
-0.0150146484375
-0.0084228515625
-0.0194091796875
-0.0128173828125
-0.0120849609375
-0.0234375
0.00439453125
-0.029296875
0.0120849609375
-0.0303955078125
0.00732421875
-0.02490234375
0.0003662109375
-0.0142822265625
-0.0018310546875
-0.012481689453125
-0.0010986328125
-0.012847900390625
-0.003662109375
-0.019775390625
-0.00439453125
-0.0238037109375
-0.00146484375
-0.0172119140625
0.0010986328125
-0.0194091796875
0.0040283203125
-0.0216064453125
0.00439453125
0.0029296875
-0.029296875
-0.0322265625
0.0150146484375
-0.0362548828125
0.0439453125
0.0113525390625
-0.01318359375
-0.000732421875
-0.0106201171875
-0.0091552734375
0.0010986328125
-0.0084228515625
0.0003662109375
-0.005859375
-0.0029296875
-0.00146484375
-0.010986328125
0.0010986328125
-0.017578125
-0.0018310546875
-0.0128173828125
-0.0069580078125
0.00439453125
-0.0091552734375
0.013916015625
-0.0054931640625
0.006591796875
-0.0087890625
0.0010986328125
-0.0150146484375
0.0025634765625
-0.0084228515625
0.0003662109375
-0.000732421875
-0.0032958984375
0.000732421875
-0.00146484375
0.000732421875
-0.002197265625
-0.000732421875
-0.0029296875
-0.0029296875
-0.0003662109375
-0.002197265625
0.0010986328125
0.0010986328125
-0.0003662109375
0.0018310546875
-0.00439453125
-0.0025634765625
-0.009521484375
-0.0333251953125
0.034423828125
-0.0025634765625
0.012451171875
0.0296630859375
-0.0296630859375
0.0032958984375
-0.0025634765625
0.00146484375
-0.000732421875
0.0025634765625
0.0
0.00732421875
-0.0069580078125
0.0076904296875
-0.0135498046875
0.005859375
-0.01904296875
0.0040283203125
-0.008056640625
-0.0025634765625
0.0146484375
-0.0029296875
0.0157470703125
-0.00146484375
0.00732421875
-0.0010986328125
0.0018310546875
0.0010986328125
0.0054931640625
0.005126953125
0.000732421875
0.0098876953125
-0.0047607421875
0.0091552734375
-0.000732421875
0.0113525390625
-0.002197265625
0.0150146484375
-0.00146484375
0.006591796875
0.012451171875
-0.0413818359375
0.07177734375
0.0091552734375
-0.012451171875
0.053466796875
-0.071044921875
0.0120849609375
-0.0003662109375
0.0142822265625
-0.0003662109375
0.0091552734375
-0.0010986328125
-0.0018310546875
-0.002197265625
0.000732421875
-0.0040283203125
0.016845703125
-0.0150146484375
0.0201416015625
-0.0135498046875
0.01171875
0.0025634765625
0.00732421875
0.0128173828125
0.0040283203125
0.0142822265625
0.0069580078125
0.0047607421875
0.01904296875
-0.00439453125
0.0208740234375
-0.0025634765625
0.011749267578125
-0.0003662109375
0.010284423828125
-0.0025634765625
0.005859375
0.00146484375
0.005859375
0.00146484375
0.016845703125
-0.000732421875
0.015380859375
0.0025634765625
0.0113525390625
-0.0003662109375
0.003662109375
-0.0047607421875
-0.0025634765625
-0.00146484375
0.0040283203125
0.0
-0.005126953125
0.0120849609375
-0.044342041015625
0.068115234375
0.0076904296875
-0.0087890625
0.045074462890625
-0.0673828125
0.0003662109375
-0.0010986328125
-0.0040283203125
0.0040283203125
-0.0047607421875
0.00146484375
-0.006591796875
-0.002197265625
-0.005859375
-0.003662109375
-0.0047607421875
-0.00439453125
-0.0062255859375
-0.0025634765625
-0.009521484375
0.0025634765625
-0.01318359375
0.005859375
-0.01171875
0.006591796875
-0.008087158203125
0.0054931640625
-0.006988525390625
0.002197265625
-0.008056640625
0.0032958984375
-0.0076904296875
-0.00439453125
-0.0069580078125
-0.0087890625
-0.00732421875
0.0018310546875
-0.0076904296875
0.0032958984375
-0.0106201171875
0.003662109375
-0.000732421875
-0.0142822265625
-0.0399169921875
0.029296875
-0.0223388671875
0.0201416015625
0.0260009765625
-0.03662109375
0.0003662109375
-0.009521484375
-0.0054931640625
-0.0018310546875
-0.0040283203125
-0.0018310546875
-0.003662109375
-0.008056640625
-0.005859375
-0.01318359375
-0.0029296875
-0.0146484375
-0.00146484375
-0.0113525390625
-0.0062255859375
0.0062255859375
-0.0113525390625
0.0172119140625
-0.0098876953125
0.005126953125
-0.0062255859375
-0.0025634765625
-0.005859375
0.00146484375
-0.0054931640625
-0.0003662109375
-0.0018310546875
-0.0018310546875
0.019775390625
-0.037017822265625
-0.0281982421875
0.0245361328125
-0.024169921875
0.039581298828125
0.0318603515625
-0.030029296875
0.005126953125
-0.0047607421875
-0.0029296875
0.0069580078125
0.0018310546875
0.0
0.0029296875
-0.0054931640625
0.005859375
-0.0230712890625
0.0025634765625
-0.018310546875
-0.0054931640625
0.0032958984375
-0.0106201171875
0.0164794921875
-0.009521484375
0.0238037109375
0.0003662109375
0.0062255859375
0.0018310546875
-0.003662109375
-0.0018310546875
-0.000732421875
0.0025634765625
-0.0032958984375
0.003662109375
-0.0010986328125
0.002197265625
-0.000732421875
0.005859375
-0.0025634765625
0.0029296875
0.0003662109375
-0.0032958984375
0.0040283203125
-0.0029296875
0.0029296875
-0.0010986328125
-0.0047607421875
0.0029296875
-0.005126953125
0.00732421875
0.0
0.003662109375
0.00439453125
-0.0018310546875
0.0032958984375
0.0054931640625
-0.019775390625
-0.0025634765625
-0.019775390625
-0.0164794921875
0.03515625
0.0106201171875
0.022705078125
0.021240234375
-0.0113525390625
0.00439453125
-0.005126953125
0.0018310546875
-0.0084228515625
0.003662109375
-0.0025634765625
0.0062255859375
-0.000732421875
0.0113525390625
-0.0069580078125
0.012451171875
-0.0146484375
0.0018310546875
-0.005126953125
-0.0040283203125
0.0113525390625
0.0
0.013916015625
0.0032958984375
0.0032958984375
0.005859375
-0.0040283203125
0.0069580078125
0.0
0.005126953125
0.0
0.0062255859375
-0.00146484375
0.0084228515625
0.0018310546875
0.006591796875
-0.000732421875
0.0047607421875
-0.005126953125
0.0047607421875
0.0
0.00439453125
0.0029296875
0.0032958984375
0.0018310546875
0.0128173828125
-0.025299072265625
-0.01171875
-0.0003662109375
-0.01904296875
0.037750244140625
0.018310546875
-0.0018310546875
0.0201416015625
-0.0128173828125
0.0091552734375
-0.0069580078125
0.004791259765625
-0.0069580078125
0.002227783203125
0.0029296875
0.003662109375
-0.0003662109375
0.0098876953125
-0.009521484375
0.0106201171875
-0.013214111328125
0.002197265625
-0.0047607421875
-0.0076904296875
0.014678955078125
-0.0029296875
0.0142822265625
0.0018310546875
0.0040283203125
0.0025634765625
-0.0029296875
0.0029296875
-0.0003662109375
0.0
0.005859375
-0.0018310546875
0.0157470703125
-0.037750244140625
0.0516357421875
0.0010986328125
-0.00439453125
0.035552978515625
-0.0457763671875
0.0
0.0
0.00439453125
0.0029296875
0.0040283203125
-0.003662109375
0.0010986328125
-0.0029296875
0.00439453125
-0.009521484375
0.006591796875
-0.0146484375
0.000732421875
-0.0047607421875
-0.0091552734375
0.01611328125
-0.013916015625
0.025634765625
-0.0128173828125
0.01611328125
-0.005859375
0.000732421875
-0.000762939453125
-0.005126953125
-0.002227783203125
0.000732421875
-0.003662109375
0.0047607421875
0.009552001953125
-0.0245361328125
-0.0281982421875
0.0194091796875
-0.026763916015625
0.038818359375
0.0223388671875
-0.0179443359375
0.006591796875
-0.0084228515625
-0.0054931640625
0.0025634765625
-0.008056640625
0.002197265625
-0.005126953125
-0.0025634765625
0.0018310546875
-0.0113525390625
0.005859375
-0.016845703125
-0.0003662109375
-0.0084228515625
-0.0142822265625
0.0098876953125
-0.0135498046875
0.01611328125
-0.0029296875
0.0054931640625
0.000732421875
-0.0029296875
-0.0025634765625
-0.00439453125
-0.0018310546875
-0.005859375
-0.003662109375
-0.0047607421875
-0.0062255859375
-0.0003662109375
-0.0029296875
0.0010986328125
-0.00439453125
-0.0010986328125
-0.0062255859375
-0.0003662109375
-0.00439453125
-0.000732421875
-0.0032958984375
-0.0025634765625
-0.002197265625
-0.0032958984375
-0.044677734375
0.05712890625
-0.00439453125
0.0062255859375
0.0435791015625
-0.0604248046875
0.006591796875
-0.009521484375
0.0018310546875
-0.0054931640625
-0.0029296875
-0.0029296875
0.0003662109375
-0.0025634765625
0.005126953125
-0.0113525390625
0.0040283203125
-0.0135498046875
0.0
-0.006591796875
-0.00732421875
0.002197265625
-0.01025390625
0.0091552734375
-0.0076904296875
0.006591796875
-0.0003662109375
0.0032958984375
0.00439453125
0.0018310546875
-0.00146484375
-0.000732421875
0.000732421875
-0.0018310546875
0.0003662109375
0.000732421875
-0.0040283203125
0.0040283203125
0.0
0.0076904296875
0.0128173828125
-0.01318359375
-0.03515625
0.0384521484375
-0.01611328125
0.027099609375
0.0428466796875
-0.0428466796875
0.0120849609375
-0.0069580078125
0.003662109375
0.008056640625
0.0076904296875
0.002197265625
0.005859375
-0.0062255859375
0.0076904296875
-0.0164794921875
0.01025390625
-0.0142822265625
0.005859375
-0.0025634765625
-0.0025634765625
0.0142822265625
-0.002197265625
0.0157470703125
0.0029296875
0.0010986328125
-0.0018310546875
0.006591796875
0.0025634765625
0.0076904296875
0.00732421875
0.0
0.005126953125
-0.0040283203125
0.00732421875
-0.009521484375
0.0062255859375
-0.0003662109375
0.005126953125
0.003662109375
0.0069580078125
0.0
0.005859375
-0.005126953125
0.0032958984375
-0.0069580078125
0.00439453125
-0.00146484375
-0.0010986328125
0.0179443359375
-0.02197265625
0.0322265625
0.011383056640625
-0.0205078125
0.030792236328125
-0.0333251953125
0.00146484375
0.002197265625
0.0032958984375
0.000732421875
0.0062255859375
-0.0029296875
0.005859375
-0.0069580078125
0.0069580078125
-0.01025390625
0.0098876953125
-0.0087890625
0.0087890625
-0.005157470703125
-0.000732421875
0.0040283203125
-0.0047607421875
0.012115478515625
0.002197265625
0.008056640625
0.0069580078125
0.0032958984375
0.008056640625
-0.0010986328125
0.0018310546875
-0.003662109375
-0.0029296875
-0.00146484375
-0.0003662109375
0.0018310546875
0.0054931640625
0.000732421875
0.008056640625
-0.00146484375
-0.0091552734375
0.0186767578125
-0.0322265625
0.0355224609375
0.0047607421875
-0.0128173828125
0.0263671875
-0.027099609375
0.0025634765625
0.0040283203125
0.0010986328125
-0.002197265625
-0.0054931640625
-0.0010986328125
-0.006591796875
0.005126953125
0.0
-0.0047607421875
-0.005859375
-0.0135498046875
-0.0040283203125
-0.0076904296875
-0.0025634765625
0.01025390625
-0.0076904296875
0.0157470703125
0.0
0.003662109375
0.0029296875
-0.00146484375
-0.003662109375
-0.0025634765625
-0.01025390625
-0.0047607421875
-0.010986328125
-0.002197265625
-0.00732421875
0.0003662109375
-0.0032958984375
-0.0003662109375
-0.004791259765625
-0.0003662109375
-0.006988525390625
0.0003662109375
0.005523681640625
-0.034454345703125
-0.03076171875
0.0091552734375
-0.027496337890625
0.043243408203125
0.0208740234375
-0.0106201171875
0.008056640625
-0.0069580078125
-0.0025634765625
-0.00439453125
-0.003662109375
-0.0076904296875
-0.002197265625
-0.003662109375
0.0029296875
-0.0069580078125
0.0047607421875
-0.010650634765625
-0.0010986328125
-0.012847900390625
-0.0069580078125
0.000732421875
-0.010986328125
0.013946533203125
-0.0084228515625
0.009918212890625
-0.0032958984375
0.000732421875
0.0
-0.002197265625
-0.0003662109375
-0.0010986328125
0.0003662109375
-0.000732421875
-0.0029296875
0.005126953125
-0.005859375
0.002197265625
0.00146484375
-0.00146484375
0.003662109375
0.000732421875
0.0010986328125
0.0025634765625
0.0010986328125
0.0069580078125
0.0047607421875
-0.005859375
-0.0091552734375
-0.0069580078125
-0.0238037109375
0.0281982421875
0.0106201171875
0.0084228515625
0.021240234375
-0.0106201171875
-0.0010986328125
-0.0018310546875
0.000732421875
-0.01025390625
0.00439453125
-0.0029296875
0.0047607421875
-0.002197265625
0.0054931640625
-0.005126953125
0.0047607421875
-0.008056640625
0.0003662109375
-0.0025634765625
-0.0010986328125
0.00732421875
0.0
0.0084228515625
0.0003662109375
0.0054931640625
0.0032958984375
0.0029296875
0.006591796875
-0.002197265625
0.0069580078125
-0.0047607421875
0.01025390625
-0.0032958984375
0.014312744140625
-0.002197265625
0.009552001953125
0.002197265625
0.0018310546875
0.0029296875
0.002197265625
0.000732421875
0.0087890625
-0.0003662109375
0.005859375
0.01171875
-0.036651611328125
0.07177734375
0.0091552734375
-0.013916015625
0.049835205078125
-0.0758056640625
0.0062255859375
-0.002197265625
0.00146484375
0.002197265625
0.002197265625
0.00439453125
0.002197265625
-0.006591796875
0.002197265625
-0.014678955078125
0.002197265625
-0.009185791015625
0.0
-0.00439453125
-0.005126953125
0.009552001953125
-0.0084228515625
0.013946533203125
-0.006591796875
0.009521484375
-0.0010986328125
0.0047607421875
0.0047607421875
-0.0025634765625
0.000732421875
-0.002197265625
-0.0029296875
-0.0047607421875
-0.0029296875
-0.0040283203125
-0.0062255859375
0.0040283203125
-0.00439453125
0.0040283203125
-0.0003662109375
-0.0003662109375
-0.0032958984375
-0.0040283203125
-0.009521484375
-0.003662109375
-0.01025390625
0.002197265625
-0.009185791015625
0.0032958984375
-0.011749267578125
0.002197265625
-0.03515625
0.0318603515625
-0.0047607421875
-0.0029296875
0.022705078125
-0.0322265625
-0.0062255859375
0.0040283203125
-0.01025390625
0.0010986328125
-0.0113525390625
-0.0032958984375
-0.0054931640625
-0.0025634765625
0.0010986328125
-0.010650634765625
0.0003662109375
-0.014678955078125
-0.0047607421875
-0.0047607421875
-0.0128173828125
0.008819580078125
-0.0135498046875
0.015777587890625
-0.01025390625
0.0091552734375
-0.00439453125
0.0010986328125
-0.00146484375
-0.002197265625
-0.0032958984375
-0.0010986328125
-0.0025634765625
0.0003662109375
-0.005859375
-0.0003662109375
-0.0062255859375
0.0029296875
-0.0010986328125
0.002197265625
-0.000732421875
0.003662109375
-0.003662109375
0.000732421875
-0.0054931640625
-0.0029296875
-0.0274658203125
0.025634765625
0.00146484375
0.002197265625
0.0263671875
-0.0238037109375
0.0018310546875
0.002197265625
0.00146484375
0.003662109375
-0.0003662109375
-0.003662109375
0.003662109375
-0.0069580078125
0.00732421875
-0.009521484375
0.005859375
-0.010650634765625
0.0025634765625
-0.0032958984375
-0.0054931640625
0.008087158203125
-0.0040283203125
0.0113525390625
0.0025634765625
0.0054931640625
0.0
0.0029296875
-0.0025634765625
0.0003662109375
0.00146484375
-0.00439453125
0.0032958984375
-0.0032958984375
0.0010986328125
0.0003662109375
0.00146484375
0.0018310546875
0.0003662109375
0.0010986328125
0.000732421875
0.0025634765625
0.0032958984375
0.0003662109375
0.005859375
0.0
0.00439453125
0.0025634765625
0.00146484375
-0.00146484375
0.0128173828125
-0.025665283203125
-0.01611328125
-0.000732421875
-0.02490234375
0.040313720703125
0.0164794921875
0.0025634765625
0.0142822265625
-0.0142822265625
0.0003662109375
0.0025634765625
0.0047607421875
0.0029296875
0.005126953125
-0.0029296875
0.0
-0.0062255859375
0.0040283203125
-0.01171875
0.00439453125
-0.013946533203125
0.0
0.0
-0.0025634765625
0.012481689453125
-0.00146484375
0.012451171875
-0.000732421875
0.006591796875
0.0010986328125
-0.0047607421875
0.0018310546875
-0.0047607421875
-0.0003662109375
0.002197265625
0.0040283203125
0.000732421875
0.006591796875
0.0
0.005859375
0.000732421875
0.003662109375
-0.0032958984375
0.00146484375
-0.0018310546875
0.0010986328125
0.0025634765625
0.003662109375
-0.000732421875
0.0010986328125
0.0113525390625
-0.0289306640625
0.041748046875
0.0098876953125
-0.01904296875
0.0369873046875
-0.0439453125
0.000732421875
0.005859375
-0.0010986328125
0.002197265625
0.0029296875
0.00146484375
0.009521484375
-0.009521484375
0.0054931640625
-0.00732421875
0.0029296875
-0.003326416015625
0.0032958984375
-0.008819580078125
-0.0018310546875
0.005157470703125
-0.000732421875
0.009552001953125
0.002197265625
0.0025634765625
-0.000732421875
0.003662109375
0.0003662109375
0.0032958984375
0.0054931640625
-0.00146484375
0.006256103515625
-0.005859375
0.001861572265625
-0.000732421875
0.0032958984375
0.0018310546875
0.006591796875
-0.0029296875
0.0025634765625
0.0
0.002197265625
-0.0025634765625
0.005859375
-0.005889892578125
0.00439453125
-0.001129150390625
-0.0010986328125
0.013946533203125
-0.042510986328125
0.067779541015625
0.00146484375
-0.008056640625
0.045074462890625
-0.070709228515625
0.0040283203125
-0.0047607421875
0.0
0.0025634765625
-0.0029296875
0.00146484375
0.000732421875
0.0003662109375
0.0029296875
-0.006256103515625
0.0029296875
-0.0087890625
0.00146484375
-0.0054931640625
-0.0047607421875
0.00439453125
-0.0120849609375
0.010650634765625
-0.0106201171875
0.013580322265625
-0.0029296875
0.0091552734375
-0.0025634765625
-0.0003662109375
-0.0010986328125
-0.003662109375
-0.002960205078125
-0.00439453125
-0.004425048828125
0.0003662109375
-0.00146484375
0.00439453125
-0.0010986328125
0.0032958984375
-0.002197265625
-0.0025634765625
0.008819580078125
-0.033355712890625
-0.027099609375
0.00732421875
-0.030426025390625
0.036651611328125
0.0142822265625
-0.0091552734375
0.0029296875
-0.009521484375
-0.00732421875
0.0003662109375
-0.0040283203125
0.0003662109375
-0.0010986328125
-0.0032958984375
-0.0010986328125
-0.012481689453125
-0.005126953125
-0.019073486328125
-0.00146484375
-0.0106201171875
-0.000732421875
0.0069580078125
-0.008056640625
0.01611328125
-0.0069580078125
0.0062255859375
-0.003662109375
0.0018310546875
-0.0047607421875
0.005889892578125
-0.0018310546875
0.002227783203125
0.003662109375
-0.004058837890625
0.0010986328125
-0.002593994140625
-0.002197265625
0.003326416015625
-0.00146484375
0.002593994140625
0.0003662109375
-0.001495361328125
-0.002197265625
-0.001129150390625
-0.0040283203125
0.003692626953125
0.0029296875
-0.0087890625
-0.003662109375
-0.023468017578125
-0.01904296875
0.020538330078125
0.005859375
0.01904296875
0.0157470703125
-0.011749267578125
-0.0018310546875
0.003326416015625
0.00439453125
-0.0029296875
0.003662109375
-0.002227783203125
0.0018310546875
-0.0025634765625
0.0087890625
-0.013916015625
0.0069580078125
-0.01318359375
-0.0025634765625
-0.0040283203125
-0.0087890625
0.0120849609375
-0.005859375
0.0142822265625
-0.0029296875
0.0040283203125
-0.0010986328125
0.0018310546875
0.0003662109375
0.0
-0.0047607421875
-0.0003662109375
0.0003662109375
-0.0032958984375
0.005859375
-0.0032958984375
0.0029296875
0.002197265625
0.016845703125
-0.027099609375
-0.0260009765625
0.017242431640625
-0.0267333984375
0.039947509765625
0.0267333984375
-0.016143798828125
0.01171875
-0.006591796875
-0.002197265625
0.003692626953125
-0.0025634765625
-0.001129150390625
0.0003662109375
-0.001861572265625
0.00732421875
-0.006591796875
0.008056640625
-0.015380859375
0.003662109375
-0.0084228515625
-0.0018310546875
0.0087890625
-0.005126953125
0.018707275390625
0.0029296875
0.00732421875
0.000732421875
-0.0010986328125
-0.00732421875
0.004791259765625
-0.002197265625
0.0018310546875
0.003662109375
0.00146484375
0.0029296875
0.0054931640625
0.0069580078125
-0.0025634765625
0.005859375
-0.0062255859375
-0.0010986328125
0.0
0.00146484375
0.000732421875
0.000732421875
0.003662109375
-0.0010986328125
0.0069580078125
0.0
0.0018310546875
0.0069580078125
-0.0062255859375
0.015380859375
-0.017974853515625
-0.041748046875
0.063720703125
-0.012451171875
0.020538330078125
0.043212890625
-0.0662841796875
0.0076904296875
-0.0113525390625
0.005859375
-0.001861572265625
0.00732421875
-0.001129150390625
0.00439453125
-0.0029296875
0.003662109375
-0.008056640625
0.00732421875
-0.01318359375
0.006591796875
-0.008056640625
0.0018310546875
0.00146484375
0.001495361328125
0.0032958984375
0.0
0.00439453125
-0.002593994140625
0.0054931640625
0.002227783203125
0.003662109375
0.005523681640625
-0.000732421875
0.0047607421875
-0.002197265625
0.00732421875
-0.0010986328125
0.005126953125
-0.0040283203125
0.0025634765625
-0.003662109375
0.00439453125
-0.0018310546875
0.002197265625
0.0010986328125
-0.0003662109375
0.006591796875
0.0025634765625
-0.0062255859375
-0.0025634765625
-0.0047607421875
-0.01318359375
0.020172119140625
0.010986328125
-0.0029296875
0.016845703125
-0.012481689453125
-0.005126953125
0.0029296875
-0.00439453125
-0.00146484375
0.000732421875
0.00146484375
0.0047607421875
-0.003662109375
0.0087890625
-0.0135498046875
0.0025634765625
-0.01318359375
-0.010986328125
0.0025634765625
-0.016845703125
0.0186767578125
-0.0106201171875
0.0142822265625
0.0010986328125
0.0003662109375
0.0
-0.0040283203125
-0.003662109375
-0.00146484375
-0.0032958984375
0.0010986328125
-0.006256103515625
0.00439453125
-0.004425048828125
0.002197265625
0.000762939453125
-0.0054931640625
0.0003662109375
0.0
0.0076904296875
-0.021240234375
-0.0113525390625
-0.0146484375
-0.030792236328125
0.0340576171875
0.0
0.010986328125
0.01025390625
-0.0069580078125
-0.000732421875
0.0054931640625
0.0018310546875
-0.0040283203125
0.0010986328125
-0.01171875
-0.0018310546875
-0.010986328125
-0.000732421875
-0.0084228515625
0.0018310546875
-0.00732421875
-0.0018310546875
0.0010986328125
-0.00732421875
0.01025390625
-0.006591796875
0.0106201171875
-0.0032958984375
0.0018310546875
-0.0029296875
0.000732421875
-0.0040283203125
-0.0025634765625
0.0010986328125
-0.005859375
0.00439453125
-0.000732421875
0.0029296875
0.0010986328125
0.0032958984375
0.0018310546875
0.0010986328125
-0.0010986328125
-0.0040283203125
0.0032958984375
-0.00439453125
0.005126953125
-0.0018310546875
0.0025634765625
0.003662109375
-0.00439453125
-0.040283203125
0.052398681640625
-0.0054931640625
0.0128173828125
0.0439453125
-0.053863525390625
0.0025634765625
-0.0047607421875
-0.003662109375
0.005859375
-0.0018310546875
0.0
0.0025634765625
-0.0062255859375
0.0087890625
-0.0087890625
0.0084228515625
-0.01318359375
0.0
-0.0069580078125
-0.012451171875
0.0106201171875
-0.0106201171875
0.0201416015625
-0.000732421875
0.0157470703125
0.0029296875
0.007720947265625
0.0084228515625
-0.0032958984375
0.0047607421875
-0.008819580078125
0.0003662109375
-0.0010986328125
0.0128173828125
-0.018310546875
-0.0369873046875
0.059356689453125
-0.015380859375
0.039581298828125
0.0457763671875
-0.056427001953125
0.0128173828125
-0.015045166015625
0.0
0.004425048828125
0.0
0.005889892578125
0.0018310546875
0.0018310546875
0.010284423828125
-0.017608642578125
0.017242431640625
-0.023834228515625
0.0098876953125
-0.006591796875
-0.003662109375
0.01171875
-0.008056640625
0.0205078125
-0.0032958984375
0.00732421875
-0.000732421875
-0.000732421875
0.0076904296875
0.000732421875
0.0150146484375
-0.002197265625
0.0047607421875
-0.0010986328125
-0.0018310546875
-0.003662109375
-0.000732421875
-0.0069580078125
-0.0040283203125
0.000732421875
-0.0040283203125
0.0040283203125
-0.00146484375
0.0047607421875
-0.002197265625
-0.000732421875
-0.00439453125
-0.005126953125
-0.0029296875
-0.0018310546875
-0.0032958984375
0.0
-0.005859375
0.007720947265625
-0.043975830078125
0.063751220703125
-0.000732421875
-0.001495361328125
0.044708251953125
-0.064483642578125
0.005859375
-0.0062255859375
0.000732421875
-0.0029296875
-0.005126953125
-0.0047607421875
-0.00439453125
-0.0025634765625
0.0040283203125
-0.005126953125
0.01025390625
-0.008056640625
0.0084228515625
-0.0106201171875
-0.00146484375
-0.0062255859375
-0.01025390625
0.0113525390625
-0.009521484375
0.0146484375
-0.0029296875
0.006591796875
0.0025634765625
0.0003662109375
0.0040283203125
-0.0106201171875
0.0
-0.005859375
-0.00146484375
0.005859375
-0.0010986328125
0.0047607421875
-0.0018310546875
0.0010986328125
-0.0003662109375
-0.0018310546875
0.0018310546875
-0.0047607421875
0.0
-0.00146484375
0.0
-0.005126953125
-0.003326416015625
-0.0201416015625
-0.022369384765625
0.026397705078125
-0.0010986328125
0.0216064453125
0.0135498046875
-0.016143798828125
-0.0025634765625
0.0047607421875
0.002197265625
0.0025634765625
0.002197265625
-0.0025634765625
0.0029296875
-0.00146484375
0.007354736328125
-0.01904296875
0.005157470703125
-0.02197265625
-0.00146484375
0.0003662109375
-0.004425048828125
0.0135498046875
-0.005157470703125
0.0150146484375
-0.003662109375
0.005126953125
-0.0018310546875
-0.0003662109375
-0.0018310546875
-0.0010986328125
0.0
0.0018310546875
0.008819580078125
-0.006591796875
-0.0384521484375
0.057159423828125
-0.009552001953125
0.015380859375
0.041015625
-0.054962158203125
0.00439453125
-0.0032958984375
-0.0018310546875
0.005126953125
0.0010986328125
0.0029296875
0.009552001953125
-0.00732421875
0.011016845703125
-0.0238037109375
0.005859375
-0.0234375
0.0003662109375
-0.002197265625
-0.0113525390625
0.02197265625
-0.011749267578125
0.0252685546875
0.00146484375
0.0087890625
0.001861572265625
-0.005859375
-0.00146484375
-0.0069580078125
-0.001129150390625
-0.000732421875
0.0018310546875
0.000732421875
0.001495361328125
0.00732421875
0.0003662109375
0.002197265625
0.0032958984375
-0.003662109375
0.0
0.0010986328125
-0.006256103515625
0.0076904296875
-0.043609619140625
0.058624267578125
-0.0010986328125
0.00146484375
0.0380859375
-0.054962158203125
0.003692626953125
-0.002197265625
0.005157470703125
0.006591796875
0.0032958984375
0.0018310546875
0.0029296875
-0.0069580078125
0.0032958984375
-0.008056640625
0.0040283203125
-0.0087890625
-0.0003662109375
-0.0029296875
-0.0029296875
0.0113525390625
-0.005859375
0.019073486328125
-0.007354736328125
0.014678955078125
-0.003692626953125
0.0047607421875
-0.00146484375
-0.0025634765625
0.00146484375
-0.0010986328125
0.004058837890625
0.0
0.007354736328125
0.0003662109375
0.00439453125
0.0032958984375
-0.0003662109375
-0.00146484375
-0.0025634765625
-0.0010986328125
0.0010986328125
-0.0025634765625
0.00146484375
0.0047607421875
-0.045074462890625
0.078369140625
0.0032958984375
-0.003662109375
0.048004150390625
-0.0714111328125
0.0003662109375
-0.002197265625
0.0
-0.005859375
0.00439453125
-0.005126953125
0.005859375
-0.005126953125
0.00439453125
-0.005523681640625
0.00732421875
-0.006988525390625
0.0025634765625
-0.006591796875
-0.005126953125
0.0010986328125
-0.0018310546875
0.0062255859375
-0.0010986328125
0.007720947265625
0.003662109375
0.0003662109375
0.003662109375
-0.008819580078125
-0.002197265625
-0.0025634765625
-0.0025634765625
0.00146484375
-0.00146484375
0.0029296875
0.0003662109375
0.007354736328125
0.0
-0.0025634765625
-0.00439453125
-0.005889892578125
0.0040283203125
-0.0234375
-0.022735595703125
0.015411376953125
-0.026397705078125
0.046539306640625
0.014312744140625
-0.009521484375
0.011016845703125
-0.0179443359375
-0.0003662109375
0.0
-0.00439453125
0.0025634765625
-0.006256103515625
0.0040283203125
-0.008087158203125
-0.0018310546875
-0.00439453125
-0.009918212890625
0.0010986328125
-0.008819580078125
-0.00439453125
-0.0040283203125
-0.01025390625
0.009918212890625
-0.0120849609375
0.011016845703125
-0.0084228515625
0.0032958984375
-0.0025634765625
-0.0003662109375
0.0025634765625
-0.007720947265625
0.0025634765625
-0.0032958984375
-0.005859375
0.005523681640625
-0.0062255859375
0.005126953125
-0.0010986328125
0.00146484375
0.0
-0.0010986328125
0.0018310546875
-0.0040283203125
0.0010986328125
-0.007354736328125
-0.008056640625
0.0025634765625
-0.0391845703125
0.046173095703125
0.0029296875
0.0018310546875
0.0362548828125
-0.0428466796875
0.002197265625
-0.006622314453125
-0.002197265625
-0.000762939453125
-0.0040283203125
0.002593994140625
0.0003662109375
-0.0003662109375
0.009521484375
-0.009918212890625
0.01025390625
-0.0150146484375
-0.0018310546875
-0.008056640625
-0.012451171875
0.01171875
-0.0106201171875
0.019073486328125
-0.0040283203125
0.007720947265625
-0.0025634765625
0.000732421875
0.0029296875
0.000732421875
0.0029296875
0.0029296875
0.00146484375
-0.00146484375
0.0025634765625
-0.005126953125
-0.0010986328125
0.000732421875
-0.000732421875
0.005126953125
0.0047607421875
0.002197265625
0.005126953125
-0.008453369140625
-0.0047607421875
-0.012115478515625
-0.0245361328125
0.023834228515625
0.0010986328125
0.012115478515625
0.0194091796875
-0.01318359375
0.0025634765625
-0.00146484375
0.00439453125
-0.0040283203125
0.0025634765625
0.0003662109375
0.0018310546875
-0.00439453125
0.00146484375
-0.013580322265625
-0.0003662109375
-0.009185791015625
-0.000732421875
0.002197265625
-0.0010986328125
0.011749267578125
-0.0032958984375
0.013214111328125
-0.005859375
0.0040283203125
-0.0018310546875
-0.003662109375
0.0029296875
-0.003662109375
0.0018310546875
0.0010986328125
0.002197265625
0.0029296875
0.01318359375
-0.023834228515625
-0.017578125
0.0069580078125
-0.0303955078125
0.047637939453125
0.0120849609375
0.0025634765625
0.0135498046875
-0.01171875
0.0018310546875
-0.0010986328125
0.002197265625
-0.0040283203125
-0.000732421875
-0.00146484375
0.00146484375
-0.00439453125
0.0087890625
-0.014678955078125
0.0076904296875
-0.013580322265625
-0.006591796875
0.006256103515625
-0.0135498046875
0.023468017578125
-0.005126953125
0.0157470703125
-0.000732421875
0.006591796875
0.000732421875
-0.0010986328125
0.0010986328125
-0.0084228515625
0.002197265625
-0.0032958984375
0.00439453125
0.0018310546875
0.002197265625
0.0054931640625
0.005859375
-0.013916015625
-0.0087890625
-0.0128173828125
-0.02197265625
0.0322265625
0.006591796875
0.0135498046875
0.0150146484375
-0.01318359375
-0.000732421875
-0.0010986328125
-0.0025634765625
0.0018310546875
0.0018310546875
0.0029296875
0.0069580078125
-0.0062255859375
0.0076904296875
-0.0135498046875
0.0025634765625
-0.0128173828125
-0.0054931640625
0.0025634765625
-0.009521484375
0.0186767578125
-0.005126953125
0.0142822265625
0.002197265625
0.002197265625
0.0003662109375
-0.005126953125
-0.002197265625
-0.006591796875
-0.000732421875
-0.0010986328125
0.0032958984375
0.0047607421875
0.0025634765625
0.0069580078125
-0.002197265625
0.0032958984375
-0.00146484375
-0.0010986328125
-0.0032958984375
0.0003662109375
-0.0025634765625
0.0010986328125
0.01171875
-0.0252685546875
-0.040283203125
0.05126953125
-0.021240234375
0.03515625
0.0399169921875
-0.0472412109375
0.00732421875
-0.005859375
-0.00439453125
0.0
-0.0025634765625
-0.0010986328125
0.0003662109375
-0.002197265625
0.006591796875
-0.005859375
0.0091552734375
-0.012451171875
0.005126953125
-0.0084228515625
-0.0047607421875
0.005859375
-0.0087890625
0.009521484375
-0.0025634765625
0.005859375
0.0
0.0018310546875
-0.0003662109375
0.0
-0.0010986328125
0.0018310546875
0.003662109375
-0.0025634765625
0.00439453125
-0.005126953125
0.003662109375
-0.0003662109375
0.0003662109375
0.002197265625
-0.005126953125
0.0040283203125
0.0003662109375
0.00146484375
0.003662109375
0.0018310546875
0.0135498046875
-0.0157470703125
-0.041015625
0.0615234375
-0.019775390625
0.0296630859375
0.040283203125
-0.06005859375
0.0062255859375
-0.00439453125
0.00146484375
0.005126953125
0.0018310546875
-0.00146484375
-0.00146484375
-0.000732421875
0.0018310546875
-0.0032958984375
0.00439453125
-0.008056640625
-0.000732421875
-0.008056640625
-0.003662109375
-0.00146484375
-0.0076904296875
0.0157470703125
-0.0047607421875
0.0157470703125
0.000732421875
0.00732421875
0.0003662109375
0.00146484375
0.002197265625
-0.005126953125
0.002197265625
-0.000732421875
0.0047607421875
0.0047607421875
0.0054931640625
0.0047607421875
0.00439453125
0.0
-0.000732421875
0.0010986328125
-0.0025634765625
-0.0010986328125
0.013916015625
-0.0274658203125
-0.029296875
0.046875
-0.0179443359375
0.0347900390625
0.03515625
-0.0439453125
0.010986328125
-0.01171875
-0.0032958984375
0.000732421875
-0.00146484375
0.0032958984375
0.0032958984375
-0.0040283203125
0.0018310546875
-0.00439453125
0.003662109375
-0.0084228515625
0.0040283203125
-0.0087890625
-0.000732421875
0.002197265625
-0.0076904296875
0.0098876953125
-0.0029296875
0.00732421875
0.0032958984375
-0.0003662109375
0.0029296875
-0.00146484375
0.0032958984375
0.003662109375
0.0
0.003662109375
0.0003662109375
-0.0076904296875
0.0003662109375
-0.0076904296875
0.0003662109375
0.0025634765625
-0.00146484375
0.0084228515625
-0.003662109375
0.0084228515625
-0.0029296875
0.002197265625
-0.0069580078125
0.0029296875
-0.0322265625
0.03515625
0.0040283203125
-0.0040283203125
0.0318603515625
-0.0369873046875
-0.0032958984375
0.0
-0.0040283203125
-0.000732421875
-0.00146484375
-0.002197265625
-0.002197265625
-0.0040283203125
0.0018310546875
-0.008056640625
0.0018310546875
-0.008056640625
0.0
-0.0084228515625
-0.00439453125
0.0018310546875
-0.0062255859375
0.0113525390625
-0.0054931640625
0.0098876953125
-0.005126953125
0.002197265625
0.000732421875
-0.0029296875
0.00146484375
-0.005859375
-0.005126953125
-0.00146484375
-0.005859375
0.0087890625
-0.0032958984375
0.0029296875
-0.002197265625
-0.00146484375
0.003662109375
-0.00439453125
0.002197265625
-0.0029296875
-0.0018310546875
-0.0010986328125
-0.0040283203125
0.000732421875
0.00732421875
-0.0164794921875
-0.0384521484375
0.050537109375
-0.0172119140625
0.029296875
0.0443115234375
-0.0556640625
0.0091552734375
-0.01171875
-0.0040283203125
0.0029296875
-0.0010986328125
0.0010986328125
0.0
-0.0010986328125
0.0076904296875
-0.0157470703125
0.01171875
-0.0186767578125
0.00439453125
-0.0084228515625
-0.005859375
0.000732421875
-0.0091552734375
0.01318359375
-0.002197265625
0.009521484375
-0.000732421875
0.002197265625
0.0003662109375
0.0018310546875
-0.000732421875
-0.0029296875
-0.0040283203125
-0.0010986328125
-0.0040283203125
0.0029296875
0.0
0.0032958984375
0.0029296875
0.0047607421875
0.0018310546875
0.0010986328125
0.0010986328125
-0.002197265625
-0.0032958984375
-0.00146484375
-0.0032958984375
-0.0018310546875
-0.002197265625
-0.0047607421875
-0.0296630859375
0.032958984375
0.000732421875
0.0076904296875
0.0303955078125
-0.030029296875
0.0
-0.002197265625
-0.0047607421875
-0.0010986328125
-0.003662109375
0.002197265625
0.0
0.0029296875
0.006591796875
-0.0087890625
0.00732421875
-0.0164794921875
0.000732421875
-0.009521484375
-0.0069580078125
0.0054931640625
-0.0113525390625
0.0194091796875
-0.0040283203125
0.0113525390625
0.0
-0.0010986328125
0.0
-0.0029296875
0.0010986328125
-0.0025634765625
-0.0003662109375
0.0
-0.0010986328125
0.0018310546875
0.0003662109375
0.0018310546875
0.00146484375
-0.00146484375
-0.005859375
-0.000732421875
-0.0223388671875
0.0238037109375
0.0040283203125
0.003662109375
0.019775390625
-0.0186767578125
-0.0003662109375
-0.000732421875
0.000732421875
0.0010986328125
0.000732421875
-0.0010986328125
0.0040283203125
-0.0084228515625
0.0069580078125
-0.0098876953125
0.0032958984375
-0.008056640625
-0.0018310546875
-0.0025634765625
-0.0054931640625
0.009521484375
-0.003662109375
0.01025390625
-0.0025634765625
0.0076904296875
0.0
0.0069580078125
0.005126953125
-0.0047607421875
0.005126953125
-0.00732421875
0.0018310546875
-0.0029296875
-0.0010986328125
0.000732421875
0.0003662109375
0.0040283203125
0.00146484375
0.0025634765625
0.0018310546875
0.0003662109375
-0.0003662109375
-0.006591796875
-0.00732421875
-0.01318359375
-0.0172119140625
0.0223388671875
0.005859375
0.01318359375
0.0164794921875
-0.0135498046875
-0.0010986328125
0.0047607421875
-0.0003662109375
0.002197265625
-0.000732421875
-0.0040283203125
0.00439453125
-0.0091552734375
0.005859375
-0.0091552734375
0.0
-0.0029296875
0.0
0.000732421875
-0.00146484375
0.003662109375
-0.00439453125
0.0084228515625
-0.0054931640625
0.008056640625
-0.00439453125
0.010986328125
0.0010986328125
0.0010986328125
0.00439453125
-0.009521484375
0.00439453125
-0.0003662109375
-0.000732421875
0.006591796875
0.012451171875
-0.0238037109375
-0.0322265625
0.04248046875
-0.0245361328125
0.0406494140625
0.0322265625
-0.038818359375
0.01025390625
-0.0047607421875
-0.000732421875
0.005126953125
-0.0029296875
0.0
0.002197265625
-0.00439453125
0.005859375
-0.008056640625
0.003662109375
-0.0087890625
0.00146484375
-0.0047607421875
-0.0018310546875
0.0084228515625
-0.005126953125
0.010986328125
-0.0010986328125
0.0032958984375
0.0010986328125
0.002197265625
-0.002197265625
0.0029296875
0.0025634765625
0.0
0.005859375
-0.0054931640625
0.0025634765625
-0.002197265625
-0.000732421875
0.0054931640625
-0.0025634765625
0.00439453125
0.0
-0.0010986328125
-0.00732421875
0.012451171875
-0.0194091796875
0.0245361328125
0.0113525390625
-0.012451171875
0.019775390625
-0.0245361328125
-0.002197265625
-0.000732421875
0.0018310546875
0.00146484375
0.003662109375
-0.00146484375
0.0069580078125
-0.0076904296875
0.005126953125
-0.0087890625
-0.000732421875
-0.00439453125
-0.0047607421875
0.00439453125
-0.0040283203125
0.005859375
-0.0003662109375
0.00146484375
-0.0032958984375
0.003662109375
-0.003662109375
0.005126953125
-0.000732421875
0.006591796875
0.0018310546875
-0.00439453125
0.0018310546875
-0.00732421875
-0.00146484375
0.002197265625
-0.005859375
0.008056640625
-0.0062255859375
0.0106201171875
-0.0029296875
-0.0018310546875
-0.00439453125
-0.00439453125
-0.00146484375
0.0
0.00146484375
-0.0003662109375
-0.00146484375
0.0010986328125
-0.00146484375
-0.0010986328125
-0.0003662109375
-0.002197265625
-0.00146484375
0.0003662109375
-0.0029296875
0.0018310546875
-0.0029296875
0.0010986328125
-0.00439453125
-0.0010986328125
-0.002197265625
-0.0047607421875
0.0003662109375
-0.0025634765625
0.000732421875
0.0
-0.0032958984375
0.0010986328125
-0.0457763671875
0.0556640625
-0.002197265625
0.000732421875
0.0384521484375
-0.052734375
-0.000732421875
0.0010986328125
0.0
0.0032958984375
-0.0003662109375
-0.002197265625
0.0003662109375
-0.005126953125
0.005126953125
-0.005859375
0.00732421875
-0.0098876953125
0.0
-0.0098876953125
-0.0029296875
-0.005126953125
-0.0047607421875
0.0087890625
-0.0062255859375
0.013916015625
-0.002197265625
0.00439453125
-0.00146484375
-0.0047607421875
-0.0018310546875
-0.002197265625
-0.0029296875
0.00146484375
-0.0003662109375
0.003662109375
-0.0018310546875
0.00439453125
-0.0018310546875
0.0029296875
0.0025634765625
0.000732421875
0.01318359375
-0.03076171875
-0.0146484375
-0.0062255859375
-0.025634765625
0.041015625
0.0135498046875
0.006591796875
0.0142822265625
-0.009521484375
0.0040283203125
0.0003662109375
-0.0003662109375
-0.0032958984375
-0.00146484375
-0.00732421875
0.0
-0.0025634765625
0.002197265625
-0.0029296875
0.008056640625
-0.0091552734375
0.00146484375
-0.0029296875
-0.0062255859375
0.006591796875
-0.0091552734375
0.01611328125
-0.005126953125
0.01171875
0.00146484375
-0.0010986328125
0.000732421875
-0.005126953125
0.00146484375
-0.003662109375
-0.0003662109375
0.0029296875
-0.00439453125
0.005859375
-0.00439453125
0.0032958984375
-0.0010986328125
0.0
0.000732421875
-0.00146484375
0.0172119140625
-0.0289306640625
-0.0281982421875
0.028564453125
-0.02783203125
0.04248046875
0.029296875
-0.028564453125
0.01171875
-0.0113525390625
0.0010986328125
0.0025634765625
0.0010986328125
-0.0010986328125
0.0025634765625
-0.0010986328125
0.0047607421875
-0.0047607421875
0.0025634765625
-0.0120849609375
0.0018310546875
-0.01025390625
-0.002197265625
0.0003662109375
-0.00732421875
0.0157470703125
-0.006591796875
0.0179443359375
-0.00146484375
0.00732421875
0.0010986328125
0.0003662109375
0.002197265625
-0.003662109375
0.0029296875
-0.002197265625
0.000732421875
0.0
0.00146484375
0.00146484375
0.0029296875
0.0032958984375
-0.0018310546875
0.0201416015625
-0.0439453125
0.0692138671875
0.0054931640625
-0.0157470703125
0.0479736328125
-0.0692138671875
0.003662109375
-0.003662109375
0.0025634765625
-0.00146484375
-0.0003662109375
0.0029296875
0.0010986328125
0.0
0.0040283203125
-0.01171875
0.005859375
-0.013916015625
0.0032958984375
-0.005859375
-0.002197265625
0.00732421875
-0.0029296875
0.0135498046875
-0.000732421875
0.0018310546875
-0.0025634765625
0.0010986328125
-0.00439453125
0.0062255859375
0.0010986328125
-0.00146484375
0.005859375
-0.003662109375
0.0062255859375
-0.00439453125
-0.0076904296875
0.02490234375
-0.0384521484375
0.04833984375
0.0047607421875
-0.0205078125
0.0347900390625
-0.0421142578125
0.0025634765625
-0.00146484375
0.000732421875
-0.000732421875
0.0010986328125
0.0
-0.0003662109375
-0.0010986328125
-0.000732421875
-0.0054931640625
0.0032958984375
-0.0113525390625
-0.000732421875
-0.0062255859375
-0.0091552734375
0.0087890625
-0.01025390625
0.0135498046875
-0.0084228515625
0.0128173828125
-0.006591796875
0.0069580078125
-0.0003662109375
-0.0029296875
0.003662109375
-0.008056640625
0.00146484375
-0.006591796875
0.000732421875
0.0003662109375
0.000732421875
0.003662109375
-0.002197265625
0.00439453125
-0.0032958984375
-0.002197265625
-0.0025634765625
-0.003662109375
-0.0032958984375
-0.0018310546875
-0.0062255859375
-0.0047607421875
-0.018310546875
0.0230712890625
0.0029296875
0.0047607421875
0.0157470703125
-0.0205078125
0.000732421875
-0.0032958984375
0.000732421875
-0.0010986328125
-0.000732421875
0.000732421875
0.005126953125
-0.010986328125
0.005859375
-0.0150146484375
0.0010986328125
-0.0084228515625
-0.00146484375
0.0029296875
-0.0040283203125
0.0128173828125
-0.005126953125
0.00732421875
-0.0032958984375
-0.0018310546875
0.0
-0.0029296875
-0.0010986328125
0.00146484375
-0.0010986328125
0.00146484375
0.0032958984375
-0.000732421875
0.002197265625
-0.000732421875
0.0
0.0
-0.0025634765625
0.0047607421875
-0.0029296875
0.0062255859375
0.0113525390625
-0.0281982421875
-0.0128173828125
-0.0084228515625
-0.025634765625
0.038818359375
0.0120849609375
0.006591796875
0.0142822265625
-0.0087890625
0.0
0.0
0.0003662109375
-0.0047607421875
0.002197265625
-0.00439453125
0.003662109375
-0.0025634765625
0.005126953125
-0.0084228515625
0.0040283203125
-0.0113525390625
-0.0003662109375
-0.0018310546875
-0.0029296875
0.0069580078125
-0.002197265625
0.01171875
-0.002197265625
0.0087890625
-0.000732421875
0.0003662109375
-0.0018310546875
-0.0047607421875
0.0003662109375
-0.005126953125
0.00146484375
0.0029296875
-0.0010986328125
0.008056640625
0.0018310546875
0.003662109375
0.0
0.000732421875
0.000732421875
-0.002197265625
0.0018310546875
-0.000732421875
0.01171875
-0.0150146484375
-0.0421142578125
0.0589599609375
-0.019775390625
0.0289306640625
0.046142578125
-0.0618896484375
0.01025390625
-0.012451171875
-0.002197265625
0.005859375
-0.00439453125
0.00439453125
-0.0029296875
0.00146484375
0.002197265625
-0.00439453125
0.0076904296875
-0.0128173828125
0.002197265625
-0.0084228515625
-0.009521484375
0.005126953125
-0.0091552734375
0.0146484375
-0.0040283203125
0.012451171875
0.000732421875
0.003662109375
0.0018310546875
0.002197265625
0.000732421875
-0.0029296875
-0.00146484375
0.0
-0.0003662109375
0.0032958984375
0.00146484375
0.0018310546875
0.00146484375
0.00439453125
0.0025634765625
0.00146484375
-0.0029296875
0.01171875
-0.03515625
0.0443115234375
0.00439453125
-0.0146484375
0.0362548828125
-0.04541015625
0.0003662109375
0.005126953125
0.002197265625
0.002197265625
0.0025634765625
0.0
0.0029296875
-0.008056640625
0.005859375
-0.012451171875
0.0069580078125
-0.01025390625
0.005859375
-0.008056640625
-0.0029296875
0.0054931640625
-0.0029296875
0.010986328125
-0.0003662109375
0.0054931640625
-0.0054931640625
0.0054931640625
-0.00439453125
0.00146484375
0.0
-0.0040283203125
0.005859375
-0.00439453125
0.00439453125
-0.0010986328125
0.000732421875
0.00439453125
-0.0010986328125
0.0010986328125
-0.003662109375
0.0084228515625
-0.0413818359375
0.0648193359375
0.000732421875
-0.0054931640625
0.0439453125
-0.0648193359375
0.0010986328125
-0.0062255859375
-0.002197265625
-0.0010986328125
-0.0010986328125
0.0010986328125
0.0018310546875
0.0
0.0029296875
-0.003662109375
-0.0003662109375
-0.0128173828125
0.00146484375
-0.0128173828125
-0.0054931640625
0.008056640625
-0.01171875
0.01611328125
-0.01025390625
0.006591796875
-0.0098876953125
0.0025634765625
-0.0040283203125
-0.002197265625
0.00146484375
-0.002197265625
0.00146484375
0.000732421875
-0.0040283203125
-0.0003662109375
-0.0076904296875
-0.00146484375
-0.0054931640625
0.0010986328125
-0.000732421875
0.00146484375
0.0003662109375
-0.0029296875
-0.005126953125
0.000732421875
-0.02783203125
0.0238037109375
0.0003662109375
0.00146484375
0.02490234375
-0.0201416015625
0.0003662109375
-0.000732421875
-0.0032958984375
-0.0018310546875
-0.000732421875
-0.005126953125
0.0069580078125
-0.0047607421875
0.0091552734375
-0.0113525390625
0.0047607421875
-0.0142822265625
-0.0032958984375
-0.003662109375
-0.0098876953125
0.01025390625
-0.0076904296875
0.015380859375
0.000732421875
0.0054931640625
0.0032958984375
0.0010986328125
-0.003662109375
0.0
-0.0040283203125
0.000732421875
-0.0003662109375
0.00146484375
-0.0010986328125
0.0010986328125
0.0040283203125
0.0
0.0054931640625
-0.00439453125
0.0157470703125
-0.029296875
-0.0289306640625
0.024169921875
-0.0252685546875
0.041748046875
0.0281982421875
-0.0186767578125
0.010986328125
-0.0098876953125
0.0018310546875
-0.0010986328125
0.000732421875
-0.00146484375
0.0018310546875
-0.0025634765625
0.006591796875
-0.0084228515625
0.00732421875
-0.01611328125
0.002197265625
-0.0098876953125
-0.0025634765625
0.008056640625
-0.0029296875
0.0142822265625
-0.002197265625
0.009521484375
-0.0040283203125
0.0076904296875
-0.00146484375
0.0032958984375
0.0018310546875
-0.0018310546875
0.000732421875
-0.0032958984375
0.0025634765625
-0.0010986328125
0.00146484375
0.0018310546875
-0.00146484375
0.00146484375
0.005126953125
-0.0113525390625
-0.006591796875
-0.010986328125
-0.0234375
0.029296875
0.0040283203125
0.0164794921875
0.0194091796875
-0.0120849609375
0.0025634765625
0.0018310546875
0.0010986328125
-0.000732421875
0.0010986328125
-0.0018310546875
-0.0003662109375
-0.00146484375
0.0087890625
-0.0128173828125
0.009521484375
-0.0157470703125
-0.0010986328125
0.0010986328125
-0.0098876953125
0.017578125
-0.0069580078125
0.0146484375
-0.00146484375
0.006591796875
0.0025634765625
-0.000732421875
0.0040283203125
-0.00146484375
0.0010986328125
0.002197265625
0.0025634765625
0.00146484375
0.005859375
-0.0029296875
0.0032958984375
-0.0018310546875
-0.00439453125
0.0047607421875
-0.002197265625
0.003662109375
0.000732421875
0.000732421875
0.00146484375
-0.0018310546875
0.0025634765625
0.0
0.0018310546875
0.000732421875
0.0
0.0
-0.000732421875
-0.002197265625
0.0018310546875
-0.0025634765625
0.0018310546875
-0.0010986328125
-0.0047607421875
0.010986328125
-0.032958984375
0.041748046875
-0.0003662109375
-0.0087890625
0.0281982421875
-0.03955078125
-0.000732421875
-0.0003662109375
-0.00146484375
0.002197265625
0.0018310546875
-0.0029296875
0.003662109375
-0.0029296875
0.000732421875
0.0
-0.0029296875
-0.0054931640625
0.0003662109375
-0.0106201171875
0.000732421875
-0.005859375
-0.00146484375
0.00732421875
0.0
0.006591796875
-0.0018310546875
0.0029296875
-0.003662109375
0.0010986328125
-0.0032958984375
-0.002197265625
0.0029296875
-0.0025634765625
0.00439453125
-0.0010986328125
0.0003662109375
0.00439453125
-0.002197265625
0.0025634765625
-0.0029296875
0.0
-0.000732421875
0.000732421875
0.0025634765625
-0.0040283203125
-0.0047607421875
0.0128173828125
-0.0263671875
0.029296875
0.005126953125
-0.0142822265625
0.0238037109375
-0.029296875
-0.0003662109375
-0.0018310546875
-0.0018310546875
0.000732421875
-0.00146484375
0.00146484375
-0.002197265625
0.00146484375
0.000732421875
-0.0098876953125
0.00146484375
-0.013916015625
-0.005126953125
-0.0047607421875
-0.009521484375
0.0098876953125
-0.0069580078125
0.0150146484375
0.0025634765625
0.0
0.00146484375
-0.0040283203125
-0.0025634765625
0.0003662109375
-0.0040283203125
-0.0018310546875
-0.0047607421875
-0.0018310546875
-0.0003662109375
0.0
0.0032958984375
-0.00146484375
0.0010986328125
-0.00146484375
-0.005126953125
-0.000732421875
-0.005126953125
-0.0010986328125
-0.00732421875
0.000732421875
-0.02197265625
0.0234375
0.0098876953125
0.0029296875
0.0274658203125
-0.0230712890625
-0.0018310546875
-0.0010986328125
-0.0054931640625
0.003662109375
-0.003662109375
-0.0003662109375
0.0003662109375
-0.008056640625
0.01025390625
-0.01611328125
0.0076904296875
-0.0120849609375
-0.00439453125
0.0
-0.0084228515625
0.0098876953125
-0.0069580078125
0.008056640625
-0.0047607421875
0.0032958984375
-0.0040283203125
0.0062255859375
0.00146484375
0.0054931640625
0.00732421875
-0.00439453125
0.006591796875
-0.006591796875
0.0018310546875
-0.000732421875
-0.003662109375
0.003662109375
-0.005126953125
0.0054931640625
-0.0029296875
0.005126953125
-0.032958984375
0.0413818359375
0.0032958984375
-0.0040283203125
0.0369873046875
-0.0384521484375
0.0
0.0047607421875
-0.0018310546875
-0.000732421875
0.000732421875
-0.003662109375
0.0040283203125
-0.008056640625
0.0069580078125
-0.009521484375
0.0084228515625
-0.01025390625
0.0069580078125
-0.0084228515625
-0.0069580078125
0.0087890625
-0.01171875
0.0179443359375
-0.0018310546875
0.0087890625
0.0029296875
0.002197265625
0.0029296875
0.0018310546875
0.0025634765625
0.000732421875
-0.002197265625
0.0025634765625
-0.003662109375
0.0
0.0010986328125
0.0
0.0025634765625
0.0032958984375
0.0032958984375
0.00439453125
0.0025634765625
0.0032958984375
0.002197265625
-0.003662109375
0.0003662109375
-0.002197265625
-0.0018310546875
0.003662109375
-0.0003662109375
0.0054931640625
0.000732421875
0.0029296875
0.003662109375
-0.0029296875
0.000732421875
-0.00146484375
-0.0516357421875
0.0684814453125
-0.00732421875
0.009521484375
0.044677734375
-0.0596923828125
0.0054931640625
-0.002197265625
0.0032958984375
-0.002197265625
0.0018310546875
-0.0029296875
0.000732421875
-0.002197265625
0.0025634765625
-0.0054931640625
0.005859375
-0.008056640625
0.00439453125
-0.0091552734375
-0.002197265625
0.0018310546875
-0.0054931640625
0.015380859375
-0.003662109375
0.010986328125
-0.0047607421875
0.0076904296875
0.0
0.0040283203125
0.005859375
-0.0062255859375
0.0025634765625
0.0010986328125
-0.00146484375
0.010986328125
-0.0047607421875
0.010986328125
-0.0069580078125
0.01171875
-0.00439453125
0.00439453125
0.010986328125
-0.0201416015625
-0.012451171875
0.012451171875
-0.01904296875
0.0384521484375
0.0201416015625
-0.008056640625
0.0146484375
-0.0106201171875
0.003662109375
0.00146484375
0.005859375
-0.0025634765625
0.006591796875
-0.0010986328125
0.009521484375
-0.00732421875
0.0106201171875
-0.010986328125
0.0087890625
-0.0098876953125
-0.000732421875
-0.0025634765625
-0.006591796875
0.006591796875
-0.00146484375
0.00732421875
0.0010986328125
0.0047607421875
-0.0025634765625
0.0032958984375
-0.00146484375
0.0010986328125
0.0003662109375
-0.003662109375
0.00146484375
-0.0003662109375
0.005859375
0.0018310546875
0.0047607421875
-0.000732421875
0.000732421875
-0.00146484375
-0.0087890625
0.01171875
-0.01611328125
0.0179443359375
0.0128173828125
-0.0150146484375
0.022705078125
-0.0172119140625
0.005859375
0.00146484375
0.003662109375
-0.0047607421875
0.0029296875
-0.0054931640625
0.0076904296875
-0.0040283203125
0.009521484375
-0.005126953125
0.00732421875
-0.0113525390625
-0.0003662109375
-0.0087890625
-0.0084228515625
0.00732421875
-0.0047607421875
0.0106201171875
0.000732421875
0.005126953125
-0.002197265625
0.003662109375
-0.00146484375
-0.00146484375
0.0025634765625
-0.006591796875
0.00439453125
-0.0029296875
0.0010986328125
0.003662109375
0.0003662109375
0.000732421875
0.0032958984375
-0.0069580078125
0.0029296875
-0.0003662109375
-0.0406494140625
0.059326171875
-0.005859375
0.000732421875
0.0406494140625
-0.06005859375
0.0018310546875
-0.00732421875
-0.00146484375
-0.0018310546875
-0.0003662109375
0.0010986328125
0.0
-0.0003662109375
0.002197265625
-0.0076904296875
0.00146484375
-0.0150146484375
-0.0010986328125
-0.0091552734375
-0.00732421875
0.01025390625
-0.0087890625
0.0157470703125
-0.0087890625
0.0084228515625
-0.0087890625
0.000732421875
-0.0018310546875
-0.0047607421875
0.000732421875
-0.002197265625
0.000732421875
0.00146484375
0.0003662109375
-0.00146484375
-0.0025634765625
-0.0032958984375
-0.000732421875
-0.0010986328125
0.003662109375
0.000732421875
0.000732421875
0.002197265625
-0.0029296875
0.0003662109375
-0.0029296875
-0.00146484375
-0.0029296875
-0.002197265625
-0.000732421875
-0.000732421875
-0.0047607421875
0.0098876953125
-0.02490234375
0.0281982421875
0.003662109375
-0.008056640625
0.0234375
-0.0274658203125
0.0018310546875
-0.0003662109375
0.003662109375
-0.000732421875
0.00146484375
0.0003662109375
0.0025634765625
-0.0025634765625
0.005126953125
-0.0087890625
0.0040283203125
-0.010986328125
0.002197265625
-0.009521484375
-0.0062255859375
0.0
-0.010986328125
0.0087890625
-0.005126953125
0.0054931640625
-0.0029296875
0.0
-0.005859375
-0.00146484375
-0.0087890625
-0.003662109375
-0.0062255859375
-0.0040283203125
-0.0025634765625
-0.000732421875
-0.0003662109375
0.0029296875
-0.0010986328125
0.0
-0.006591796875
-0.002197265625
-0.0032958984375
-0.0157470703125
-0.016845703125
-0.016845703125
-0.0296630859375
0.0296630859375
0.0010986328125
0.0201416015625
0.013916015625
-0.0106201171875
-0.002197265625
0.002197265625
-0.0062255859375
0.0010986328125
-0.0054931640625
-0.0018310546875
-0.0040283203125
-0.002197265625
0.0010986328125
-0.008056640625
0.0025634765625
-0.01171875
-0.00439453125
-0.0003662109375
-0.0120849609375
0.012451171875
-0.0120849609375
0.015380859375
-0.005859375
0.0076904296875
-0.003662109375
0.0018310546875
0.0
0.0018310546875
0.0029296875
-0.00439453125
0.0003662109375
-0.000732421875
-0.0047607421875
0.0069580078125
-0.005859375
0.0069580078125
-0.0018310546875
0.0054931640625
0.0150146484375
-0.030029296875
-0.0106201171875
-0.0069580078125
-0.0223388671875
0.03955078125
0.016845703125
0.0054931640625
0.0128173828125
-0.0084228515625
-0.002197265625
0.003662109375
-0.0025634765625
-0.0003662109375
0.0018310546875
-0.00439453125
0.00732421875
-0.00732421875
0.0087890625
-0.013916015625
0.0029296875
-0.0069580078125
-0.005859375
0.005859375
-0.0098876953125
0.013916015625
-0.005859375
0.01171875
0.002197265625
0.00439453125
0.00146484375
0.0032958984375
-0.002197265625
0.003662109375
-0.0003662109375
-0.0010986328125
0.000732421875
-0.00146484375
0.00439453125
-0.0018310546875
0.005859375
-0.002197265625
0.008056640625
-0.0106201171875
-0.0029296875
-0.01318359375
-0.0186767578125
0.0311279296875
0.0062255859375
0.0179443359375
0.0146484375
-0.013916015625
0.0
0.0003662109375
0.0018310546875
-0.00146484375
0.000732421875
-0.0032958984375
0.0018310546875
-0.0054931640625
0.00439453125
-0.0098876953125
-0.0003662109375
-0.0098876953125
-0.006591796875
0.002197265625
-0.0076904296875
0.0164794921875
-0.0032958984375
0.010986328125
-0.002197265625
0.003662109375
-0.002197265625
0.005126953125
0.000732421875
0.00146484375
0.002197265625
-0.00439453125
0.00439453125
-0.005126953125
0.0010986328125
0.0025634765625
0.0
0.0025634765625
0.0018310546875
-0.0018310546875
-0.000732421875
0.0
-0.0029296875
0.003662109375
-0.003662109375
0.0040283203125
0.0
0.00146484375
0.0029296875
-0.00146484375
0.0106201171875
-0.0238037109375
-0.009521484375
-0.0091552734375
-0.0238037109375
0.038818359375
0.01025390625
0.0120849609375
0.0150146484375
-0.01318359375
0.0
0.0
0.0010986328125
-0.000732421875
0.00439453125
-0.000732421875
0.0047607421875
-0.0040283203125
0.0029296875
-0.0091552734375
-0.00146484375
-0.005126953125
-0.002197265625
-0.003662109375
-0.0029296875
0.006591796875
-0.00439453125
0.0150146484375
-0.0010986328125
0.006591796875
-0.002197265625
0.0040283203125
-0.005126953125
0.000732421875
0.0003662109375
-0.0018310546875
0.0062255859375
-0.0029296875
0.0069580078125
-0.000732421875
0.005859375
0.002197265625
0.000732421875
0.002197265625
-0.00146484375
-0.0062255859375
-0.0498046875
0.062255859375
-0.009521484375
0.0172119140625
0.0457763671875
-0.05712890625
0.008056640625
-0.002197265625
0.002197265625
0.00146484375
-0.0029296875
-0.0054931640625
-0.0040283203125
-0.0040283203125
0.0029296875
-0.002197265625
0.006591796875
-0.0084228515625
0.0062255859375
-0.0062255859375
0.000732421875
0.0106201171875
-0.005859375
0.0069580078125
-0.005126953125
-0.0010986328125
-0.0032958984375
0.0054931640625
0.00146484375
0.0032958984375
0.003662109375
0.005126953125
0.005126953125
0.00146484375
0.002197265625
0.0
-0.002197265625
0.0069580078125
-0.002197265625
0.0091552734375
-0.0025634765625
0.0040283203125
-0.0003662109375
-0.000732421875
0.0025634765625
0.0025634765625
0.0054931640625
0.000732421875
0.003662109375
-0.0018310546875
0.00146484375
-0.002197265625
0.0120849609375
-0.0260009765625
-0.0201416015625
0.0179443359375
-0.0201416015625
0.0391845703125
0.027099609375
-0.016845703125
0.0164794921875
-0.0142822265625
-0.0025634765625
-0.0003662109375
-0.0029296875
0.0025634765625
0.0025634765625
0.0010986328125
0.0054931640625
-0.0040283203125
0.0062255859375
-0.00439453125
0.0029296875
-0.005126953125
0.0
-0.005859375
-0.0029296875
0.003662109375
-0.000732421875
0.008056640625
0.0010986328125
0.0040283203125
0.0003662109375
0.002197265625
0.0018310546875
-0.0032958984375
0.0032958984375
-0.0018310546875
0.0047607421875
-0.0003662109375
0.008056640625
-0.010986328125
-0.0369873046875
0.054931640625
-0.0113525390625
0.0128173828125
0.0399169921875
-0.0589599609375
0.005859375
-0.00439453125
-0.0040283203125
0.00439453125
-0.002197265625
0.000732421875
0.0010986328125
-0.0047607421875
0.00439453125
-0.010986328125
0.0054931640625
-0.0135498046875
0.000732421875
-0.0069580078125
-0.0069580078125
0.009521484375
-0.00439453125
0.0084228515625
-0.0010986328125
0.0003662109375
-0.0054931640625
0.0069580078125
-0.006591796875
0.0054931640625
-0.0032958984375
0.0032958984375
0.002197265625
-0.00146484375
0.000732421875
-0.00146484375
0.0
-0.0010986328125
0.0003662109375
-0.0040283203125
-0.0003662109375
-0.00146484375
0.0040283203125
-0.0047607421875
0.00146484375
0.000732421875
-0.00146484375
0.000732421875
-0.0018310546875
-0.000732421875
-0.000732421875
-0.0018310546875
0.0003662109375
-0.003662109375
0.000732421875
0.000732421875
0.0047607421875
-0.00146484375
0.0029296875
-0.000732421875
-0.002197265625
-0.0003662109375
-0.0032958984375
-0.0025634765625
-0.008056640625
0.0091552734375
-0.0194091796875
0.024169921875
0.0120849609375
-0.0098876953125
0.022705078125
-0.022705078125
-0.0040283203125
0.0047607421875
-0.003662109375
0.005126953125
-0.0010986328125
-0.0010986328125
0.00439453125
-0.00732421875
0.0040283203125
-0.0047607421875
0.0040283203125
-0.000732421875
0.0018310546875
-0.0040283203125
-0.0040283203125
-0.0003662109375
-0.0032958984375
0.005126953125
-0.0047607421875
0.0054931640625
-0.003662109375
0.005126953125
0.002197265625
-0.0025634765625
0.0029296875
-0.0047607421875
-0.0029296875
-0.0003662109375
-0.0025634765625
-0.0003662109375
-0.00146484375
0.0018310546875
-0.000732421875
0.0018310546875
0.0047607421875
-0.0047607421875
0.0010986328125
-0.003662109375
-0.00439453125
0.0
-0.002197265625
0.0
-0.044677734375
0.0648193359375
-0.008056640625
0.0054931640625
0.0435791015625
-0.0611572265625
0.0084228515625
-0.003662109375
0.0010986328125
-0.003662109375
-0.0025634765625
-0.005126953125
-0.0032958984375
-0.0029296875
0.0018310546875
-0.000732421875
0.0069580078125
-0.008056640625
0.00732421875
-0.01318359375
-0.0010986328125
-0.0062255859375
-0.01025390625
0.00732421875
-0.0106201171875
0.0150146484375
-0.005859375
0.0091552734375
-0.000732421875
0.0040283203125
0.0010986328125
0.0
0.0018310546875
-0.0040283203125
-0.0018310546875
0.0003662109375
-0.003662109375
0.0029296875
0.0
0.000732421875
0.00146484375
0.0003662109375
0.008056640625
-0.01904296875
-0.0120849609375
-0.0003662109375
-0.021240234375
0.0322265625
0.01171875
0.000732421875
0.0150146484375
-0.0128173828125
0.002197265625
-0.0025634765625
0.002197265625
-0.0047607421875
0.005126953125
-0.005859375
0.005126953125
-0.0076904296875
0.005859375
-0.0091552734375
0.0032958984375
-0.0098876953125
-0.0047607421875
0.0
-0.008056640625
0.0106201171875
-0.003662109375
0.0091552734375
0.000732421875
0.005126953125
-0.0003662109375
-0.00146484375
-0.0032958984375
-0.0018310546875
-0.00146484375
-0.0018310546875
0.002197265625
-0.0032958984375
0.0003662109375
0.0040283203125
0.0025634765625
0.0
-0.000732421875
-0.0025634765625
-0.0029296875
0.0010986328125
-0.0003662109375
0.00146484375
-0.0018310546875
0.00146484375
-0.0084228515625
0.0032958984375
-0.02490234375
0.0194091796875
0.0069580078125
-0.0054931640625
0.0238037109375
-0.0205078125
0.0
0.003662109375
-0.0018310546875
-0.0025634765625
-0.0032958984375
-0.0084228515625
0.0
-0.0018310546875
0.0040283203125
-0.0029296875
0.0069580078125
-0.0135498046875
0.0
-0.01171875
-0.0098876953125
0.005859375
-0.0113525390625
0.0142822265625
-0.006591796875
0.0091552734375
-0.0018310546875
0.002197265625
-0.0003662109375
-0.005859375
0.0003662109375
-0.006591796875
-0.0010986328125
-0.0029296875
-0.0029296875
0.0010986328125
-0.005126953125
0.0047607421875
-0.0018310546875
0.0032958984375
0.0142822265625
-0.0322265625
-0.028564453125
0.0069580078125
-0.029296875
0.0406494140625
0.0201416015625
-0.0091552734375
0.0047607421875
-0.006591796875
-0.0062255859375
0.0029296875
-0.002197265625
-0.003662109375
-0.0010986328125
-0.0032958984375
-0.000732421875
-0.005859375
0.0025634765625
-0.0135498046875
-0.000732421875
-0.0106201171875
-0.009521484375
0.005859375
-0.01171875
0.016845703125
-0.0040283203125
0.0128173828125
0.00146484375
0.000732421875
0.0025634765625
-0.0018310546875
0.002197265625
0.0025634765625
-0.0010986328125
0.002197265625
0.000732421875
0.0010986328125
0.0047607421875
-0.003662109375
0.0047607421875
0.0
0.0029296875
0.0047607421875
-0.0025634765625
0.0069580078125
-0.0391845703125
0.037353515625
-0.000732421875
-0.00439453125
0.03955078125
-0.0355224609375
0.00439453125
0.0018310546875
0.0025634765625
0.0003662109375
0.0040283203125
-0.0087890625
0.00146484375
-0.0069580078125
0.002197265625
-0.003662109375
0.0076904296875
-0.0091552734375
0.0069580078125
-0.0047607421875
-0.0003662109375
0.0087890625
-0.0047607421875
0.01025390625
-0.00439453125
0.0025634765625
-0.0029296875
0.0047607421875
-0.0010986328125
0.0047607421875
0.005859375
0.0
0.006591796875
0.0029296875
0.0010986328125
-0.0003662109375
0.0003662109375
-0.00146484375
-0.0010986328125
0.0076904296875
0.01025390625
-0.0135498046875
-0.0355224609375
0.0399169921875
-0.015380859375
0.029296875
0.0413818359375
-0.037353515625
0.0120849609375
-0.0076904296875
0.0025634765625
0.0018310546875
0.0003662109375
0.0
0.00439453125
-0.005126953125
0.005859375
-0.010986328125
0.00439453125
-0.0098876953125
0.0047607421875
-0.0047607421875
0.0
0.003662109375
-0.0076904296875
0.0146484375
-0.009521484375
0.0128173828125
-0.0054931640625
0.0062255859375
-0.0018310546875
0.0040283203125
0.0029296875
0.0
0.0054931640625
-0.0040283203125
0.0018310546875
-0.0032958984375
-0.0032958984375
0.0025634765625
-0.002197265625
0.0032958984375
0.000732421875
0.0029296875
0.0003662109375
-0.0018310546875
0.0025634765625
-0.0076904296875
-0.0010986328125
-0.0106201171875
-0.019775390625
0.022705078125
0.002197265625
0.01318359375
0.019775390625
-0.018310546875
0.00146484375
-0.000732421875
0.000732421875
0.003662109375
0.0047607421875
0.0003662109375
0.0054931640625
-0.0091552734375
0.0029296875
-0.0135498046875
0.00146484375
-0.0084228515625
-0.0003662109375
0.0003662109375
-0.0003662109375
0.00732421875
-0.00146484375
0.006591796875
-0.003662109375
0.0054931640625
-0.0047607421875
0.005859375
-0.003662109375
0.0047607421875
0.000732421875
-0.0029296875
0.0029296875
-0.0087890625
0.0029296875
-0.0018310546875
0.0029296875
0.005126953125
-0.0003662109375
-0.0003662109375
-0.0087890625
0.0
-0.0208740234375
0.022705078125
0.0087890625
-0.00146484375
0.0223388671875
-0.017578125
-0.0010986328125
0.0032958984375
-0.0029296875
0.0047607421875
0.0
-0.0018310546875
0.005126953125
-0.01171875
0.0084228515625
-0.016845703125
0.00732421875
-0.015380859375
-0.0025634765625
0.00439453125
-0.0091552734375
0.0205078125
-0.00732421875
0.015380859375
-0.0040283203125
0.0047607421875
-0.0003662109375
0.003662109375
0.003662109375
-0.0010986328125
0.0
0.0003662109375
0.0018310546875
0.00146484375
0.005859375
-0.0032958984375
0.0
0.002197265625
-0.00146484375
0.0032958984375
-0.0010986328125
0.0010986328125
-0.009521484375
0.0179443359375
-0.021240234375
0.0267333984375
0.009521484375
-0.019775390625
0.021240234375
-0.0263671875
0.000732421875
0.0010986328125
0.0010986328125
-0.0003662109375
0.0025634765625
-0.000732421875
0.0054931640625
-0.00732421875
0.0054931640625
-0.0091552734375
0.00146484375
-0.0047607421875
-0.005126953125
-0.002197265625
-0.005126953125
0.0040283203125
-0.0018310546875
0.006591796875
-0.0029296875
0.0084228515625
-0.00146484375
0.005859375
-0.0047607421875
0.0040283203125
-0.0032958984375
-0.000732421875
0.00439453125
-0.005126953125
0.0032958984375
0.003662109375
0.0032958984375
0.0029296875
0.00146484375
0.0
0.000732421875
-0.0029296875
0.0010986328125
-0.0018310546875
0.00146484375
-0.0003662109375
0.0025634765625
0.0018310546875
-0.0010986328125
0.0018310546875
-0.0120849609375
0.01611328125
-0.0164794921875
0.021240234375
0.01025390625
-0.018310546875
0.01611328125
-0.01904296875
0.000732421875
0.00439453125
0.00146484375
0.002197265625
-0.0010986328125
-0.003662109375
0.00439453125
-0.00732421875
0.0069580078125
-0.00439453125
0.003662109375
-0.0069580078125
0.0003662109375
-0.0029296875
0.0
0.00146484375
-0.0010986328125
0.006591796875
-0.0087890625
0.01171875
-0.00439453125
0.003662109375
-0.0025634765625
-0.003662109375
-0.002197265625
-0.0040283203125
0.0040283203125
0.0018310546875
0.0029296875
-0.0003662109375
-0.000732421875
0.000732421875
-0.000732421875
-0.003662109375
0.0029296875
0.0010986328125
-0.038818359375
0.0662841796875
0.0003662109375
-0.00439453125
0.04541015625
-0.066650390625
0.0025634765625
-0.00146484375
-0.003662109375
-0.0003662109375
0.0010986328125
-0.0054931640625
0.006591796875
-0.005126953125
0.005126953125
-0.0098876953125
0.00732421875
-0.010986328125
0.0040283203125
-0.0054931640625
-0.005859375
0.005859375
-0.00732421875
0.0084228515625
-0.0032958984375
0.00146484375
0.0
0.0010986328125
0.0010986328125
0.0029296875
0.00146484375
0.0025634765625
-0.0018310546875
0.0029296875
-0.0032958984375
-0.0032958984375
-0.0032958984375
-0.0040283203125
-0.0010986328125
0.000732421875
0.0032958984375
-0.0025634765625
0.002197265625
0.002197265625
0.0003662109375
-0.000732421875
-0.000732421875
-0.006591796875
0.010986328125
-0.0281982421875
-0.0238037109375
0.019775390625
-0.02490234375
0.0428466796875
0.0245361328125
-0.0205078125
0.013916015625
-0.01904296875
-0.0010986328125
0.00146484375
-0.000732421875
0.0029296875
0.0010986328125
-0.00146484375
0.00146484375
-0.00732421875
0.0029296875
-0.008056640625
0.0029296875
-0.005859375
-0.0040283203125
-0.002197265625
-0.0076904296875
0.0076904296875
-0.0069580078125
0.0087890625
-0.005126953125
0.003662109375
-0.002197265625
-0.00146484375
-0.000732421875
-0.006591796875
-0.0003662109375
-0.005859375
-0.0040283203125
0.0010986328125
-0.0029296875
0.002197265625
-0.0032958984375
0.00146484375
-0.0029296875
-0.0054931640625
-0.010986328125
-0.00732421875
-0.0205078125
0.021240234375
0.0047607421875
0.009521484375
0.0146484375
-0.01171875
-0.0003662109375
0.000732421875
-0.0029296875
0.0003662109375
-0.003662109375
-0.0010986328125
-0.0029296875
-0.0025634765625
0.0040283203125
-0.0087890625
0.0091552734375
-0.0128173828125
0.00146484375
-0.0062255859375
-0.009521484375
0.008056640625
-0.01025390625
0.0172119140625
-0.005126953125
0.0113525390625
-0.0018310546875
0.0047607421875
0.0003662109375
-0.0040283203125
0.0025634765625
-0.0098876953125
0.0029296875
-0.002197265625
-0.0010986328125
0.005126953125
-0.0003662109375
0.00732421875
-0.0003662109375
0.000732421875
-0.0018310546875
-0.003662109375
0.0084228515625
-0.0205078125
-0.009521484375
-0.0113525390625
-0.0238037109375
0.0384521484375
0.0087890625
0.0150146484375
0.016845703125
-0.0164794921875
0.000732421875
0.0003662109375
0.0018310546875
0.0010986328125
0.0069580078125
-0.0003662109375
0.0003662109375
-0.005859375
0.0
-0.01171875
0.00439453125
-0.0084228515625
0.000732421875
0.002197265625
-0.000732421875
0.0113525390625
-0.0029296875
0.0076904296875
-0.0054931640625
0.005126953125
-0.003662109375
0.002197265625
-0.0003662109375
-0.00146484375
0.000732421875
0.0003662109375
0.0010986328125
0.0032958984375
0.000732421875
0.0029296875
0.0010986328125
-0.00146484375
-0.00439453125
0.002197265625
-0.00732421875
0.00732421875
-0.0025634765625
0.0047607421875
0.00146484375
-0.0062255859375
0.00146484375
-0.0040283203125
-0.0003662109375
0.003662109375
-0.000732421875
0.005126953125
-0.0040283203125
0.0054931640625
-0.000732421875
-0.005126953125
0.002197265625
-0.0098876953125
-0.0260009765625
0.0325927734375
0.0032958984375
0.01318359375
0.031494140625
-0.0263671875
0.0010986328125
-0.003662109375
-0.005126953125
0.0018310546875
-0.0029296875
0.0018310546875
0.000732421875
-0.0029296875
0.00439453125
-0.0084228515625
0.0084228515625
-0.009521484375
0.0029296875
-0.0047607421875
-0.0047607421875
0.003662109375
-0.008056640625
0.0091552734375
-0.0062255859375
0.0040283203125
-0.005859375
0.0076904296875
-0.0003662109375
0.0076904296875
0.005126953125
-0.0047607421875
0.0018310546875
-0.005859375
0.0
-0.0040283203125
0.0010986328125
-0.0076904296875
-0.0084228515625
0.00146484375
-0.0223388671875
0.0274658203125
0.0062255859375
0.0069580078125
0.0179443359375
-0.0113525390625
-0.0018310546875
0.0
-0.0010986328125
-0.0010986328125
-0.000732421875
-0.00146484375
0.0010986328125
-0.0032958984375
0.01611328125
0.0010986328125
0.0142822265625
0.00146484375
