-0.145050048828125
0.170318603515625
-0.157867431640625
0.176910400390625
-0.028564453125
0.01611328125
-0.044677734375
0.028564453125
-0.0113525390625
0.005859375
0.0084228515625
-0.008056640625
-0.013916015625
0.018310546875
-0.0311279296875
0.03662109375
-0.030029296875
0.0322265625
-0.01904296875
0.0267333984375
-0.0201416015625
0.0260009765625
-0.031494140625
0.0208740234375
-0.0845947265625
0.05126953125
-0.106201171875
0.05859375
-0.028564453125
0.022705078125
0.01318359375
0.038818359375
0.043212890625
0.022705078125
-0.019775390625
-0.0029296875
-0.0673828125
0.0113525390625
-0.0062255859375
0.016845703125
-0.0146484375
0.0439453125
-0.0252685546875
0.054962158203125
-0.006591796875
0.019439697265625
-0.0084228515625
0.0029296875
-0.010986328125
0.0032958984375
0.0322265625
-0.008056640625
0.03662109375
-0.009521484375
0.0274658203125
-0.023834228515625
-0.003662109375
0.0062255859375
0.0
0.010650634765625
0.0029296875
0.008056640625
0.0029296875
0.0003662109375
0.0113525390625
-0.0186767578125
0.00146484375
-0.017242431640625
0.01611328125
-0.036651611328125
0.003662109375
-0.016845703125
0.0172119140625
-0.017578125
0.015380859375
-0.01611328125
0.013916015625
-0.0087890625
0.0128173828125
-0.0076904296875
0.0084228515625
-0.009521484375
0.0245361328125
-0.0234375
0.0098876953125
-0.003662109375
0.019775390625
-0.0032958984375
0.010986328125
-0.0040283203125
0.0146484375
-0.018310546875
0.015380859375
-0.015380859375
0.0106201171875
-0.0003662109375
0.01318359375
-0.000732421875
0.0025634765625
-0.000732421875
0.0157470703125
-0.0172119140625
-0.0347900390625
0.01318359375
0.0208740234375
-0.008056640625
0.0384521484375
0.0223388671875
0.057861328125
0.0245361328125
0.0205078125
-0.0322265625
-0.049072265625
-0.0216064453125
0.0223388671875
-0.0025634765625
0.0146484375
0.0260009765625
0.0234375
0.0018310546875
-0.006591796875
0.0128173828125
-0.010986328125
0.0223388671875
0.013916015625
0.0025634765625
0.0274658203125
-0.0069580078125
0.0146484375
0.00439453125
0.000732421875
-0.00439453125
0.0238037109375
-0.0142822265625
-0.0076904296875
0.01611328125
-0.00732421875
0.00439453125
-0.0084228515625
0.013916015625
-0.0054931640625
0.000732421875
-0.0018310546875
-0.0234375
-0.002197265625
-0.0208740234375
0.01318359375
-0.02783203125
-0.0113525390625
-0.017578125
0.0054931640625
-0.02783203125
0.005859375
-0.0146484375
0.00732421875
-0.013916015625
-0.0018310546875
-0.0142822265625
-0.002197265625
-0.012451171875
0.005859375
-0.00732421875
-0.0032958984375
0.000732421875
0.00146484375
-0.009521484375
0.0054931640625
-0.018310546875
-0.003662109375
0.0172119140625
0.025665283203125
0.043212890625
0.044708251953125
-0.0472412109375
-0.027496337890625
-0.0413818359375
-0.010650634765625
-0.0087890625
0.024200439453125
-0.008056640625
-0.0018310546875
0.029296875
0.0032958984375
0.000732421875
-0.0128173828125
-0.00146484375
-0.0018310546875
-0.0076904296875
0.019439697265625
-0.0157470703125
0.0362548828125
-0.0263671875
0.03515625
-0.0391845703125
0.0047607421875
-0.019775390625
0.015380859375
-0.012451171875
0.0069580078125
-0.0054931640625
0.0201416015625
-0.0205078125
0.0208740234375
-0.0157470703125
0.0029296875
-0.0091552734375
0.027099609375
-0.048004150390625
0.046142578125
-0.065216064453125
-0.0010986328125
-0.0003662109375
-0.0260009765625
0.0201416015625
0.0025634765625
-0.0457763671875
0.0677490234375
-0.085693359375
0.085693359375
-0.0333251953125
0.0596923828125
0.00146484375
0.0172119140625
-0.05859375
-0.0289306640625
-0.050537109375
-0.01025390625
-0.0010986328125
-0.0150146484375
0.02490234375
-0.0040283203125
0.029296875
0.052734375
-0.0406494140625
0.0523681640625
-0.0728759765625
0.029296875
-0.04833984375
0.0263671875
-0.024169921875
0.035552978515625
-0.0274658203125
0.031158447265625
-0.037353515625
0.0216064453125
-0.041778564453125
0.04541015625
-0.055694580078125
0.0267333984375
-0.029296875
0.0413818359375
-0.0369873046875
0.0245361328125
-0.0234375
0.0091552734375
-0.0106201171875
0.06005859375
-0.060791015625
0.0084228515625
-0.032958984375
-0.040283203125
0.009521484375
0.002197265625
0.0084228515625
0.0908203125
-0.0146484375
0.0736083984375
-0.0673828125
0.0029296875
-0.04833984375
-0.0289306640625
0.0106201171875
-0.005126953125
-0.0076904296875
0.0142822265625
0.002197265625
-0.034423828125
0.052734375
-0.0205078125
0.0303955078125
-0.031494140625
0.0087890625
-0.0040283203125
-0.018310546875
-0.0040283203125
0.0047607421875
-0.0318603515625
0.030029296875
-0.0311279296875
0.009521484375
-0.0384521484375
0.0194091796875
-0.005859375
0.005126953125
0.009521484375
-0.0069580078125
-0.0032958984375
0.01025390625
-0.0164794921875
0.0318603515625
0.01611328125
0.008056640625
0.0172119140625
-0.0186767578125
-0.0216064453125
0.0010986328125
0.030029296875
-0.0194091796875
0.0010986328125
0.0413818359375
0.0069580078125
0.0706787109375
-0.0098876953125
0.00732421875
-0.072509765625
0.018310546875
-0.0498046875
0.035888671875
-0.0347900390625
0.041778564453125
-0.027496337890625
0.057525634765625
-0.038482666015625
0.0531005859375
-0.0146484375
0.0208740234375
-0.028564453125
0.0216064453125
-0.0146484375
0.0234375
-0.0003662109375
0.0164794921875
-0.0281982421875
0.0128173828125
-0.064453125
0.0362548828125
-0.0223388671875
0.0120849609375
0.031494140625
-0.0267333984375
0.0084228515625
-0.015380859375
-0.02783203125
0.0087890625
-0.060791015625
0.0501708984375
-0.038818359375
0.017578125
0.01025390625
-0.03076171875
-0.0347900390625
0.06884765625
-0.0260009765625
0.10546875
-0.0076904296875
-0.0120849609375
-0.04248046875
-0.029296875
-0.0340576171875
0.019775390625
-0.0238037109375
0.0399169921875
-0.0252685546875
0.0670166015625
-0.0164794921875
0.040283203125
-0.0179443359375
0.013214111328125
-0.0186767578125
0.013214111328125
0.0113525390625
0.0054931640625
0.013916015625
0.0098876953125
0.0172119140625
-0.0084228515625
-0.005859375
0.0054931640625
-0.0032958984375
0.01318359375
0.0
0.0047607421875
0.01025390625
-0.0135498046875
0.008056640625
-0.0135498046875
-0.005126953125
-0.011383056640625
0.0
-0.016876220703125
-0.018310546875
0.008819580078125
-0.000732421875
-0.005126953125
-0.003662109375
0.0003662109375
-0.009521484375
0.013946533203125
-0.01025390625
0.0106201171875
-0.017578125
0.03662109375
0.0435791015625
0.0216064453125
0.046142578125
-0.03369140625
-0.021240234375
-0.019775390625
-0.0194091796875
0.0135498046875
0.0223388671875
0.0128173828125
0.0018310546875
0.0281982421875
-0.0146484375
0.01318359375
-0.0146484375
0.00732421875
-0.0069580078125
0.000732421875
0.0238037109375
-0.019775390625
0.01318359375
0.0
0.01611328125
-0.0186767578125
0.0128173828125
-0.0128173828125
0.0150146484375
-0.0032958984375
0.000732421875
0.002197265625
-0.0010986328125
0.0091552734375
0.015380859375
-0.013916015625
-0.0054931640625
-0.0252685546875
-0.00439453125
-0.020904541015625
-0.0157470703125
0.0106201171875
0.0029296875
-0.0150146484375
-0.0267333984375
-0.005126953125
0.01318359375
-0.018310546875
0.0087890625
0.028564453125
0.0142822265625
0.052398681640625
0.017578125
-0.039581298828125
-0.0560302734375
-0.023834228515625
0.0274658203125
-0.0164794921875
0.044677734375
-0.01025390625
0.0069580078125
0.0003662109375
-0.0333251953125
0.0135498046875
-0.0223388671875
0.00146484375
0.0164794921875
-0.0281982421875
0.022705078125
-0.0142822265625
0.0179443359375
-0.010986328125
-0.0084228515625
-0.013916015625
0.000732421875
-0.00732421875
-0.0003662109375
-0.0047607421875
0.0069580078125
-0.0208740234375
0.0142822265625
-0.0091552734375
0.003662109375
-0.0047607421875
0.013916015625
-0.0443115234375
0.008056640625
-0.0380859375
0.003662109375
-0.00439453125
-0.029296875
0.0194091796875
0.0
-0.0186767578125
0.00732421875
-0.000732421875
0.029296875
0.037353515625
0.0252685546875
-0.02783203125
-0.05419921875
-0.0172119140625
-0.0263671875
0.008056640625
-0.0054931640625
0.0230712890625
0.0029296875
0.0421142578125
-0.01025390625
0.0201416015625
-0.0150146484375
-0.00439453125
-0.0047607421875
-0.0150146484375
0.0205078125
-0.01171875
0.05712890625
-0.02490234375
0.032958984375
-0.03515625
0.0238037109375
-0.0384521484375
0.01171875
-0.0157470703125
0.0150146484375
-0.0260009765625
0.0556640625
-0.090087890625
0.1007080078125
-0.0655517578125
0.0596923828125
-0.00732421875
0.00732421875
-0.025634765625
0.0201416015625
-0.038818359375
0.0040283203125
-0.005859375
0.002960205078125
0.00732421875
0.008087158203125
0.0091552734375
0.030029296875
0.0
0.0087890625
-0.0032958984375
-0.009521484375
-0.020904541015625
0.01171875
-0.050933837890625
-0.0029296875
-0.0260009765625
0.02197265625
-0.0179443359375
0.02197265625
-0.0062255859375
0.0201416015625
-0.0150146484375
0.043212890625
-0.0421142578125
0.053466796875
-0.03955078125
0.0380859375
-0.0263671875
0.0142822265625
-0.0347900390625
0.0377197265625
-0.06591796875
0.0205078125
-0.0384521484375
0.005859375
-0.003662109375
-0.0087890625
0.006591796875
0.0069580078125
-0.013916015625
0.012451171875
-0.031494140625
-0.035888671875
0.008056640625
-0.0692138671875
0.0421142578125
-0.0062255859375
0.008056640625
0.0391845703125
0.0150146484375
0.0538330078125
0.009521484375
-0.006591796875
-0.0150146484375
-0.0963134765625
0.0260009765625
-0.0128173828125
0.022705078125
0.0087890625
0.0303955078125
-0.01171875
0.0380859375
-0.021240234375
0.029296875
-0.0498046875
0.0450439453125
-0.0054931640625
0.028564453125
0.0399169921875
0.00146484375
0.018310546875
0.0098876953125
-0.024169921875
0.030029296875
-0.0406494140625
0.042144775390625
-0.0201416015625
0.027862548828125
0.0179443359375
-0.040679931640625
0.104736328125
-0.125274658203125
0.02490234375
0.0260009765625
-0.0450439453125
0.0970458984375
-0.016845703125
0.011749267578125
-0.01025390625
0.0106201171875
-0.0230712890625
0.037353515625
-0.05419921875
0.066680908203125
-0.010986328125
0.032958984375
-0.0087890625
0.012451171875
-0.0179443359375
-0.009521484375
-0.038116455078125
0.0087890625
-0.028228759765625
0.009521484375
0.010650634765625
-0.01611328125
0.029327392578125
-0.0274658203125
0.0087890625
-0.018310546875
-0.018310546875
-0.0025634765625
-0.005859375
-0.005859375
-0.019073486328125
0.00439453125
-0.026031494140625
-0.00439453125
-0.027099609375
-0.010986328125
-0.00439453125
-0.0062255859375
-0.005126953125
0.0234375
-0.0172119140625
0.0281982421875
0.0010986328125
-0.00439453125
-0.018310546875
0.0087890625
-0.0355224609375
0.03515625
-0.0472412109375
0.0457763671875
-0.0128173828125
0.010986328125
0.01318359375
-0.0128173828125
0.0032958984375
-0.003662109375
-0.0113525390625
0.015380859375
-0.0574951171875
0.052734375
0.0018310546875
0.0029296875
-0.00439453125
0.0340576171875
0.0098876953125
0.062255859375
0.0040283203125
-0.0076904296875
-0.05126953125
-0.006591796875
-0.0142822265625
0.0201416015625
-0.025634765625
0.03662109375
-0.0205078125
0.0296630859375
-0.0230712890625
0.0216064453125
-0.0201416015625
0.0120849609375
-0.0263671875
0.0120849609375
0.010986328125
-0.0076904296875
0.029296875
-0.013916015625
0.015380859375
-0.0157470703125
0.002197265625
0.005859375
-0.018310546875
0.03515625
-0.005859375
0.01611328125
-0.0113525390625
0.0135498046875
-0.003662109375
-0.0106201171875
-0.0120849609375
-0.015380859375
-0.013916015625
0.0091552734375
-0.0062255859375
0.005859375
-0.00439453125
-0.0179443359375
-0.0091552734375
-0.006591796875
-0.0223388671875
0.02197265625
-0.0172119140625
0.051300048828125
0.029296875
0.045074462890625
0.0673828125
-0.058624267578125
-0.0179443359375
-0.034820556640625
0.021240234375
-0.027099609375
0.093017578125
-0.0596923828125
0.03076171875
0.000732421875
-0.008056640625
0.012451171875
-0.031494140625
0.012451171875
0.00439453125
-0.01611328125
0.034423828125
-0.0260009765625
0.027099609375
-0.012451171875
0.016845703125
-0.0201416015625
0.02490234375
-0.0296630859375
0.0091552734375
-0.012451171875
-0.03076171875
0.0216064453125
-0.0106201171875
0.0150146484375
-0.0164794921875
0.0091552734375
-0.02197265625
-0.006591796875
-0.016845703125
-0.00439453125
-0.0018310546875
-0.0025634765625
-0.021240234375
0.0025634765625
-0.0399169921875
0.006591796875
-0.0146484375
0.0238037109375
0.02490234375
0.0428466796875
0.035888671875
-0.0322265625
-0.047607421875
-0.025634765625
-0.038818359375
0.0084228515625
-0.0040283203125
0.028564453125
-0.0040283203125
0.040283203125
0.0069580078125
0.000732421875
-0.0194091796875
0.0025634765625
-0.010986328125
-0.0032958984375
0.0120849609375
-0.0106201171875
0.02197265625
-0.010986328125
-0.0062255859375
-0.005126953125
-0.019775390625
0.006591796875
-0.0091552734375
0.0047607421875
-0.01171875
0.0025634765625
0.02490234375
-0.0216064453125
-0.002197265625
0.0018310546875
-0.016845703125
0.00439453125
0.0216064453125
-0.043212890625
0.010986328125
-0.0281982421875
-0.0252685546875
0.01904296875
0.0157470703125
-0.025634765625
0.0673828125
-0.087890625
0.013916015625
-0.0333251953125
-0.0087890625
-0.000732421875
0.0010986328125
-0.01171875
0.005859375
-0.0201416015625
0.0076904296875
-0.0234375
0.016845703125
-0.0238037109375
-0.029296875
0.0128173828125
0.02197265625
-0.0186767578125
0.052734375
-0.009521484375
0.0377197265625
0.0263671875
0.0230712890625
-0.0457763671875
-0.0413818359375
-0.029296875
0.01611328125
-0.015380859375
-0.0018310546875
-0.0018310546875
-0.0234375
0.028564453125
0.01171875
0.0098876953125
0.0146484375
-0.0135498046875
0.0498046875
-0.059356689453125
0.0289306640625
-0.028564453125
0.0025634765625
0.010284423828125
-0.0172119140625
0.015380859375
-0.0223388671875
0.0029296875
-0.002197265625
-0.022705078125
0.0087890625
-0.050567626953125
-0.027099609375
-0.0010986328125
0.005859375
-0.0582275390625
0.1083984375
-0.145050048828125
-0.0032958984375
0.154937744140625
-0.041748046875
0.174713134765625
0.046142578125
-0.00146484375
0.035888671875
0.0267333984375
-0.0018310546875
0.0296630859375
0.003662109375
0.028564453125
0.0216064453125
0.0179443359375
-0.0010986328125
0.0040283203125
0.013946533203125
-0.0732421875
0.021270751953125
-0.091949462890625
0.01025390625
-0.043975830078125
0.0091552734375
-0.01904296875
0.00146484375
-0.01318359375
0.0098876953125
-0.0186767578125
-0.0157470703125
0.01318359375
-0.00146484375
0.013916015625
0.0135498046875
-0.0047607421875
-0.032623291015625
0.01611328125
-0.076934814453125
0.051300048828125
-0.046875
0.037017822265625
-0.010986328125
0.010986328125
-0.029296875
0.0234375
-0.0208740234375
0.022705078125
-0.018310546875
0.0263671875
0.0087890625
0.00732421875
0.0084228515625
0.00146484375
-0.04248046875
0.0146484375
-0.02197265625
0.0362548828125
0.0234375
0.06298828125
0.0391845703125
0.010986328125
-0.0501708984375
0.015380859375
-0.0732421875
0.037353515625
-0.0186767578125
0.027099609375
-0.01318359375
0.0384521484375
-0.0172119140625
0.041015625
-0.02197265625
0.0260009765625
-0.030029296875
0.0120849609375
-0.028564453125
0.0194091796875
0.012451171875
0.00439453125
0.0113525390625
0.0010986328125
0.003662109375
-0.0040283203125
-0.0150146484375
0.012451171875
-0.0150146484375
0.0128173828125
-0.01025390625
0.0084228515625
-0.015380859375
0.0164794921875
-0.01025390625
0.0062255859375
-0.0098876953125
-0.005126953125
0.0076904296875
-0.0238037109375
-0.0025634765625
-0.0062255859375
-0.0003662109375
0.002197265625
-0.0040283203125
-0.0010986328125
-0.0076904296875
-0.0087890625
-0.0047607421875
-0.0040283203125
-0.0128173828125
0.009521484375
-0.002197265625
-0.0032958984375
-0.01171875
0.0054931640625
0.0018310546875
-0.00439453125
0.002197265625
-0.0040283203125
0.005126953125
-0.0010986328125
0.00146484375
0.005126953125
-0.0076904296875
0.0135498046875
-0.005859375
0.005126953125
0.0135498046875
-0.016845703125
0.009521484375
0.015380859375
0.029296875
0.0406494140625
0.0439453125
-0.0435791015625
-0.0322265625
-0.0234375
-0.0179443359375
0.0230712890625
0.006591796875
0.027130126953125
-0.010986328125
0.039581298828125
-0.006591796875
0.0142822265625
-0.0164794921875
0.015380859375
-0.00439453125
0.0018310546875
0.01171875
-0.006591796875
0.025634765625
-0.0040283203125
0.015380859375
-0.005126953125
0.0069580078125
-0.0029296875
0.0091552734375
0.0025634765625
-0.01025390625
0.0146484375
-0.0040283203125
0.01171875
-0.012451171875
0.021240234375
-0.000732421875
-0.01025390625
-0.0025634765625
-0.027099609375
-0.006591796875
-0.0091552734375
0.01025390625
-0.017578125
-0.0303955078125
0.0076904296875
0.01025390625
0.00146484375
0.0032958984375
0.044677734375
0.059326171875
0.0179443359375
0.05419921875
-0.064453125
-0.0205078125
-0.045074462890625
0.0465087890625
-0.041412353515625
0.0721435546875
-0.04541015625
0.0611572265625
-0.040283203125
0.0318603515625
-0.043212890625
0.05419921875
-0.0673828125
0.123809814453125
-0.134033203125
0.153472900390625
-0.147979736328125
0.073974609375
-0.065216064453125
0.0721435546875
-0.0809326171875
0.1058349609375
-0.0999755859375
0.056396484375
-0.05126953125
0.02783203125
-0.0340576171875
0.0113525390625
-0.0194091796875
-0.006591796875
-0.0062255859375
-0.0816650390625
0.0296630859375
-0.043212890625
0.0333251953125
0.002197265625
0.0574951171875
0.00439453125
0.016845703125
-0.0362548828125
-0.024169921875
-0.0992431640625
0.0325927734375
-0.03076171875
0.0333251953125
-0.037353515625
0.0574951171875
-0.0413818359375
0.0479736328125
-0.05126953125
0.037017822265625
-0.049072265625
0.031158447265625
-0.019805908203125
0.0150146484375
-0.011383056640625
0.025634765625
-0.01025390625
0.0091552734375
-0.0201416015625
0.0010986328125
-0.01025390625
0.0098876953125
-0.0267333984375
0.0296630859375
-0.025634765625
0.02490234375
-0.0201416015625
0.0186767578125
-0.02490234375
0.02197265625
-0.0494384765625
0.0164794921875
0.002197265625
-0.01318359375
0.0216064453125
0.034423828125
0.0164794921875
0.046142578125
0.0029296875
-0.0523681640625
-0.0640869140625
-0.0252685546875
-0.025634765625
0.018310546875
-0.0223388671875
0.03369140625
-0.0281982421875
0.0421142578125
0.012451171875
-0.0069580078125
0.01171875
-0.0238037109375
-0.0018310546875
-0.0032958984375
-0.0003662109375
0.017578125
0.0076904296875
0.002197265625
0.00146484375
-0.0164794921875
0.0025634765625
-0.0179443359375
0.0263671875
-0.0289306640625
0.0325927734375
-0.03515625
0.0223388671875
-0.0263671875
-0.0208740234375
0.0194091796875
0.019775390625
-0.0216064453125
0.0311279296875
-0.0465087890625
-0.010986328125
-0.002197265625
-0.0150146484375
0.0087890625
0.01025390625
-0.0230712890625
0.035888671875
-0.04248046875
0.02197265625
-0.029327392578125
0.0157470703125
-0.023101806640625
-0.0076904296875
0.0003662109375
0.0076904296875
-0.01611328125
0.0205078125
-0.0267333984375
0.0029296875
-0.0142822265625
-0.02197265625
-0.0003662109375
-0.03955078125
0.0113525390625
-0.008056640625
-0.005126953125
0.01025390625
-0.0084228515625
0.021240234375
-0.012451171875
-0.022705078125
0.0003662109375
0.0245361328125
-0.0087890625
0.068115234375
0.0194091796875
0.045074462890625
-0.0076904296875
-0.0179443359375
-0.03076171875
-0.048736572265625
0.006591796875
0.025634765625
-0.006591796875
-0.01318359375
0.03515625
-0.0172119140625
0.034423828125
0.010986328125
-0.003662109375
-0.0106201171875
-0.01171875
-0.0186767578125
-0.0010986328125
0.0010986328125
0.006591796875
0.03076171875
-0.0186767578125
0.0047607421875
-0.01171875
-0.0172119140625
0.0146484375
-0.0040283203125
0.018310546875
0.043975830078125
-0.0201416015625
0.065948486328125
-0.050537109375
0.0135498046875
-0.0010986328125
0.0296630859375
-0.013916015625
0.059326171875
-0.065185546875
0.0706787109375
-0.073974609375
0.037353515625
-0.027099609375
0.0003662109375
0.006591796875
0.0406494140625
-0.0377197265625
0.0230712890625
-0.0472412109375
0.0260009765625
-0.0435791015625
-0.002197265625
0.0384521484375
0.0087890625
0.0699462890625
-0.0142822265625
-0.0157470703125
-0.0596923828125
-0.0157470703125
-0.03076171875
0.029296875
-0.0457763671875
0.056396484375
-0.0487060546875
0.0787353515625
-0.0479736328125
0.065185546875
-0.0377197265625
0.0303955078125
-0.0311279296875
0.0150146484375
0.0150146484375
-0.0062255859375
0.02197265625
0.002197265625
0.0120849609375
-0.0025634765625
-0.0098876953125
0.0
-0.012451171875
0.01025390625
-0.0018310546875
0.010986328125
-0.0113525390625
0.0113525390625
0.000732421875
-0.0069580078125
0.000732421875
-0.0098876953125
0.01171875
-0.015380859375
-0.006591796875
0.0018310546875
-0.0128173828125
0.0113525390625
-0.006591796875
0.0062255859375
-0.0087890625
0.005126953125
-0.00146484375
0.0029296875
-0.035919189453125
0.029327392578125
0.02490234375
-0.0150146484375
0.0120849609375
0.0318603515625
0.0201416015625
0.074737548828125
0.007354736328125
-0.0040283203125
-0.063751220703125
0.0025634765625
-0.022369384765625
0.0333251953125
-0.0303955078125
0.052734375
-0.0340576171875
0.057861328125
-0.03515625
0.046875
-0.0150146484375
0.032958984375
0.005859375
0.019775390625
0.069610595703125
-0.03076171875
0.126739501953125
-0.076171875
0.142822265625
-0.10107421875
0.225616455078125
-0.200347900390625
0.165191650390625
-0.166290283203125
0.0380859375
-0.050537109375
-0.01025390625
0.002197265625
-0.0267333984375
0.0234375
-0.075103759765625
0.0809326171875
-0.117950439453125
0.1435546875
-0.1497802734375
0.160064697265625
-0.17138671875
0.165924072265625
-0.105133056640625
0.160400390625
-0.061187744140625
0.171051025390625
-0.057861328125
0.086822509765625
-0.13623046875
0.079833984375
-0.0977783203125
0.06884765625
-0.040283203125
0.038818359375
-0.08349609375
0.0948486328125
-0.076568603515625
0.082763671875
-0.080230712890625
0.076568603515625
-0.0750732421875
0.053131103515625
-0.1058349609375
0.087158203125
-0.146484375
0.147216796875
-0.202178955078125
0.188995361328125
-0.175445556640625
0.155670166015625
-0.087890625
0.0318603515625
-0.0699462890625
0.0
-0.0172119140625
0.0
0.003662109375
0.0
0.0406494140625
0.0
0.117919921875
-0.067779541015625
0.150146484375
-0.153106689453125
0.178009033203125
-0.1431884765625
0.229278564453125
-0.144287109375
0.254180908203125
-0.169219970703125
0.110260009765625
-0.136627197265625
-0.01611328125
-0.0714111328125
0.0216064453125
-0.0439453125
0.08642578125
-0.0897216796875
0.15087890625
-0.164825439453125
0.221954345703125
-0.262969970703125
0.294097900390625
-0.361114501953125
0.321563720703125
-0.40142822265625
0.263336181640625
-0.312042236328125
0.202911376953125
-0.246826171875
0.103302001953125
-0.183502197265625
0.0
-0.046905517578125
0.0
0.0
0.0
0.0
0.0
0.0
0.0
0.0
-0.021240234375
0.051300048828125
-0.129302978515625
0.159332275390625
-0.210601806640625
0.2230224609375
-0.235870361328125
0.228912353515625
-0.130401611328125
0.113555908203125
-0.05126953125
0.082763671875
-0.07177734375
0.1490478515625
-0.0787353515625
0.0670166015625
-0.057861328125
-0.008056640625
-0.0457763671875
0.0362548828125
-0.0234375
0.025634765625
-0.084259033203125
0.099639892578125
-0.125640869140625
0.138458251953125
-0.0545654296875
0.041015625
-0.0758056640625
0.05126953125
-0.0406494140625
0.0333251953125
-0.0084228515625
0.0098876953125
-0.0018310546875
-0.0098876953125
-0.013916015625
0.005859375
-0.00439453125
0.0164794921875
-0.000732421875
0.0069580078125
-0.006591796875
0.0091552734375
-0.0245361328125
0.02490234375
-0.0545654296875
0.03955078125
-0.00439453125
-0.0208740234375
0.0362548828125
-0.059326171875
0.028564453125
-0.035888671875
0.0391845703125
-0.0443115234375
0.0179443359375
-0.0487060546875
-0.0146484375
0.015380859375
-0.0087890625
0.081298828125
0.005859375
0.0113525390625
-0.0029296875
-0.0556640625
-0.05859375
0.01904296875
-0.095947265625
0.0867919921875
-0.085693359375
0.09228515625
-0.080596923828125
0.081298828125
-0.046539306640625
0.0377197265625
-0.016845703125
0.0003662109375
-0.0087890625
0.0054931640625
0.013916015625
0.01025390625
0.0
0.012115478515625
-0.00146484375
-0.006591796875
-0.012451171875
0.005859375
0.013916015625
-0.016845703125
0.082061767578125
-0.083160400390625
0.069610595703125
-0.0889892578125
0.0
-0.0128173828125
-0.0538330078125
0.0732421875
0.069580078125
-0.0091552734375
0.052001953125
-0.06298828125
-0.041015625
-0.0025634765625
-0.02197265625
0.0274658203125
-0.0487060546875
0.0465087890625
-0.03076171875
0.03662109375
-0.0003662109375
0.0223388671875
0.018310546875
0.0069580078125
0.0252685546875
-0.0252685546875
0.0311279296875
-0.027099609375
-0.0150146484375
0.021240234375
-0.02783203125
0.0164794921875
0.0025634765625
-0.01025390625
0.0340576171875
-0.032958984375
0.0787353515625
-0.085693359375
0.1116943359375
-0.119384765625
0.0303955078125
-0.019775390625
-0.0230712890625
0.0333251953125
0.171783447265625
-0.173248291015625
0.186431884765625
-0.175811767578125
0.0216064453125
-0.009521484375
-0.03369140625
0.03955078125
-0.019775390625
0.0234375
0.0120849609375
-0.0091552734375
0.0611572265625
-0.0611572265625
0.0322265625
-0.03955078125
-0.066650390625
0.059326171875
0.0032958984375
-0.003662109375
0.06005859375
-0.0615234375
0.05126953125
-0.06005859375
0.017578125
-0.031494140625
-0.0318603515625
0.040283203125
-0.0439453125
0.1102294921875
-0.072509765625
0.088287353515625
-0.096710205078125
0.063385009765625
-0.067779541015625
0.0670166015625
-0.0274658203125
0.03955078125
-0.031494140625
0.0552978515625
-0.03076171875
0.0479736328125
-0.0032958984375
0.00732421875
-0.0106201171875
-0.0032958984375
-0.0142822265625
0.0091552734375
0.005859375
0.009521484375
0.0062255859375
-0.005859375
0.0322265625
-0.0545654296875
0.0494384765625
-0.066650390625
-0.027099609375
0.02490234375
-0.0560302734375
0.052001953125
-0.069580078125
0.05712890625
-0.09228515625
0.087890625
-0.040283203125
0.0391845703125
0.0084228515625
-0.0223388671875
-0.0025634765625
-0.0054931640625
-0.052001953125
0.0552978515625
0.0164794921875
-0.0289306640625
0.09521484375
-0.1036376953125
-0.0164794921875
0.04248046875
-0.0413818359375
0.1131591796875
-0.0596923828125
0.044677734375
-0.0908203125
0.0296630859375
-0.043975830078125
0.035919189453125
-0.048370361328125
0.046905517578125
-0.03662109375
0.0560302734375
-0.0355224609375
0.04833984375
-0.0234375
0.024169921875
-0.025634765625
0.0084228515625
0.0106201171875
-0.0069580078125
0.0263671875
-0.0040283203125
0.0098876953125
-0.003662109375
-0.0076904296875
0.01171875
-0.0128173828125
0.01318359375
-0.0003662109375
-0.00146484375
-0.0062255859375
0.01025390625
0.0032958984375
-0.0010986328125
-0.01171875
0.0018310546875
-0.0018310546875
-0.0091552734375
0.0018310546875
-0.0076904296875
-0.000732421875
-0.005126953125
0.0010986328125
-0.0047607421875
-0.013916015625
0.0150146484375
0.0018310546875
0.0047607421875
-0.006591796875
0.00146484375
0.0010986328125
-0.0113525390625
-0.002197265625
-0.0054931640625
-0.0098876953125
0.0076904296875
-0.006591796875
0.0047607421875
-0.0054931640625
-0.0025634765625
0.005126953125
-0.010986328125
-0.0069580078125
0.0029296875
0.0
0.0054931640625
-0.0091552734375
0.009521484375
-0.015380859375
0.0076904296875
-0.005126953125
0.0010986328125
-0.01171875
0.0333251953125
0.034423828125
0.03955078125
0.02783203125
-0.0322265625
-0.027099609375
-0.038818359375
-0.02783203125
0.0106201171875
-0.0029296875
0.0098876953125
-0.009521484375
0.0252685546875
-0.0098876953125
0.019775390625
-0.0018310546875
-0.0025634765625
-0.01025390625
-0.01171875
0.0135498046875
-0.0194091796875
0.0303955078125
-0.01318359375
0.044677734375
-0.0267333984375
0.01611328125
-0.0238037109375
-0.003662109375
-0.0076904296875
0.0069580078125
-0.009521484375
0.041015625
-0.0406494140625
0.044677734375
-0.0413818359375
0.0157470703125
-0.013916015625
0.059722900390625
-0.052764892578125
0.096710205078125
-0.104766845703125
0.148681640625
-0.15966796875
0.0992431640625
-0.0963134765625
0.0626220703125
-0.054931640625
0.130767822265625
-0.129302978515625
0.093414306640625
-0.101104736328125
0.0274658203125
-0.02783203125
-0.0146484375
0.0201416015625
0.0069580078125
-0.0029296875
0.022705078125
-0.0205078125
0.0025634765625
-0.0091552734375
0.0234375
-0.022705078125
-0.01904296875
0.058258056640625
-0.0164794921875
0.104766845703125
-0.019073486328125
0.00146484375
-0.0223388671875
-0.057525634765625
0.028961181640625
-0.049102783203125
0.019775390625
-0.021240234375
-0.010986328125
0.03662109375
-0.008056640625
0.0289306640625
-0.0032958984375
0.004058837890625
-0.044708251953125
0.028594970703125
-0.042144775390625
0.0369873046875
-0.024169921875
0.0347900390625
-0.013916015625
0.02490234375
-0.0380859375
0.0263671875
-0.03369140625
0.0263671875
-0.0263671875
0.0333251953125
-0.028564453125
0.0263671875
-0.0267333984375
0.0179443359375
-0.0318603515625
0.02490234375
-0.0157470703125
0.01318359375
-0.0260009765625
0.0146484375
-0.02490234375
0.01904296875
-0.0626220703125
0.0472412109375
-0.006591796875
0.0084228515625
-0.000732421875
0.0428466796875
0.010986328125
0.071044921875
0.0142822265625
-0.0267333984375
-0.062255859375
-0.0106201171875
-0.0113525390625
0.0113525390625
-0.01318359375
0.0172119140625
-0.008056640625
0.02783203125
-0.0146484375
0.0296630859375
-0.0201416015625
0.0186767578125
0.0
-0.01171875
0.0186767578125
-0.018310546875
0.0340576171875
-0.0150146484375
-0.0010986328125
0.01025390625
-0.0084228515625
0.0179443359375
-0.0150146484375
0.018707275390625
-0.00732421875
0.01318359375
-0.003662109375
0.0194091796875
-0.0091552734375
0.014678955078125
-0.00146484375
-0.01171875
-0.0106201171875
0.0032958984375
0.0029296875
0.005859375
-0.006591796875
0.0025634765625
-0.005126953125
0.00439453125
-0.0098876953125
0.0234375
-0.0091552734375
0.0216064453125
-0.0029296875
0.0076904296875
-0.0069580078125
0.0032958984375
0.0010986328125
-0.0003662109375
-0.015045166015625
0.019775390625
-0.008056640625
0.0172119140625
-0.0230712890625
0.0216064453125
-0.014312744140625
-0.0010986328125
-0.016845703125
0.0333251953125
0.028961181640625
0.0421142578125
0.048370361328125
-0.0443115234375
-0.037017822265625
-0.0267333984375
-0.022369384765625
0.002197265625
-0.006591796875
0.013916015625
-0.0025634765625
0.01611328125
-0.0135498046875
0.0113525390625
-0.02197265625
0.01171875
-0.015380859375
0.003662109375
0.0
-0.005859375
0.0318603515625
-0.024169921875
0.010986328125
-0.0179443359375
0.00439453125
-0.0234375
-0.0018310546875
-0.00439453125
-0.000732421875
-0.0025634765625
-0.0025634765625
-0.005859375
-0.0069580078125
0.01171875
0.0029296875
0.0010986328125
-0.0340576171875
0.00146484375
0.032257080078125
-0.04541015625
0.0238037109375
0.0179443359375
0.0369873046875
0.0380859375
0.01025390625
-0.032958984375
-0.053131103515625
-0.02197265625
0.0003662109375
-0.019775390625
-0.009521484375
0.00146484375
-0.0010986328125
0.0142822265625
-0.018310546875
0.0252685546875
-0.0091552734375
0.0069580078125
0.00146484375
-0.01171875
0.02783203125
-0.024169921875
0.0289306640625
-0.021240234375
0.008453369140625
-0.01611328125
0.0091552734375
-0.0205078125
-0.0003662109375
-0.00439453125
0.020172119140625
-0.021270751953125
0.030029296875
-0.035552978515625
0.0252685546875
-0.0252685546875
0.005859375
-0.00439453125
0.0325927734375
-0.0340576171875
0.0494384765625
-0.0538330078125
0.0201416015625
-0.0230712890625
-0.00439453125
-0.012451171875
0.0692138671875
-0.07177734375
0.1578369140625
-0.112060546875
0.136993408203125
-0.064453125
0.055694580078125
-0.0794677734375
-0.028228759765625
-0.043212890625
0.0113525390625
-0.023834228515625
0.012481689453125
-0.0113525390625
0.019775390625
-0.008056640625
0.0845947265625
-0.076934814453125
0.03369140625
-0.035888671875
-0.021240234375
0.0047607421875
-0.0234375
0.017578125
0.0106201171875
0.0025634765625
0.0699462890625
-0.065185546875
0.04541015625
-0.064453125
-0.0076904296875
-0.00732421875
-0.005126953125
0.0018310546875
0.013916015625
-0.01611328125
-0.0201416015625
0.013916015625
-0.0157470703125
0.0098876953125
0.0208740234375
-0.0274658203125
0.0106201171875
-0.0208740234375
-0.022705078125
0.021240234375
-0.00146484375
-0.0025634765625
0.0875244140625
-0.0816650390625
0.0498046875
-0.017578125
0.0223388671875
0.0560302734375
-0.013916015625
-0.0010986328125
-0.065185546875
-0.01171875
-0.046142578125
0.035888671875
-0.046875
0.038818359375
-0.0274658203125
0.0303955078125
-0.0340576171875
0.040283203125
-0.0303955078125
0.0223388671875
-0.032958984375
0.0120849609375
-0.0098876953125
0.0084228515625
0.01171875
0.005126953125
-0.0025634765625
0.0157470703125
-0.012451171875
0.02197265625
-0.028564453125
0.03515625
-0.019775390625
0.02783203125
-0.030059814453125
0.031890869140625
-0.022003173828125
0.026763916015625
-0.0201416015625
0.021240234375
-0.0172119140625
0.01318359375
-0.0150146484375
0.0172119140625
-0.0230712890625
0.0281982421875
-0.0574951171875
0.03662109375
-0.0238037109375
0.032958984375
0.029296875
0.04541015625
0.035888671875
0.0267333984375
-0.0205078125
-0.01171875
-0.0853271484375
0.0303955078125
-0.03076171875
0.0487060546875
-0.0201416015625
0.049072265625
-0.037353515625
0.0479736328125
-0.031494140625
0.0377197265625
-0.0391845703125
0.0443115234375
-0.013916015625
0.0172119140625
0.0062255859375
0.0106201171875
0.00439453125
0.0157470703125
-0.006591796875
0.015411376953125
-0.01904296875
0.030426025390625
-0.0084228515625
0.019775390625
-0.024169921875
0.0281982421875
-0.01611328125
0.0223388671875
-0.0146484375
-0.0025634765625
-0.0098876953125
-0.01318359375
-0.0318603515625
0.017578125
0.0135498046875
-0.0267333984375
-0.0025634765625
0.0179443359375
-0.0018310546875
0.0787353515625
0.0296630859375
-0.0311279296875
-0.0487060546875
-0.0413818359375
-0.0150146484375
-0.02197265625
-0.004425048828125
0.0040283203125
-0.0106201171875
0.019775390625
-0.018310546875
0.01171875
-0.025299072265625
0.0054931640625
0.000732421875
-0.0281982421875
0.0142822265625
-0.0252685546875
0.030792236328125
-0.0172119140625
0.005126953125
-0.0069580078125
0.0029296875
-0.0047607421875
0.004058837890625
0.0
0.000732421875
-0.012481689453125
0.0087890625
-0.016143798828125
-0.0010986328125
-0.005859375
0.01025390625
-0.028564453125
-0.0003662109375
-0.01318359375
0.01025390625
-0.009521484375
0.005126953125
-0.012451171875
0.0
-0.01318359375
0.005126953125
-0.0146484375
-0.00439453125
-0.0025634765625
-0.01318359375
-0.000732421875
-0.0142822265625
0.022705078125
0.0487060546875
0.0179443359375
0.043212890625
-0.0325927734375
-0.0230712890625
-0.025634765625
-0.0355224609375
0.0172119140625
-0.0076904296875
0.0157470703125
0.0003662109375
0.012451171875
-0.0142822265625
0.01171875
-0.0098876953125
0.0076904296875
-0.0142822265625
0.005126953125
0.01171875
-0.01318359375
0.0252685546875
-0.0087890625
0.0150146484375
-0.0113525390625
0.00146484375
-0.0098876953125
-0.0047607421875
-0.000732421875
0.0025634765625
-0.0062255859375
-0.0106201171875
0.0076904296875
-0.021240234375
0.01318359375
0.018310546875
-0.016845703125
0.0205078125
0.0172119140625
0.0384521484375
0.03369140625
0.0113525390625
-0.0318603515625
-0.0498046875
-0.012451171875
-0.008056640625
0.003662109375
0.0025634765625
-0.0032958984375
-0.012451171875
0.0157470703125
-0.0113525390625
0.015380859375
-0.0201416015625
0.013916015625
-0.000732421875
-0.01318359375
0.0340576171875
-0.0260009765625
0.0311279296875
-0.017578125
0.0128173828125
-0.0146484375
-0.0076904296875
0.003662109375
0.0091552734375
-0.005126953125
0.01904296875
-0.0194091796875
0.0186767578125
-0.0245361328125
-0.0087890625
0.012451171875
-0.0347900390625
0.027099609375
0.0648193359375
-0.0655517578125
0.056396484375
-0.0084228515625
0.03369140625
0.0406494140625
0.0003662109375
-0.029296875
-0.0296630859375
-0.0380859375
0.0260009765625
-0.027099609375
-0.009521484375
0.0186767578125
-0.0274658203125
0.0399169921875
0.0084228515625
-0.0069580078125
0.0439453125
-0.046875
0.031494140625
-0.03662109375
0.0362548828125
-0.0274658203125
0.0472412109375
-0.0355224609375
0.0787353515625
-0.08203125
0.0501708984375
-0.0582275390625
0.02783203125
-0.0311279296875
0.049835205078125
-0.051666259765625
0.017974853515625
-0.020904541015625
0.0721435546875
-0.0703125
0.0897216796875
-0.090087890625
0.01611328125
-0.01904296875
-0.063720703125
0.0347900390625
-0.0025634765625
0.012451171875
0.0758056640625
-0.0010986328125
0.0831298828125
-0.04833984375
0.0032958984375
-0.049072265625
-0.05419921875
0.006591796875
0.046142578125
-0.0560302734375
-0.002197265625
-0.0069580078125
-0.0208740234375
0.0216064453125
0.005859375
-0.009521484375
-0.0029296875
-0.012451171875
0.005126953125
-0.01904296875
-0.0113525390625
0.012451171875
-0.012451171875
0.0179443359375
-0.025634765625
0.0142822265625
0.0106201171875
-0.0194091796875
0.0274658203125
-0.028564453125
0.0281982421875
-0.029296875
-0.0216064453125
0.013916015625
-0.0640869140625
0.0582275390625
-0.0421142578125
0.0322265625
0.0032958984375
-0.0106201171875
-0.0164794921875
0.0516357421875
-0.009521484375
0.082763671875
0.0098876953125
-0.03369140625
-0.0552978515625
-0.0194091796875
-0.0303955078125
0.0164794921875
-0.032958984375
0.030029296875
-0.050201416015625
0.0611572265625
-0.007720947265625
0.013916015625
-0.0091552734375
0.00439453125
-0.041015625
0.0333251953125
-0.0091552734375
0.0179443359375
0.035888671875
-0.015380859375
0.037384033203125
-0.0377197265625
0.007354736328125
-0.0157470703125
-0.000762939453125
0.0029296875
0.0201416015625
-0.0172119140625
0.004425048828125
-0.002197265625
-0.045806884765625
0.0501708984375
0.0
0.0029296875
0.0234375
-0.028564453125
0.002197265625
-0.002197265625
0.016143798828125
-0.0084228515625
0.04833984375
-0.0439453125
0.0435791015625
-0.0472412109375
-0.013916015625
0.0084228515625
-0.025634765625
0.03076171875
-0.0146484375
0.0194091796875
0.0238037109375
-0.0205078125
0.04541015625
-0.046142578125
0.062255859375
-0.0604248046875
0.0479736328125
-0.0380859375
0.000732421875
0.0025634765625
0.0205078125
-0.0172119140625
-0.003662109375
0.005859375
-0.0267333984375
0.0333251953125
-0.0087890625
0.018310546875
-0.002197265625
0.00732421875
-0.0054931640625
0.00439453125
-0.0120849609375
0.01171875
-0.01025390625
0.0150146484375
-0.0146484375
0.0179443359375
-0.005126953125
0.0084228515625
-0.019775390625
0.018310546875
-0.038818359375
0.0296630859375
-0.00439453125
-0.0010986328125
-0.01318359375
0.0421142578125
0.0150146484375
0.064453125
0.0025634765625
-0.017578125
-0.0545654296875
-0.016845703125
-0.027099609375
0.01904296875
-0.029693603515625
0.035552978515625
-0.041778564453125
0.064483642578125
-0.018310546875
0.0399169921875
-0.01318359375
0.013916015625
-0.044677734375
0.0238037109375
-0.025634765625
0.022705078125
0.0054931640625
0.015380859375
0.0091552734375
0.0032958984375
-0.015380859375
0.0135498046875
-0.008056640625
-0.01025390625
-0.012451171875
-0.0318603515625
-0.0743408203125
0.0435791015625
-0.0098876953125
-0.0556640625
0.076904296875
-0.128204345703125
-0.002197265625
0.1593017578125
-0.06298828125
0.197418212890625
-0.029296875
0.054931640625
-0.0194091796875
0.0633544921875
-0.0164794921875
0.03076171875
-0.0267333984375
0.055328369140625
-0.0322265625
0.087921142578125
-0.0179443359375
0.0384521484375
-0.0164794921875
-0.0421142578125
0.0062255859375
-0.091583251953125
0.002197265625
-0.056427001953125
-0.000732421875
-0.01171875
-0.00732421875
0.0098876953125
-0.01318359375
0.008056640625
-0.0087890625
-0.000732421875
-0.016845703125
0.0018310546875
-0.005859375
-0.00732421875
-0.019775390625
0.005859375
-0.0113525390625
0.00439453125
-0.01171875
0.0106201171875
-0.01318359375
0.009521484375
-0.0087890625
0.012481689453125
-0.0157470703125
0.022003173828125
-0.036285400390625
0.022705078125
0.00146484375
-0.008087158203125
0.0040283203125
0.0384521484375
0.008056640625
0.079498291015625
0.019073486328125
-0.0267333984375
-0.054962158203125
-0.0216064453125
-0.033355712890625
0.031494140625
-0.0069580078125
0.0205078125
-0.0172119140625
0.015380859375
-0.01611328125
0.006591796875
-0.028564453125
0.01611328125
-0.0142822265625
0.0087890625
0.00732421875
0.002197265625
0.015380859375
-0.0029296875
0.008056640625
-0.0106201171875
-0.01025390625
0.005859375
-0.01025390625
0.009521484375
-0.016845703125
0.013916015625
-0.003662109375
0.00146484375
-0.002197265625
-0.0230712890625
0.0003662109375
-0.0333251953125
-0.01318359375
-0.0029296875
-0.00732421875
-0.0087890625
-0.0084228515625
0.01611328125
0.02783203125
0.0377197265625
0.0560302734375
-0.052734375
-0.028564453125
-0.0355224609375
-0.0289306640625
-0.0054931640625
-0.0040283203125
0.000732421875
-0.0010986328125
0.0194091796875
-0.009521484375
0.0069580078125
-0.0216064453125
0.0018310546875
-0.0003662109375
-0.0179443359375
0.0216064453125
-0.0186767578125
0.044677734375
-0.0296630859375
0.0205078125
-0.0311279296875
0.0069580078125
-0.0142822265625
0.0032958984375
-0.0047607421875
0.002197265625
-0.011383056640625
0.0098876953125
-0.008087158203125
0.00439453125
0.0018310546875
0.0142822265625
-0.0179443359375
0.0025634765625
-0.0146484375
0.009521484375
-0.01025390625
0.009521484375
-0.0113525390625
0.0069580078125
-0.015380859375
0.003662109375
-0.00732421875
0.0010986328125
0.002197265625
0.01171875
-0.00732421875
0.0018310546875
-0.0025634765625
0.008087158203125
-0.0098876953125
-0.0029296875
0.0025634765625
0.0032958984375
0.0010986328125
0.003326416015625
-0.0003662109375
0.0025634765625
0.0003662109375
-0.001129150390625
-0.0010986328125
-0.0087890625
0.0091552734375
-0.000732421875
0.03076171875
0.03662109375
0.0399169921875
0.043975830078125
-0.0435791015625
-0.0325927734375
-0.0369873046875
-0.02783203125
0.01318359375
-0.005859375
0.0087890625
-0.005859375
0.0172119140625
0.0029296875
0.0087890625
-0.013214111328125
0.01171875
-0.007720947265625
-0.0010986328125
0.003662109375
-0.0084228515625
0.029693603515625
-0.0142822265625
0.023101806640625
-0.012451171875
0.00439453125
-0.0069580078125
0.0054931640625
-0.005859375
-0.000732421875
0.000732421875
0.0076904296875
-0.005126953125
0.0
0.000732421875
0.0091552734375
-0.0062255859375
0.006591796875
-0.0047607421875
0.010986328125
-0.0128173828125
0.01025390625
-0.01025390625
0.002197265625
0.0040283203125
-0.0303955078125
0.0113525390625
0.01611328125
-0.0069580078125
0.06005859375
0.013916015625
0.0501708984375
0.0091552734375
0.00146484375
-0.040283203125
-0.056396484375
-0.008056640625
0.006591796875
-0.009521484375
0.0003662109375
0.0040283203125
-0.016845703125
0.022705078125
0.0238037109375
-0.0216064453125
0.0194091796875
-0.03076171875
0.0106201171875
-0.01904296875
0.03076171875
-0.02490234375
0.0618896484375
-0.04833984375
0.0439453125
-0.037353515625
0.0230712890625
-0.0245361328125
0.04541015625
-0.046875
0.066650390625
-0.0684814453125
0.064453125
-0.0626220703125
0.0252685546875
-0.0238037109375
0.052398681640625
-0.050567626953125
0.050201416015625
-0.052032470703125
0.0340576171875
-0.0340576171875
0.03955078125
-0.0362548828125
-0.0128173828125
-0.0120849609375
0.0322265625
-0.018310546875
0.0428466796875
0.0384521484375
0.029296875
0.0157470703125
-0.021240234375
-0.0289306640625
-0.054931640625
0.0025634765625
-0.0003662109375
-0.0040283203125
-0.0179443359375
0.017578125
-0.0274658203125
0.0322265625
-0.0135498046875
0.010986328125
0.019775390625
-0.0325927734375
0.0
-0.01318359375
0.0128173828125
-0.0084228515625
0.0238037109375
-0.012451171875
0.0267333984375
-0.024169921875
0.025634765625
-0.03076171875
0.0040283203125
-0.00732421875
0.0157470703125
-0.01611328125
-0.006591796875
0.00146484375
-0.0120849609375
0.01171875
-0.0128173828125
0.0106201171875
0.0018310546875
-0.0032958984375
-0.012451171875
0.012451171875
-0.04248046875
0.0325927734375
-0.0223388671875
0.0391845703125
0.025634765625
0.0457763671875
0.02490234375
-0.016845703125
-0.05126953125
-0.00732421875
-0.046142578125
0.029296875
-0.0318603515625
0.029296875
-0.040283203125
0.035186767578125
-0.032989501953125
0.032989501953125
-0.026031494140625
0.0252685546875
-0.0087890625
-0.000732421875
-0.012451171875
0.005859375
0.000732421875
0.00732421875
0.0010986328125
0.0062255859375
-0.0091552734375
0.008056640625
-0.0263671875
0.021240234375
-0.022705078125
0.021240234375
-0.0146484375
0.0135498046875
-0.03076171875
0.0245361328125
-0.01904296875
0.0186767578125
-0.0146484375
0.015380859375
-0.0465087890625
0.01904296875
-0.009521484375
0.0120849609375
0.0406494140625
0.0325927734375
0.06591796875
-0.0128173828125
0.00732421875
-0.053466796875
-0.0494384765625
0.0
-0.0157470703125
0.0106201171875
-0.0267333984375
0.01904296875
-0.0406494140625
0.03955078125
0.0029296875
-0.00732421875
0.0234375
-0.041015625
0.0
-0.017578125
0.018310546875
-0.0135498046875
0.02783203125
-0.01904296875
0.021240234375
-0.0238037109375
0.0047607421875
-0.0128173828125
0.0260009765625
-0.027099609375
0.0574951171875
-0.0596923828125
0.035888671875
-0.038116455078125
0.010986328125
-0.009552001953125
0.0234375
-0.018310546875
0.0205078125
-0.0157470703125
-0.0091552734375
0.006591796875
0.000762939453125
0.0032958984375
0.023468017578125
-0.019775390625
0.02197265625
-0.021240234375
-0.0025634765625
0.0084228515625
-0.0029296875
0.0076904296875
0.006591796875
-0.00439453125
-0.045806884765625
0.0267333984375
0.0098876953125
-0.0032958984375
0.017578125
0.036285400390625
0.0303955078125
0.051300048828125
-0.0047607421875
-0.0216064453125
-0.052001953125
-0.030792236328125
-0.0025634765625
-0.0047607421875
-0.033355712890625
0.028228759765625
-0.0238037109375
0.0223388671875
-0.0289306640625
0.0296630859375
-0.0263671875
0.0238037109375
-0.02490234375
0.013916015625
0.0032958984375
0.0
0.0087890625
0.00439453125
-0.0084228515625
0.013916015625
-0.013916015625
0.0146484375
-0.0230712890625
0.0223388671875
-0.0091552734375
0.01318359375
-0.0164794921875
0.0230712890625
-0.0084228515625
0.02490234375
-0.0120849609375
0.0142822265625
-0.01318359375
0.003662109375
-0.01025390625
0.012451171875
-0.041748046875
0.0399169921875
0.005859375
0.000732421875
-0.017578125
0.047607421875
0.0062255859375
0.07470703125
0.0146484375
-0.0281982421875
-0.0523681640625
-0.032958984375
-0.03515625
0.01611328125
-0.0263671875
0.0267333984375
-0.0128173828125
0.0230712890625
-0.022705078125
0.0194091796875
-0.0238037109375
0.0106201171875
-0.0208740234375
0.0091552734375
0.0135498046875
-0.003662109375
0.0172119140625
-0.0010986328125
0.0054931640625
-0.003662109375
-0.00146484375
-0.0003662109375
-0.0087890625
0.00439453125
-0.005126953125
0.0032958984375
-0.0201416015625
0.0205078125
-0.0032958984375
0.0054931640625
-0.005859375
0.003662109375
-0.0333251953125
0.0084228515625
-0.0120849609375
0.0208740234375
0.0596923828125
0.0245361328125
0.0479736328125
-0.0245361328125
-0.03369140625
-0.0194091796875
-0.0333251953125
0.009521484375
-0.0186767578125
0.0142822265625
-0.008056640625
0.01025390625
-0.0106201171875
0.013916015625
-0.0128173828125
0.01171875
-0.01025390625
0.003326416015625
0.0054931640625
-0.002197265625
0.0318603515625
-0.018341064453125
0.012451171875
-0.0091552734375
0.0069580078125
-0.0062255859375
-0.0025634765625
0.003662109375
0.00146484375
0.00439453125
-0.0032958984375
0.0054931640625
-0.0029296875
-0.0003662109375
0.0054931640625
-0.0029296875
-0.0018310546875
0.005126953125
0.0069580078125
-0.00439453125
-0.0003662109375
0.00146484375
0.0047607421875
-0.0025634765625
0.002197265625
-0.0032958984375
0.0084228515625
-0.009521484375
0.005126953125
-0.0032958984375
-0.0032958984375
0.0047607421875
-0.00146484375
0.005126953125
-0.0443115234375
0.0216064453125
-0.0029296875
0.01025390625
0.050537109375
0.026763916015625
0.04833984375
-0.0150146484375
-0.0238037109375
-0.026763916015625
-0.050537109375
0.0142822265625
-0.0135498046875
0.018707275390625
-0.0146484375
0.031524658203125
0.0003662109375
0.0296630859375
-0.0172119140625
0.031494140625
-0.005859375
0.0003662109375
0.008056640625
-0.01318359375
0.0303955078125
-0.018310546875
0.0172119140625
-0.005859375
-0.000732421875
-0.0054931640625
0.013916015625
-0.0128173828125
0.0040283203125
0.0047607421875
0.0106201171875
-0.0040283203125
0.0
-0.0029296875
0.005126953125
-0.00439453125
0.0010986328125
-0.0098876953125
-0.0047607421875
-0.0186767578125
-0.0223388671875
-0.0047607421875
-0.0201416015625
0.027099609375
0.0523681640625
0.02197265625
0.0472412109375
-0.033721923828125
-0.018310546875
-0.036285400390625
-0.0421142578125
0.007354736328125
-0.0084228515625
0.009918212890625
-0.002197265625
0.0322265625
-0.0142822265625
0.0380859375
-0.015380859375
0.0142822265625
-0.019775390625
-0.002197265625
0.012451171875
-0.0146484375
0.0223388671875
-0.00439453125
0.01904296875
-0.01171875
0.0054931640625
0.0
0.00146484375
0.005859375
0.0
0.002197265625
-0.0113525390625
0.019775390625
0.0062255859375
-0.0047607421875
0.003662109375
-0.022705078125
0.0069580078125
-0.0172119140625
0.002197265625
0.0003662109375
0.0003662109375
-0.003662109375
-0.0010986328125
-0.00146484375
0.0010986328125
0.008056640625
0.0087890625
0.0040283203125
-0.003662109375
0.01171875
0.005859375
0.0062255859375
0.002197265625
0.005126953125
0.0054931640625
-0.0062255859375
-0.00439453125
0.0003662109375
-0.035888671875
0.01611328125
-0.0054931640625
0.019775390625
0.0439453125
0.0325927734375
0.076171875
-0.0311279296875
-0.0010986328125
-0.0545654296875
-0.0333251953125
-0.0201416015625
0.002197265625
0.00732421875
-0.0040283203125
0.0128173828125
-0.0087890625
0.0
-0.012451171875
0.0047607421875
-0.0230712890625
0.0194091796875
-0.0135498046875
0.0054931640625
0.038818359375
-0.0380859375
0.0208740234375
-0.0296630859375
0.01025390625
-0.017608642578125
0.002197265625
0.0018310546875
-0.002197265625
-0.003662109375
-0.000732421875
-0.005889892578125
-0.00439453125
-0.0003662109375
0.008056640625
-0.0208740234375
0.0029296875
-0.0252685546875
0.0120849609375
-0.0223388671875
0.003662109375
-0.0003662109375
0.0010986328125
-0.0091552734375
-0.000732421875
-0.016845703125
-0.0010986328125
-0.01025390625
-0.02490234375
0.008056640625
0.015380859375
-0.017578125
0.0223388671875
0.0135498046875
0.024169921875
0.0450439453125
0.0172119140625
-0.043212890625
-0.05419921875
-0.0340576171875
-0.0146484375
0.002197265625
-0.008056640625
0.0186767578125
-0.010986328125
0.0230712890625
-0.002197265625
0.0010986328125
-0.0201416015625
0.0
-0.0062255859375
-0.0113525390625
0.0157470703125
-0.01171875
0.0281982421875
-0.0146484375
0.0157470703125
-0.0186767578125
0.0032958984375
-0.0135498046875
0.00439453125
-0.00732421875
-0.0047607421875
0.003662109375
0.0062255859375
-0.0040283203125
-0.0003662109375
-0.000732421875
0.0098876953125
-0.0135498046875
0.0098876953125
-0.0150146484375
0.0010986328125
0.0
0.0
0.003662109375
0.00146484375
-0.0047607421875
0.0128173828125
-0.017578125
-0.00146484375
-0.0029296875
-0.0047607421875
0.0069580078125
-0.0355224609375
0.0179443359375
-0.0069580078125
0.0142822265625
0.0626220703125
0.0135498046875
0.046142578125
-0.029296875
-0.0238037109375
-0.030029296875
-0.041015625
0.0146484375
-0.00439453125
0.0018310546875
-0.0084228515625
0.01171875
-0.00732421875
0.0157470703125
-0.0186767578125
0.02197265625
-0.0205078125
0.0142822265625
0.0018310546875
-0.006591796875
0.027099609375
-0.0194091796875
0.03515625
-0.021240234375
0.0062255859375
-0.0091552734375
-0.003662109375
-0.006591796875
-0.0054931640625
-0.0003662109375
0.017578125
-0.019775390625
0.0172119140625
-0.0205078125
0.00146484375
-0.0047607421875
-0.0186767578125
0.0032958984375
0.0369873046875
-0.03955078125
0.0362548828125
0.0084228515625
0.02490234375
0.050537109375
0.010986328125
-0.0377197265625
-0.0325927734375
-0.0413818359375
0.0260009765625
-0.0322265625
-0.00439453125
-0.0032958984375
-0.0322265625
0.0289306640625
-0.01171875
0.010986328125
0.0091552734375
-0.0216064453125
0.0157470703125
-0.03515625
0.0087890625
-0.0157470703125
0.03662109375
-0.0289306640625
0.0303955078125
-0.028564453125
0.0369873046875
-0.049072265625
0.0633544921875
-0.073638916015625
0.053863525390625
-0.058624267578125
0.055694580078125
-0.0633544921875
0.0062255859375
-0.0201416015625
0.015380859375
-0.0179443359375
0.0457763671875
-0.0230712890625
0.0673828125
-0.0032958984375
0.0245361328125
-0.034423828125
-0.031494140625
-0.0311279296875
0.0
-0.0120849609375
-0.0025634765625
-0.0047607421875
-0.0087890625
0.0106201171875
-0.0172119140625
0.0230712890625
0.013916015625
-0.008056640625
0.005859375
-0.0098876953125
0.0032958984375
-0.0062255859375
0.029296875
-0.024169921875
-0.002197265625
-0.0003662109375
-0.0084228515625
0.005859375
-0.01318359375
0.0098876953125
0.005859375
-0.008056640625
0.0098876953125
-0.0142822265625
-0.0142822265625
0.012451171875
-0.0076904296875
0.01611328125
0.0135498046875
-0.0146484375
0.0120849609375
-0.016845703125
-0.015380859375
0.0205078125
-0.009521484375
0.0146484375
-0.01171875
0.006591796875
-0.009521484375
0.0062255859375
-0.009521484375
0.010986328125
0.0
0.0054931640625
0.019775390625
-0.01318359375
-0.0018310546875
-0.002197265625
-0.056396484375
0.0263671875
0.0029296875
0.008056640625
0.05859375
0.024169921875
0.0479736328125
0.00439453125
0.0018310546875
-0.03515625
-0.06005859375
0.013916015625
-0.0252685546875
0.027099609375
-0.021240234375
0.0391845703125
-0.025634765625
0.0498046875
-0.005859375
0.0289306640625
-0.027099609375
0.02197265625
-0.017578125
0.0106201171875
0.0120849609375
0.0069580078125
0.01171875
0.0040283203125
-0.0069580078125
-0.0018310546875
-0.0230712890625
0.015411376953125
-0.0069580078125
0.009918212890625
-0.0091552734375
0.003662109375
-0.010284423828125
-0.0032958984375
-0.026397705078125
0.0157470703125
-0.0450439453125
0.0267333984375
0.015380859375
-0.028228759765625
0.0003662109375
0.0263671875
0.0087890625
0.066680908203125
-0.00439453125
-0.010986328125
-0.053466796875
-0.0216064453125
-0.0230712890625
0.0128173828125
-0.0230712890625
0.0252685546875
-0.0296630859375
0.04541015625
-0.0252685546875
0.043212890625
-0.018310546875
0.018310546875
-0.021240234375
0.0069580078125
0.009521484375
-0.003662109375
0.0084228515625
0.0091552734375
-0.0025634765625
0.0098876953125
-0.0179443359375
0.02490234375
-0.0128173828125
0.0186767578125
-0.0113525390625
0.015380859375
-0.015380859375
0.0245361328125
-0.003662109375
-0.003662109375
-0.0113525390625
-0.0054931640625
-0.0084228515625
0.0128173828125
-0.0322265625
0.017578125
-0.0186767578125
0.024169921875
0.0347900390625
0.0435791015625
0.0498046875
-0.015380859375
-0.0205078125
-0.0205078125
-0.0509033203125
0.0289306640625
-0.0040283203125
0.0274658203125
-0.0106201171875
0.041015625
-0.012451171875
0.0205078125
-0.024169921875
0.01171875
-0.01611328125
0.006591796875
0.0084228515625
-0.00439453125
0.0128173828125
-0.002197265625
0.01318359375
-0.00732421875
-0.0029296875
0.0047607421875
-0.00732421875
0.005859375
-0.022705078125
0.0106201171875
-0.0135498046875
0.012451171875
0.0
-0.0087890625
0.0010986328125
-0.022705078125
-0.00146484375
-0.0054931640625
-0.0087890625
0.000732421875
-0.0040283203125
-0.0106201171875
-0.0106201171875
0.0029296875
0.0003662109375
-0.00146484375
-0.0032958984375
0.005126953125
-0.000732421875
0.0047607421875
-0.003662109375
0.0
-0.00732421875
0.0025634765625
0.002197265625
-0.000732421875
-0.0040283203125
0.0040283203125
0.0025634765625
-0.0054931640625
-0.009521484375
-0.0040283203125
-0.0047607421875
-0.0025634765625
-0.044708251953125
0.021240234375
0.00439453125
0.0076904296875
0.047271728515625
0.028228759765625
0.0552978515625
0.006591796875
0.0069580078125
-0.046539306640625
-0.0692138671875
-0.0010986328125
-0.0032958984375
0.0098876953125
-0.00439453125
0.023468017578125
-0.00439453125
0.0142822265625
-0.009521484375
0.008056640625
-0.019775390625
0.005157470703125
0.0
-0.011016845703125
0.019775390625
-0.013580322265625
0.0322265625
-0.025634765625
0.0069580078125
-0.0157470703125
0.0040283203125
-0.0047607421875
0.0
-0.0018310546875
0.0025634765625
-0.0098876953125
0.008056640625
-0.0069580078125
-0.0029296875
0.000732421875
0.0084228515625
-0.0135498046875
0.0025634765625
-0.015380859375
0.006591796875
-0.016845703125
0.0018310546875
-0.005126953125
0.005859375
-0.0062255859375
0.005126953125
-0.012451171875
0.0018310546875
-0.01025390625
0.006591796875
-0.0091552734375
-0.0040283203125
-0.002197265625
0.0054931640625
-0.0091552734375
-0.00146484375
-0.002197265625
-0.0399169921875
0.0150146484375
0.0
0.01025390625
0.0531005859375
0.0205078125
0.062255859375
-0.0172119140625
-0.0087890625
-0.0384521484375
-0.05419921875
0.0010986328125
-0.01025390625
0.0157470703125
-0.0003662109375
0.0150146484375
-0.0091552734375
0.015380859375
-0.0128173828125
0.0172119140625
-0.01318359375
0.0113525390625
-0.003662109375
-0.005859375
0.0274658203125
-0.0234375
0.02490234375
-0.015380859375
0.01611328125
-0.017578125
-0.0029296875
-0.006591796875
0.0025634765625
-0.0040283203125
0.01025390625
-0.01171875
0.0150146484375
-0.0208740234375
0.006591796875
-0.0128173828125
0.0003662109375
-0.0040283203125
0.02783203125
-0.02783203125
0.015380859375
-0.0194091796875
0.009521484375
-0.0087890625
0.01171875
-0.0128173828125
0.018310546875
-0.022705078125
0.013916015625
-0.0172119140625
0.01025390625
-0.0106201171875
0.0205078125
-0.019775390625
0.025634765625
-0.0274658203125
0.0377197265625
-0.0380859375
0.013916015625
-0.02197265625
0.0347900390625
-0.0377197265625
0.044677734375
-0.0223388671875
0.074371337890625
-0.0010986328125
0.049102783203125
-0.056427001953125
-0.0274658203125
-0.043975830078125
0.0179443359375
-0.0333251953125
-0.0032958984375
-0.006591796875
-0.0289306640625
0.0303955078125
-0.006591796875
0.0098876953125
-0.0018310546875
0.000732421875
-0.014312744140625
0.00146484375
-0.010650634765625
0.0040283203125
0.031158447265625
-0.0216064453125
0.031524658203125
-0.0260009765625
0.0113525390625
-0.0194091796875
-0.0146484375
0.000732421875
-0.0084228515625
0.010986328125
0.018310546875
-0.0142822265625
0.012451171875
-0.0135498046875
-0.01318359375
0.003662109375
0.00732421875
-0.01611328125
0.038818359375
-0.0399169921875
-0.00439453125
-0.0003662109375
-0.0186767578125
0.0245361328125
-0.040313720703125
0.030029296875
0.0260009765625
-0.021240234375
0.019073486328125
0.0260009765625
0.0054931640625
0.075439453125
-0.0040283203125
-0.009521484375
-0.05712890625
-0.01611328125
0.009521484375
-0.009521484375
-0.0025634765625
-0.0003662109375
-0.0106201171875
0.009521484375
-0.019439697265625
0.0223388671875
-0.025299072265625
0.0216064453125
-0.0142822265625
0.0076904296875
0.0084228515625
-0.003662109375
0.028228759765625
-0.01171875
0.005126953125
0.005126953125
-0.008453369140625
0.006591796875
-0.019775390625
0.013946533203125
-0.013916015625
0.01025390625
-0.01318359375
0.0120849609375
-0.015380859375
0.019439697265625
-0.0128173828125
0.013916015625
-0.01904296875
0.0150146484375
-0.012451171875
0.012451171875
-0.019775390625
0.0186767578125
-0.0120849609375
0.0113525390625
-0.057861328125
0.03662109375
-0.0069580078125
0.0135498046875
0.0120849609375
0.0450439453125
0.019775390625
0.0615234375
-0.0025634765625
-0.0263671875
-0.079833984375
-0.0047607421875
-0.0186767578125
0.0252685546875
-0.0205078125
0.0377197265625
-0.019775390625
0.031494140625
-0.03076171875
0.0263671875
-0.0369873046875
0.0362548828125
-0.0146484375
0.0201416015625
0.0076904296875
0.0084228515625
0.0223388671875
0.0091552734375
-0.0010986328125
0.015380859375
0.005859375
0.0128173828125
0.0032958984375
0.0164794921875
0.0054931640625
-0.006591796875
-0.0267333984375
0.0054931640625
0.000732421875
0.002197265625
0.076171875
-0.0201416015625
0.053466796875
-0.022705078125
0.0040283203125
-0.043212890625
-0.03955078125
-0.0040283203125
0.0205078125
-0.0087890625
0.0545654296875
-0.022705078125
0.0234375
-0.0076904296875
-0.0069580078125
0.0
-0.0113525390625
-0.0040283203125
0.063720703125
-0.0640869140625
0.06591796875
-0.0655517578125
0.0355224609375
-0.0391845703125
0.027099609375
-0.03076171875
0.021636962890625
-0.027099609375
0.017242431640625
-0.018310546875
0.003662109375
-0.0087890625
0.013916015625
-0.0311279296875
0.000732421875
-0.0252685546875
-0.042877197265625
0.0076904296875
0.002197265625
0.00439453125
0.036651611328125
0.02197265625
0.0450439453125
0.0069580078125
-0.008056640625
-0.0318603515625
-0.073638916015625
-0.003662109375
-0.028961181640625
0.0205078125
-0.0142822265625
0.03076171875
-0.022705078125
0.034423828125
-0.022705078125
0.02197265625
-0.02783203125
0.01171875
-0.0113525390625
0.0010986328125
0.0113525390625
-0.0047607421875
0.0010986328125
-0.003662109375
-0.0069580078125
0.003662109375
-0.0201416015625
0.0201416015625
-0.0087890625
0.0076904296875
-0.013916015625
0.009521484375
-0.013916015625
0.0172119140625
-0.0146484375
0.0164794921875
-0.0106201171875
0.0010986328125
-0.005126953125
-0.0010986328125
-0.0142822265625
0.012451171875
-0.006591796875
0.009521484375
-0.02197265625
0.0186767578125
-0.03955078125
0.01904296875
-0.0234375
0.0325927734375
0.0443115234375
0.0325927734375
0.0472412109375
-0.0263671875
-0.034423828125
-0.02197265625
-0.0472412109375
0.01904296875
-0.022705078125
0.02783203125
-0.0076904296875
0.025634765625
-0.0164794921875
0.029296875
-0.01904296875
0.0172119140625
-0.021240234375
0.0025634765625
-0.00439453125
-0.0029296875
0.0274658203125
-0.0146484375
0.01318359375
-0.0091552734375
0.0040283203125
-0.005859375
-0.010986328125
0.00732421875
-0.0010986328125
-0.0010986328125
0.0069580078125
-0.0076904296875
0.0010986328125
-0.0029296875
-0.006591796875
0.0069580078125
-0.02783203125
0.0098876953125
0.0179443359375
-0.0098876953125
0.0640869140625
0.0146484375
0.032958984375
-0.022705078125
-0.0201416015625
-0.034423828125
-0.0179443359375
0.003662109375
-0.013916015625
0.018310546875
-0.02783203125
0.0384521484375
-0.0238037109375
0.0267333984375
-0.0245361328125
0.0216064453125
-0.00732421875
-0.0010986328125
0.0032958984375
-0.0069580078125
0.025634765625
-0.01318359375
0.0201416015625
-0.019775390625
0.0047607421875
-0.0223388671875
0.003662109375
-0.0146484375
0.0205078125
-0.0208740234375
0.02490234375
-0.02490234375
-0.012451171875
0.006591796875
-0.005859375
0.0069580078125
0.005859375
-0.0084228515625
0.0142822265625
-0.0208740234375
0.00439453125
-0.005126953125
0.01611328125
-0.0186767578125
0.0208740234375
-0.0263671875
0.0010986328125
-0.00732421875
0.0040283203125
-0.0076904296875
-0.005126953125
-0.0025634765625
0.0157470703125
-0.02197265625
0.017578125
-0.0252685546875
0.0281982421875
-0.03369140625
0.03369140625
-0.034423828125
0.0303955078125
-0.03515625
0.0311279296875
-0.0380859375
0.006591796875
-0.016845703125
0.0106201171875
-0.016845703125
0.0087890625
-0.013916015625
0.012451171875
-0.019439697265625
0.0010986328125
-0.008453369140625
-0.0040283203125
-0.000732421875
-0.0003662109375
-0.00439453125
-0.0120849609375
0.0091552734375
0.0164794921875
-0.0120849609375
0.012451171875
-0.0150146484375
0.012451171875
-0.018310546875
-0.029296875
0.0150146484375
0.0029296875
-0.0010986328125
0.0135498046875
0.028228759765625
0.016510009765625
0.065216064453125
0.0201416015625
-0.035552978515625
-0.054595947265625
-0.030426025390625
-0.0135498046875
0.0
-0.00439453125
0.002197265625
0.0029296875
0.0029296875
0.0010986328125
0.010284423828125
-0.0146484375
0.016143798828125
-0.0157470703125
0.00732421875
-0.0032958984375
0.0054931640625
0.025634765625
-0.0025634765625
0.009521484375
0.006591796875
-0.0040283203125
0.008056640625
-0.017578125
0.019775390625
-0.0948486328125
0.1219482421875
-0.099609375
0.1431884765625
-0.010986328125
0.1025390625
0.1219482421875
-0.15966796875
0.0838623046875
-0.20654296875
-0.02197265625
0.0135498046875
-0.0106201171875
0.0186767578125
-0.0054931640625
0.01904296875
-0.0025634765625
0.0047607421875
-0.0062255859375
-0.01611328125
-0.0234375
0.00732421875
-0.057861328125
0.0875244140625
-0.043212890625
0.093017578125
-0.030029296875
0.0552978515625
-0.0194091796875
0.025634765625
-0.0201416015625
0.029296875
-0.008056640625
0.0223388671875
-0.00146484375
0.0047607421875
-0.0113525390625
0.009521484375
-0.00732421875
0.0150146484375
-0.0362548828125
0.013916015625
-0.00732421875
0.015380859375
0.031494140625
0.0501708984375
0.06005859375
-0.008056640625
-0.0010986328125
-0.03662109375
-0.031494140625
-0.012451171875
0.0201416015625
-0.0003662109375
0.0054931640625
0.0150146484375
0.01025390625
-0.0135498046875
-0.0032958984375
-0.0076904296875
0.0186767578125
-0.0377197265625
0.0296630859375
-0.044677734375
0.0238037109375
-0.0194091796875
0.02783203125
-0.0223388671875
0.017578125
-0.01171875
0.0120849609375
-0.0172119140625
-0.0010986328125
-0.0208740234375
0.008056640625
-0.0146484375
0.0040283203125
-0.0128173828125
0.00732421875
-0.027099609375
0.000732421875
-0.0062255859375
-0.005126953125
0.013916015625
-0.002197265625
-0.0010986328125
-0.012451171875
-0.0047607421875
-0.0029296875
-0.0069580078125
-0.01025390625
0.0084228515625
-0.00439453125
0.0054931640625
-0.0091552734375
0.0032958984375
-0.00732421875
0.0025634765625
-0.0054931640625
0.0076904296875
-0.0113525390625
0.0157470703125
-0.005859375
0.006591796875
-0.017578125
0.012451171875
-0.01025390625
0.008056640625
-0.0318603515625
0.02490234375
0.0135498046875
-0.009521484375
-0.0062255859375
0.038818359375
0.00732421875
0.075439453125
0.0318603515625
-0.0421142578125
-0.0472412109375
-0.0322265625
-0.0238037109375
0.0252685546875
-0.0164794921875
0.029296875
-0.0098876953125
0.0201416015625
-0.01318359375
0.012451171875
-0.0172119140625
0.005859375
-0.0142822265625
0.00439453125
0.0018310546875
0.0025634765625
0.0260009765625
-0.0113525390625
0.0084228515625
-0.015380859375
-0.0003662109375
-0.008056640625
-0.0069580078125
0.0087890625
-0.0040283203125
-0.0157470703125
-0.0164794921875
-0.0311279296875
-0.0791015625
0.0399169921875
0.0509033203125
-0.1051025390625
0.1175537109375
-0.17724609375
-0.032958984375
0.1578369140625
-0.052734375
0.2025146484375
0.008056640625
0.0318603515625
0.008056640625
0.030059814453125
-0.01025390625
0.028228759765625
-0.0146484375
0.0450439453125
-0.015380859375
0.052001953125
-0.0047607421875
0.01025390625
-0.0003662109375
-0.0615234375
0.0208740234375
-0.106231689453125
0.0150146484375
-0.068878173828125
0.0091552734375
-0.031494140625
0.0010986328125
-0.0091552734375
0.021240234375
-0.0274658203125
0.0252685546875
-0.0322265625
0.0029296875
-0.009521484375
0.0098876953125
-0.009521484375
-0.0120849609375
0.01318359375
-0.0120849609375
0.008056640625
-0.0113525390625
0.0062255859375
-0.04541015625
0.0194091796875
0.006591796875
-0.00146484375
0.0443115234375
0.0238037109375
0.0589599609375
-0.005126953125
-0.0010986328125
-0.040283203125
-0.04541015625
-0.0142822265625
0.000732421875
-0.005859375
-0.0186767578125
0.0263671875
-0.0281982421875
0.038818359375
0.005859375
-0.00439453125
0.021240234375
-0.034423828125
-0.000732421875
-0.0157470703125
0.0362548828125
-0.0318603515625
0.0465087890625
-0.0340576171875
0.0333251953125
-0.0311279296875
0.0120849609375
-0.0194091796875
0.031494140625
-0.03515625
0.0465087890625
-0.052001953125
0.0084228515625
-0.0142822265625
0.0087890625
-0.0120849609375
0.0340576171875
-0.03955078125
0.013916015625
-0.0450439453125
0.0010986328125
-0.003662109375
0.052032470703125
0.0289306640625
0.056793212890625
-0.0238037109375
0.002197265625
-0.049468994140625
-0.034820556640625
0.01025390625
-0.014678955078125
0.014312744140625
-0.0018310546875
0.005126953125
-0.01318359375
0.0208740234375
-0.00146484375
0.002197265625
-0.010986328125
-0.00439453125
-0.0076904296875
-0.0047607421875
0.0091552734375
-0.0025634765625
0.0025634765625
0.0076904296875
-0.0084228515625
0.006591796875
-0.0208740234375
0.0120849609375
-0.01171875
0.01025390625
-0.0186767578125
0.0150146484375
-0.0120849609375
0.0091552734375
-0.0069580078125
0.008056640625
-0.0216064453125
0.0172119140625
0.009521484375
-0.009521484375
-0.017578125
0.0457763671875
0.0076904296875
0.07470703125
0.01904296875
-0.025634765625
-0.0391845703125
-0.0325927734375
-0.032958984375
0.0238037109375
-0.01611328125
0.021240234375
-0.0150146484375
0.0281982421875
-0.027099609375
0.028564453125
-0.0223388671875
0.0128173828125
-0.01904296875
0.0054931640625
0.005859375
-0.0025634765625
0.0010986328125
0.013916015625
-0.0040283203125
0.012451171875
-0.0157470703125
0.0281982421875
-0.0157470703125
0.0260009765625
-0.0135498046875
0.0113525390625
-0.0172119140625
0.019775390625
0.003662109375
-0.0069580078125
-0.012451171875
0.005126953125
-0.00439453125
0.01611328125
0.002197265625
-0.0054931640625
0.0
-0.0106201171875
-0.005126953125
0.008056640625
-0.0098876953125
0.017578125
-0.0025634765625
0.00732421875
-0.01171875
0.005859375
-0.000732421875
-0.005859375
-0.010986328125
0.0087890625
-0.0106201171875
0.010986328125
-0.006591796875
0.00439453125
-0.0377197265625
0.0172119140625
0.0128173828125
-0.01171875
0.01171875
0.0340576171875
0.0406494140625
0.0369873046875
0.0194091796875
-0.044677734375
-0.041015625
-0.03662109375
-0.0040283203125
0.0164794921875
-0.000732421875
0.0208740234375
-0.0029296875
0.0
-0.0120849609375
0.0025634765625
-0.0062255859375
-0.0010986328125
-0.0106201171875
-0.00146484375
0.01611328125
-0.0128173828125
0.022705078125
-0.017578125
0.01318359375
-0.0234375
0.0025634765625
-0.009521484375
0.00146484375
-0.005859375
0.0003662109375
-0.005859375
-0.0084228515625
0.01025390625
0.005126953125
-0.0003662109375
0.0040283203125
-0.0084228515625
0.01025390625
-0.0157470703125
0.0018310546875
-0.0018310546875
-0.0377197265625
0.02197265625
0.015380859375
-0.01025390625
0.0322265625
0.021240234375
0.047607421875
0.027099609375
0.0029296875
-0.0318603515625
-0.0545654296875
-0.02197265625
-0.0106201171875
0.0025634765625
-0.005126953125
0.013916015625
-0.0069580078125
0.0267333984375
-0.0142822265625
0.02490234375
-0.0179443359375
0.006591796875
-0.0113525390625
-0.006591796875
0.0263671875
-0.02197265625
0.0289306640625
-0.013916015625
0.0146484375
-0.0128173828125
-0.006591796875
-0.0003662109375
-0.0025634765625
0.005126953125
0.006591796875
-0.0025634765625
0.005126953125
-0.0076904296875
0.0
-0.003662109375
-0.018310546875
0.00732421875
-0.010986328125
-0.002197265625
-0.009521484375
0.0274658203125
0.052734375
0.0238037109375
0.038818359375
-0.04248046875
-0.030029296875
-0.0333251953125
-0.0201416015625
0.0087890625
-0.0113525390625
0.013916015625
-0.00146484375
0.0084228515625
-0.0142822265625
0.013916015625
-0.0069580078125
0.008056640625
-0.0054931640625
-0.003662109375
0.01318359375
-0.017578125
0.0281982421875
-0.0172119140625
0.0260009765625
-0.022705078125
0.0164794921875
-0.025634765625
-0.0032958984375
-0.0047607421875
0.024169921875
-0.025634765625
0.0172119140625
-0.0205078125
-0.0084228515625
0.003662109375
-0.0186767578125
0.017578125
0.00146484375
0.0
0.0205078125
-0.0245361328125
0.0142822265625
-0.0201416015625
0.0230712890625
-0.025634765625
0.0146484375
-0.0205078125
0.0238037109375
-0.029296875
0.0194091796875
-0.0216064453125
0.031494140625
-0.0322265625
0.031494140625
-0.0369873046875
0.0230712890625
-0.0318603515625
0.0362548828125
-0.040283203125
0.0146484375
-0.0194091796875
0.0208740234375
-0.025665283203125
0.0260009765625
-0.030792236328125
0.033721923828125
-0.0406494140625
-0.0120849609375
-0.008056640625
0.0040283203125
-0.0098876953125
-0.01171875
0.039581298828125
-0.0003662109375
0.075469970703125
0.012451171875
-0.025665283203125
-0.054595947265625
-0.026397705078125
-0.01171875
-0.002197265625
-0.0208740234375
0.011749267578125
-0.0263671875
0.025299072265625
-0.0205078125
0.0223388671875
-0.0238037109375
0.015380859375
-0.0234375
0.003662109375
-0.0076904296875
0.0
0.025634765625
-0.0098876953125
0.0150146484375
-0.0018310546875
0.0
-0.0018310546875
-0.01318359375
0.0087890625
-0.0084228515625
0.01025390625
-0.0062255859375
0.0054931640625
-0.016845703125
0.0106201171875
-0.0377197265625
0.017578125
-0.0150146484375
0.027099609375
0.0604248046875
0.0186767578125
0.03515625
-0.012451171875
-0.0362548828125
-0.0146484375
-0.037353515625
0.017578125
-0.010986328125
0.009521484375
-0.018310546875
0.01025390625
-0.0230712890625
0.025634765625
-0.012451171875
0.02197265625
-0.0194091796875
0.0157470703125
0.0029296875
0.0003662109375
0.0208740234375
0.0010986328125
0.0179443359375
-0.0003662109375
0.000732421875
0.002197265625
-0.01318359375
0.010986328125
-0.00146484375
0.002197265625
-0.0498046875
0.0260009765625
0.0010986328125
0.006591796875
0.0531005859375
0.0216064453125
0.050537109375
-0.0150146484375
-0.0150146484375
-0.037353515625
-0.0596923828125
0.0201416015625
0.010986328125
-0.0113525390625
-0.00146484375
-0.000732421875
-0.019775390625
0.0230712890625
-0.0164794921875
0.017578125
0.0172119140625
-0.021240234375
0.0347900390625
-0.0439453125
0.019775390625
-0.021240234375
0.00439453125
-0.008056640625
0.016845703125
-0.024169921875
0.0406494140625
-0.0439453125
0.021240234375
-0.029296875
0.0069580078125
-0.01611328125
-0.003662109375
0.0
0.030029296875
-0.02783203125
0.0538330078125
-0.055694580078125
0.040283203125
-0.043609619140625
0.0084228515625
-0.02197265625
0.009552001953125
0.0
0.060455322265625
0.0087890625
0.0216064453125
-0.010986328125
-0.041046142578125
-0.01171875
-0.046905517578125
0.0252685546875
-0.01171875
0.009521484375
-0.006591796875
0.005126953125
-0.0106201171875
0.0172119140625
-0.0032958984375
0.0106201171875
-0.01318359375
0.000732421875
0.0216064453125
-0.0260009765625
0.03955078125
-0.0245361328125
0.016510009765625
-0.005859375
-0.00732421875
0.010986328125
-0.010284423828125
0.0172119140625
-0.006591796875
0.0135498046875
-0.0106201171875
0.013916015625
-0.003662109375
0.008056640625
-0.0106201171875
0.014312744140625
-0.005126953125
0.006256103515625
-0.013916015625
0.016845703125
-0.01171875
0.017578125
-0.0069580078125
0.012451171875
-0.0128173828125
0.0205078125
-0.0362548828125
0.0296630859375
0.0054931640625
-0.0003662109375
0.0113525390625
0.0325927734375
0.0076904296875
0.0765380859375
-0.0010986328125
-0.0084228515625
-0.06884765625
-0.0113525390625
-0.0322265625
0.0322265625
-0.0150146484375
0.0333251953125
-0.024169921875
0.029296875
-0.028564453125
0.027099609375
-0.034423828125
0.0325927734375
-0.005859375
0.0146484375
0.0084228515625
0.01611328125
0.0069580078125
0.0186767578125
0.0142822265625
0.0003662109375
0.005859375
0.008056640625
0.0069580078125
-0.000732421875
-0.0018310546875
0.0025634765625
0.0164794921875
-0.0120849609375
0.0186767578125
-0.0380859375
0.0
-0.0040283203125
0.0311279296875
-0.0205078125
0.0552978515625
-0.0655517578125
0.0252685546875
-0.028564453125
0.0340576171875
-0.0179443359375
0.073638916015625
-0.05859375
0.048004150390625
-0.049072265625
0.068115234375
-0.062286376953125
0.09228515625
-0.089019775390625
0.07763671875
-0.085693359375
0.0596923828125
-0.0615234375
0.03515625
-0.062255859375
0.0494384765625
-0.0538330078125
0.0604248046875
0.0054931640625
0.057861328125
-0.0216064453125
-0.0340576171875
-0.0205078125
-0.0615234375
0.0150146484375
-0.0260009765625
0.037353515625
-0.0333251953125
0.03369140625
-0.0194091796875
0.0047607421875
-0.034423828125
0.0267333984375
-0.031494140625
0.0263671875
-0.01611328125
0.01025390625
0.0150146484375
-0.015380859375
0.0084228515625
-0.018310546875
-0.0040283203125
-0.0032958984375
-0.01025390625
0.01171875
-0.02197265625
0.0150146484375
-0.013916015625
0.0150146484375
-0.0150146484375
0.0201416015625
-0.0098876953125
-0.0010986328125
-0.024169921875
0.006591796875
-0.0263671875
0.029296875
-0.029296875
0.0322265625
-0.0230712890625
0.01171875
-0.0201416015625
0.01318359375
-0.030029296875
0.028564453125
-0.02490234375
0.027496337890625
-0.034820556640625
0.032623291015625
-0.024200439453125
0.016845703125
-0.0274658203125
0.022705078125
-0.0267333984375
0.0303955078125
-0.022705078125
0.0267333984375
-0.0216064453125
0.01904296875
-0.01611328125
0.0113525390625
-0.0626220703125
0.0333251953125
-0.0318603515625
0.0435791015625
0.0208740234375
0.06298828125
0.0355224609375
-0.0029296875
-0.030029296875
-0.0260009765625
-0.06591796875
0.0194091796875
-0.0245361328125
0.0318603515625
-0.0263671875
0.047607421875
-0.0150146484375
0.028564453125
-0.0252685546875
0.021240234375
-0.024169921875
0.009521484375
-0.01318359375
0.0040283203125
0.0201416015625
-0.01025390625
0.0205078125
-0.010986328125
-0.0047607421875
-0.00146484375
-0.0087890625
0.00439453125
-0.0087890625
0.0076904296875
0.01025390625
-0.0087890625
-0.0025634765625
0.0054931640625
-0.009521484375
0.008056640625
0.0040283203125
-0.0087890625
0.0010986328125
-0.010986328125
0.027099609375
-0.02783203125
-0.0146484375
0.0494384765625
0.01318359375
0.06884765625
0.0245361328125
-0.0439453125
-0.028564453125
-0.0465087890625
-0.0245361328125
0.0142822265625
-0.027099609375
0.0267333984375
-0.01904296875
0.0267333984375
-0.0230712890625
0.0281982421875
-0.0164794921875
0.0179443359375
-0.0157470703125
0.0040283203125
0.0106201171875
-0.0098876953125
0.0234375
-0.010986328125
0.03076171875
-0.0274658203125
0.01611328125
-0.024169921875
0.008056640625
-0.013916015625
0.03076171875
-0.030029296875
0.034423828125
-0.032958984375
0.0025634765625
-0.005859375
-0.0186767578125
0.0106201171875
0.01611328125
-0.019775390625
0.0018310546875
-0.0084228515625
-0.0003662109375
0.002197265625
0.0172119140625
-0.010986328125
0.01904296875
-0.0205078125
0.013916015625
-0.0164794921875
-0.006591796875
0.00439453125
0.002197265625
-0.0029296875
0.0
-0.003662109375
0.0201416015625
-0.0216064453125
0.028564453125
-0.0311279296875
0.0179443359375
-0.0216064453125
-0.003662109375
0.0025634765625
-0.0498046875
0.0205078125
0.000732421875
0.0091552734375
0.05126953125
0.0347900390625
0.0501708984375
-0.0194091796875
-0.0164794921875
-0.03662109375
-0.032958984375
-0.0054931640625
0.0087890625
-0.01025390625
-0.0223388671875
0.0260009765625
-0.0216064453125
0.0252685546875
0.006591796875
-0.0029296875
0.0087890625
-0.0146484375
-0.01025390625
-0.0069580078125
0.022705078125
-0.0223388671875
0.040283203125
-0.031494140625
0.0076904296875
-0.005859375
-0.029296875
0.0208740234375
-0.02197265625
0.01318359375
0.0230712890625
-0.0245361328125
0.0062255859375
-0.013916015625
-0.015380859375
0.0047607421875
-0.021240234375
0.0128173828125
0.00732421875
-0.005126953125
0.0164794921875
-0.018310546875
-0.0604248046875
0.03076171875
-0.0281982421875
0.035888671875
0.02197265625
0.0494384765625
0.0501708984375
-0.0076904296875
-0.009521484375
-0.0443115234375
-0.0501708984375
-0.00146484375
-0.005126953125
0.005859375
-0.016845703125
0.010986328125
-0.0164794921875
0.013916015625
-0.0179443359375
0.019775390625
-0.013916015625
0.0062255859375
-0.005126953125
-0.0084228515625
0.022705078125
-0.01611328125
0.0164794921875
-0.005126953125
0.00732421875
-0.0003662109375
-0.003662109375
0.0084228515625
-0.0047607421875
0.0087890625
-0.003662109375
0.00732421875
-0.012451171875
0.01318359375
-0.00146484375
0.0047607421875
-0.0029296875
0.00146484375
0.00146484375
0.0003662109375
-0.0556640625
0.0362548828125
-0.0128173828125
0.0223388671875
0.032958984375
0.037353515625
0.050537109375
0.0179443359375
0.0010986328125
-0.03515625
-0.075439453125
0.00732421875
-0.018310546875
0.025634765625
-0.0234375
0.043212890625
-0.0194091796875
0.0252685546875
-0.0281982421875
0.0172119140625
-0.0281982421875
0.0223388671875
-0.0087890625
0.0113525390625
0.0062255859375
0.01025390625
0.0186767578125
0.0010986328125
0.0069580078125
0.00146484375
0.003662109375
0.0106201171875
-0.01171875
0.017974853515625
-0.0091552734375
0.007354736328125
-0.00146484375
0.003662109375
0.00439453125
-0.019439697265625
0.0025634765625
-0.022369384765625
-0.038848876953125
0.022369384765625
0.0263671875
-0.0340576171875
0.007354736328125
0.017578125
0.0194091796875
0.064117431640625
0.0296630859375
-0.033355712890625
-0.044677734375
-0.031158447265625
-0.018310546875
0.000732421875
-0.010986328125
0.018341064453125
0.000732421875
0.020904541015625
-0.012451171875
0.0179443359375
-0.0135498046875
0.0098876953125
-0.008087158203125
-0.002197265625
0.0146484375
-0.0120849609375
0.024200439453125
-0.0186767578125
0.010986328125
-0.020172119140625
0.0018310546875
-0.002960205078125
-0.0069580078125
0.0029296875
0.0029296875
-0.01025390625
0.000732421875
-0.00146484375
-0.0238037109375
0.0032958984375
0.0267333984375
-0.03369140625
0.0281982421875
0.017974853515625
0.037353515625
0.042877197265625
0.0128173828125
-0.037750244140625
-0.046142578125
-0.030792236328125
-0.0113525390625
0.0032958984375
-0.0040283203125
0.0098876953125
-0.00732421875
0.0179443359375
-0.0098876953125
0.01025390625
-0.0142822265625
0.0018310546875
-0.003662109375
-0.005126953125
0.0260009765625
-0.013916015625
0.02197265625
-0.0113525390625
0.0142822265625
-0.0157470703125
0.0040283203125
-0.009521484375
0.006591796875
-0.0062255859375
-0.0054931640625
0.0069580078125
-0.006591796875
0.0084228515625
0.0025634765625
0.0047607421875
0.00439453125
0.0
-0.0384521484375
0.013916015625
0.0018310546875
0.0010986328125
0.0450439453125
0.022369384765625
0.0487060546875
0.01611328125
0.009521484375
-0.046539306640625
-0.05859375
-0.0076904296875
-0.01025390625
0.0120849609375
-0.005859375
0.0142822265625
-0.01171875
0.0172119140625
-0.00439453125
0.008056640625
-0.015380859375
0.007720947265625
0.0029296875
-0.0146484375
0.0208740234375
-0.012481689453125
0.0245361328125
-0.009521484375
0.01171875
-0.0135498046875
-0.0032958984375
-0.005859375
0.00439453125
-0.01171875
0.0047607421875
-0.0106201171875
0.00732421875
-0.012451171875
-0.000732421875
-0.0003662109375
0.0098876953125
-0.008056640625
0.0087890625
-0.0150146484375
0.0040283203125
-0.0098876953125
0.00732421875
-0.0076904296875
0.005126953125
-0.0054931640625
0.0120849609375
-0.0106201171875
0.000732421875
-0.000732421875
-0.016845703125
0.0087890625
0.0234375
-0.0234375
0.01904296875
0.0120849609375
0.029296875
0.0487060546875
0.0296630859375
-0.0450439453125
-0.0260009765625
-0.050537109375
-0.002197265625
-0.005859375
-0.0032958984375
0.006591796875
-0.029296875
0.0347900390625
-0.0076904296875
0.0142822265625
0.0076904296875
-0.008056640625
-0.0047607421875
-0.00732421875
0.002197265625
-0.0029296875
0.0230712890625
-0.01025390625
0.0325927734375
-0.0263671875
0.0069580078125
-0.01318359375
0.0069580078125
-0.0142822265625
0.0399169921875
-0.0494384765625
0.0377197265625
-0.04833984375
-0.0010986328125
-0.0106201171875
0.0135498046875
-0.0179443359375
0.0380859375
-0.0362548828125
0.0245361328125
-0.0296630859375
-0.000732421875
-0.012451171875
0.0406494140625
-0.0421142578125
0.0457763671875
-0.0084228515625
0.033721923828125
0.0421142578125
0.0113525390625
-0.03369140625
-0.031524658203125
-0.0435791015625
0.0
-0.0087890625
-0.0172119140625
0.009521484375
-0.02783203125
0.02490234375
-0.0018310546875
0.00439453125
-0.0128173828125
0.0025634765625
-0.01025390625
-0.01171875
0.003662109375
-0.012451171875
0.0091552734375
-0.000732421875
0.0135498046875
-0.0018310546875
-0.0054931640625
0.0091552734375
-0.003662109375
0.00146484375
-0.019775390625
0.0157470703125
-0.0120849609375
0.01025390625
-0.0010986328125
0.00146484375
-0.0029296875
0.0010986328125
-0.005859375
-0.0040283203125
-0.0142822265625
0.008056640625
-0.0084228515625
0.0084228515625
-0.0552978515625
0.03076171875
0.00439453125
0.0018310546875
0.0281982421875
0.0318603515625
0.04541015625
0.0377197265625
0.0018310546875
-0.029296875
-0.066650390625
-0.0106201171875
-0.01318359375
0.010986328125
-0.018310546875
0.019775390625
-0.0062255859375
0.0216064453125
-0.0216064453125
0.027099609375
-0.0230712890625
0.0128173828125
-0.0179443359375
0.0076904296875
0.0091552734375
-0.0040283203125
0.01611328125
-0.0054931640625
-0.0032958984375
0.00732421875
-0.0029296875
0.0120849609375
-0.0179443359375
0.02197265625
-0.0087890625
0.0098876953125
-0.0087890625
0.0076904296875
-0.0091552734375
-0.0018310546875
-0.010986328125
-0.0025634765625
-0.0087890625
0.005859375
-0.0076904296875
0.0084228515625
-0.03515625
0.017578125
-0.01611328125
0.028564453125
0.0362548828125
0.041015625
0.04541015625
-0.018310546875
-0.0303955078125
-0.0172119140625
-0.0450439453125
0.0142822265625
-0.0113525390625
0.0157470703125
-0.010986328125
0.03369140625
-0.010986328125
0.024169921875
-0.024169921875
0.0157470703125
-0.0128173828125
-0.003662109375
0.00439453125
-0.0062255859375
0.0296630859375
-0.0146484375
0.0164794921875
-0.0135498046875
0.0018310546875
-0.0054931640625
0.003662109375
-0.0040283203125
-0.00146484375
0.0010986328125
0.0069580078125
0.00146484375
-0.0025634765625
0.01025390625
0.00439453125
-0.0040283203125
0.0003662109375
-0.0084228515625
0.0029296875
-0.005859375
0.00732421875
-0.005126953125
0.0032958984375
-0.002197265625
0.005859375
-0.0084228515625
-0.0025634765625
-0.0040283203125
0.0047607421875
-0.0047607421875
-0.0010986328125
0.0003662109375
0.0018310546875
-0.0029296875
-0.0098876953125
0.005859375
-0.016845703125
0.0135498046875
-0.0025634765625
0.0281982421875
0.04833984375
0.0281982421875
0.03955078125
-0.0399169921875
-0.037353515625
-0.0281982421875
-0.021240234375
0.009521484375
-0.0062255859375
0.006591796875
-0.0025634765625
0.002197265625
-0.00732421875
0.0087890625
-0.0150146484375
0.01611328125
-0.0084228515625
-0.003662109375
0.0047607421875
-0.01611328125
0.038818359375
-0.0303955078125
0.024169921875
-0.016845703125
0.00439453125
-0.0091552734375
-0.0054931640625
-0.000732421875
0.003662109375
-0.0062255859375
0.021240234375
-0.024169921875
-0.052001953125
0.0552978515625
-0.009521484375
0.0205078125
0.04833984375
0.02783203125
0.0809326171875
-0.056396484375
0.0340576171875
-0.126708984375
-0.0355224609375
-0.0047607421875
0.01318359375
-0.01611328125
-0.0069580078125
-0.0010986328125
-0.0267333984375
0.015380859375
-0.01318359375
-0.01171875
0.02490234375
-0.0406494140625
0.0205078125
-0.0076904296875
0.0113525390625
0.016845703125
0.0087890625
0.0003662109375
0.019775390625
-0.0260009765625
0.040283203125
-0.0498046875
0.0450439453125
-0.0545654296875
0.016845703125
-0.0238037109375
-0.0322265625
0.0172119140625
-0.0135498046875
0.003662109375
0.012451171875
-0.018310546875
0.01611328125
-0.02197265625
-0.0054931640625
0.005859375
-0.0054931640625
0.0084228515625
0.0106201171875
-0.009521484375
-0.0032958984375
-0.00146484375
-0.000732421875
-0.002197265625
-0.0106201171875
0.0146484375
-0.005126953125
0.010986328125
-0.005126953125
0.005126953125
0.0142822265625
-0.0146484375
0.0164794921875
-0.0216064453125
-0.017578125
0.0018310546875
-0.01025390625
0.0267333984375
0.0384521484375
0.040283203125
0.0531005859375
-0.0303955078125
-0.0252685546875
-0.0296630859375
-0.035888671875
0.0135498046875
-0.0146484375
0.016845703125
-0.0150146484375
0.019775390625
-0.0164794921875
0.0201416015625
-0.03076171875
0.028564453125
-0.0216064453125
0.0150146484375
-0.012451171875
0.01171875
0.015380859375
-0.0040283203125
0.0084228515625
-0.0018310546875
-0.0029296875
0.0091552734375
-0.0054931640625
0.0146484375
-0.0150146484375
0.0186767578125
-0.008056640625
0.0098876953125
-0.0150146484375
0.0146484375
-0.062255859375
0.0556640625
-0.0311279296875
0.0318603515625
0.02490234375
0.0509033203125
0.065185546875
-0.015380859375
0.0157470703125
-0.0897216796875
-0.05859375
0.00732421875
-0.0054931640625
0.010986328125
0.0062255859375
0.008056640625
-0.01025390625
0.016845703125
-0.019775390625
0.005859375
-0.03662109375
0.0318603515625
-0.0208740234375
0.0498046875
-0.0010986328125
0.0355224609375
0.0029296875
0.00439453125
-0.002197265625
0.003662109375
-0.018310546875
0.010986328125
-0.005126953125
-0.005126953125
-0.009521484375
0.0040283203125
0.005126953125
-0.019775390625
0.0084228515625
-0.0245361328125
-0.0128173828125
0.00146484375
0.0194091796875
-0.0245361328125
-0.00439453125
0.025634765625
0.022705078125
0.05712890625
0.03515625
-0.0333251953125
-0.02783203125
-0.0391845703125
-0.0223388671875
0.006591796875
-0.0032958984375
0.010986328125
-0.003662109375
0.0150146484375
-0.012451171875
0.01025390625
-0.01171875
0.005126953125
-0.010986328125
-0.00146484375
0.022705078125
-0.019775390625
0.024169921875
-0.013916015625
0.01318359375
-0.0146484375
0.002197265625
-0.0010986328125
-0.00146484375
0.000732421875
-0.0003662109375
-0.005859375
-0.00439453125
0.005859375
0.005859375
-0.0040283203125
0.00146484375
-0.012451171875
0.005126953125
-0.0120849609375
-0.00146484375
0.0054931640625
0.005859375
0.00146484375
0.0
-0.00146484375
-0.006591796875
0.0003662109375
0.0029296875
0.0
-0.005126953125
0.0106201171875
0.0029296875
0.0003662109375
-0.005126953125
0.0018310546875
0.000732421875
-0.0029296875
-0.0120849609375
0.005859375
-0.008056640625
0.0084228515625
-0.0047607421875
0.03369140625
0.032958984375
0.0406494140625
0.03955078125
-0.04541015625
-0.03662109375
-0.03369140625
-0.021240234375
0.0135498046875
-0.0106201171875
0.0146484375
-0.006591796875
0.0146484375
-0.0054931640625
0.01025390625
-0.01025390625
0.0062255859375
-0.006591796875
-0.0054931640625
0.002197265625
-0.009521484375
0.0325927734375
-0.0205078125
0.0223388671875
-0.018310546875
0.010986328125
-0.0146484375
0.0018310546875
-0.003662109375
0.0032958984375
-0.00439453125
0.008056640625
-0.01025390625
-0.0025634765625
-0.0032958984375
0.00439453125
-0.0062255859375
-0.0377197265625
0.012451171875
0.0245361328125
-0.015380859375
0.057861328125
0.01611328125
0.0498046875
0.00146484375
0.0018310546875
-0.041015625
-0.0362548828125
-0.015380859375
0.0157470703125
-0.018310546875
-0.01904296875
0.0205078125
-0.024169921875
0.029296875
-0.0194091796875
0.018310546875
0.0084228515625
-0.016845703125
0.0172119140625
-0.0267333984375
0.018310546875
-0.015380859375
0.013916015625
-0.006591796875
-0.0040283203125
0.0032958984375
0.0084228515625
-0.009521484375
0.028564453125
-0.0311279296875
0.0333251953125
-0.0380859375
-0.0069580078125
0.0
-0.005126953125
0.003662109375
0.022705078125
-0.0208740234375
0.0296630859375
-0.03076171875
0.0216064453125
-0.0208740234375
-0.0047607421875
0.005126953125
0.0018310546875
-0.00146484375
0.013916015625
-0.01611328125
0.0245361328125
-0.025634765625
0.0238037109375
-0.0245361328125
0.0281982421875
-0.030029296875
0.02197265625
-0.0223388671875
-0.0003662109375
-0.000732421875
-0.0025634765625
-0.00146484375
-0.0087890625
0.0062255859375
-0.035888671875
0.01318359375
0.0106201171875
-0.0018310546875
0.041015625
0.02490234375
0.052032470703125
0.01171875
-0.0054931640625
-0.0333251953125
-0.071075439453125
-0.0029296875
-0.0142822265625
0.0106201171875
-0.0113525390625
0.01171875
-0.0238037109375
0.0230712890625
-0.0106201171875
0.013916015625
-0.0179443359375
0.0113525390625
-0.017578125
0.000732421875
0.0087890625
-0.010986328125
0.0245361328125
-0.0135498046875
0.0205078125
-0.013916015625
-0.0062255859375
0.0047607421875
-0.01171875
0.01318359375
-0.0908203125
0.1640625
-0.0509033203125
0.10986328125
0.01904296875
0.035888671875
0.0626220703125
-0.135498046875
0.0714111328125
-0.2215576171875
-0.0113525390625
-0.00146484375
-0.0018310546875
0.000732421875
-0.0018310546875
-0.0084228515625
0.0076904296875
-0.036651611328125
0.009521484375
-0.049468994140625
-0.0091552734375
-0.0040283203125
-0.038818359375
0.080230712890625
-0.03515625
0.089019775390625
-0.00732421875
0.0340576171875
-0.0047607421875
0.0098876953125
0.0029296875
0.0003662109375
-0.0069580078125
0.00732421875
-0.002197265625
0.0018310546875
0.00146484375
0.0032958984375
0.002197265625
0.002197265625
0.002197265625
0.0010986328125
-0.0098876953125
0.0087890625
-0.0029296875
0.002197265625
-0.0084228515625
0.0076904296875
-0.003662109375
0.0025634765625
-0.006591796875
0.0047607421875
-0.0062255859375
0.0047607421875
-0.00439453125
0.002197265625
-0.003662109375
0.0
0.00146484375
-0.0029296875
-0.0076904296875
0.005126953125
0.0032958984375
-0.0054931640625
0.0025634765625
-0.0018310546875
0.0040283203125
-0.0029296875
-0.0172119140625
0.0025634765625
0.0322265625
-0.03076171875
0.02197265625
0.018310546875
0.0179443359375
0.0538330078125
0.0128173828125
-0.0399169921875
-0.0626220703125
-0.02490234375
-0.005126953125
-0.0150146484375
-0.0205078125
0.0135498046875
-0.0296630859375
0.035888671875
0.012451171875
-0.0091552734375
0.0230712890625
-0.0274658203125
0.013916015625
-0.0263671875
0.016845703125
-0.0194091796875
0.04833984375
-0.029296875
0.0223388671875
-0.01611328125
0.008056640625
-0.0113525390625
0.0054931640625
-0.008056640625
0.0216064453125
-0.0274658203125
0.025634765625
-0.02783203125
-0.008056640625
0.00439453125
0.0164794921875
-0.019805908203125
0.034423828125
-0.035919189453125
0.0128173828125
-0.0179443359375
0.0128173828125
-0.0172119140625
-0.0267333984375
0.0084228515625
0.008087158203125
0.0029296875
0.0377197265625
0.025299072265625
0.041015625
0.0260009765625
-0.0296630859375
-0.0098876953125
-0.080230712890625
0.013580322265625
-0.0164794921875
0.01611328125
-0.0260009765625
0.019775390625
-0.0230712890625
0.027099609375
-0.0157470703125
0.028564453125
-0.0179443359375
0.017578125
-0.016845703125
0.0
0.010986328125
-0.0146484375
0.0135498046875
-0.0029296875
0.006591796875
0.005126953125
-0.0120849609375
0.0128173828125
-0.0087890625
0.008056640625
-0.0047607421875
0.0087890625
-0.0084228515625
0.0135498046875
-0.0025634765625
0.00732421875
-0.0098876953125
0.0113525390625
-0.0032958984375
0.0047607421875
-0.04833984375
0.0223388671875
-0.0205078125
0.0322265625
0.03515625
0.04541015625
0.056396484375
-0.010986328125
-0.0084228515625
-0.035888671875
-0.062255859375
0.0120849609375
-0.0120849609375
0.0150146484375
-0.0234375
0.0369873046875
-0.021240234375
0.025634765625
-0.027099609375
0.0142822265625
-0.01611328125
0.000732421875
0.0098876953125
-0.010986328125
0.0377197265625
-0.0230712890625
0.03076171875
-0.0216064453125
-0.006591796875
0.0084228515625
-0.0054931640625
0.010986328125
-0.0135498046875
0.0150146484375
-0.0047607421875
0.0054931640625
-0.00439453125
0.0029296875
-0.0208740234375
0.012451171875
-0.0245361328125
0.0230712890625
-0.0069580078125
0.0164794921875
0.0076904296875
-0.000732421875
-0.032958984375
0.019775390625
-0.0260009765625
0.046142578125
0.0369873046875
0.0457763671875
0.0618896484375
-0.037353515625
-0.008056640625
-0.044677734375
0.0120849609375
-0.0413818359375
0.0421142578125
-0.03369140625
-0.0281982421875
0.0406494140625
-0.0245361328125
0.0238037109375
-0.0260009765625
0.0205078125
-0.017578125
0.01318359375
0.0069580078125
-0.01025390625
0.027099609375
-0.0205078125
0.0205078125
-0.027099609375
0.00146484375
-0.0062255859375
0.0010986328125
0.008056640625
-0.009521484375
0.005126953125
-0.0018310546875
-0.0025634765625
-0.0010986328125
-0.0062255859375
0.005126953125
-0.0194091796875
-0.0003662109375
-0.008056640625
-0.00146484375
0.002197265625
0.0062255859375
-0.005126953125
-0.00439453125
-0.00146484375
-0.000732421875
-0.0010986328125
-0.0113525390625
0.0142822265625
-0.0025634765625
0.0120849609375
0.0003662109375
0.0040283203125
-0.0010986328125
-0.0032958984375
-0.000732421875
0.0032958984375
-0.008056640625
0.0128173828125
-0.00439453125
0.0076904296875
-0.0084228515625
0.009521484375
0.00146484375
-0.0018310546875
-0.019775390625
0.0106201171875
0.0040283203125
-0.0047607421875
-0.006591796875
0.0369873046875
0.021240234375
0.0582275390625
0.0362548828125
-0.0450439453125
-0.03662109375
-0.0406494140625
-0.0194091796875
0.013916015625
-0.0135498046875
0.0208740234375
-0.0032958984375
0.0179443359375
-0.00439453125
0.0157470703125
-0.003662109375
-0.0029296875
-0.00732421875
-0.009521484375
0.0018310546875
-0.0047607421875
0.03076171875
-0.01611328125
0.0135498046875
-0.00732421875
0.0087890625
-0.01025390625
-0.0003662109375
-0.0047607421875
0.0040283203125
-0.000732421875
0.0084228515625
-0.0040283203125
-0.0010986328125
-0.0010986328125
0.0010986328125
-0.0029296875
0.003662109375
-0.0032958984375
0.0128173828125
-0.0106201171875
-0.0087890625
0.008056640625
-0.0347900390625
0.015380859375
-0.00732421875
0.016845703125
0.0673828125
0.0150146484375
0.04833984375
-0.03515625
-0.0347900390625
-0.0223388671875
-0.034423828125
0.0087890625
0.0003662109375
-0.0091552734375
0.005126953125
0.0003662109375
-0.01904296875
0.0234375
-0.0091552734375
0.0084228515625
-0.005126953125
-0.0087890625
0.0
-0.0128173828125
0.0234375
-0.018310546875
0.01904296875
-0.0120849609375
0.005859375
-0.008056640625
-0.0113525390625
0.002197265625
0.00439453125
-0.008056640625
0.0230712890625
-0.0281982421875
0.017578125
-0.022705078125
0.010986328125
-0.0106201171875
0.0194091796875
-0.0186767578125
0.016845703125
-0.017578125
-0.00732421875
0.00439453125
-0.008056640625
0.0069580078125
-0.0274658203125
0.0084228515625
-0.0054931640625
0.0164794921875
0.057861328125
0.0201416015625
0.037353515625
-0.024169921875
-0.0267333984375
-0.032958984375
-0.0322265625
0.000732421875
-0.0010986328125
-0.00439453125
-0.0201416015625
0.0216064453125
-0.0267333984375
0.0303955078125
-0.0238037109375
0.0216064453125
-0.016845703125
0.0010986328125
-0.003662109375
-0.006591796875
0.0128173828125
-0.0054931640625
0.02490234375
-0.0172119140625
0.0032958984375
-0.005126953125
0.0047607421875
-0.0087890625
-0.0025634765625
-0.0018310546875
-0.00146484375
0.0010986328125
-0.003662109375
0.0025634765625
-0.003662109375
0.00439453125
-0.0172119140625
0.0106201171875
0.022705078125
-0.02783203125
0.008056640625
0.0216064453125
0.0054931640625
0.073974609375
0.024169921875
-0.0340576171875
-0.0406494140625
-0.034423828125
-0.0194091796875
0.0091552734375
-0.0179443359375
0.0113525390625
-0.0098876953125
0.0076904296875
-0.0018310546875
0.005859375
-0.017578125
0.0128173828125
0.0003662109375
-0.0087890625
0.0150146484375
-0.0128173828125
0.0260009765625
-0.015380859375
0.01025390625
-0.0062255859375
0.0
0.00146484375
0.000732421875
0.002197265625
-0.006591796875
0.0069580078125
0.0069580078125
-0.01025390625
-0.00146484375
-0.003662109375
0.0032958984375
-0.0003662109375
0.0040283203125
0.000732421875
0.003662109375
-0.0003662109375
0.0
0.00146484375
0.002197265625
-0.002197265625
0.0205078125
-0.0186767578125
0.0076904296875
-0.0062255859375
0.0
0.0040283203125
-0.0516357421875
0.0252685546875
0.008056640625
-0.00146484375
0.0560302734375
0.016845703125
0.0538330078125
0.002197265625
-0.0054931640625
-0.035888671875
-0.0589599609375
-0.0047607421875
0.0172119140625
-0.02197265625
-0.00439453125
0.0040283203125
-0.0150146484375
0.0194091796875
0.0003662109375
0.0010986328125
0.0157470703125
-0.0230712890625
0.0098876953125
-0.0216064453125
0.025634765625
-0.0238037109375
0.05419921875
-0.0406494140625
0.0135498046875
-0.0091552734375
-0.00439453125
0.005126953125
0.0
-0.003662109375
0.0234375
-0.02490234375
0.0194091796875
-0.017578125
0.003662109375
-0.0018310546875
0.01318359375
-0.01025390625
0.0084228515625
-0.01171875
0.0106201171875
-0.0150146484375
-0.0087890625
0.008056640625
-0.0362548828125
0.017578125
-0.0091552734375
0.016845703125
0.0670166015625
0.0106201171875
0.049072265625
-0.025634765625
-0.0311279296875
-0.0238037109375
-0.040283203125
0.0087890625
-0.0186767578125
0.0164794921875
-0.0084228515625
0.009521484375
-0.0146484375
0.01171875
-0.0120849609375
0.00732421875
-0.0164794921875
0.0040283203125
0.000732421875
-0.0076904296875
0.02197265625
-0.01611328125
0.013916015625
-0.0087890625
0.0076904296875
-0.0069580078125
-0.0069580078125
0.006591796875
-0.0010986328125
0.005859375
-0.012451171875
0.0150146484375
-0.0098876953125
0.01171875
-0.00439453125
0.005859375
-0.003662109375
0.0062255859375
0.005126953125
0.00146484375
-0.006591796875
0.015380859375
-0.0472412109375
0.0347900390625
-0.000732421875
0.0106201171875
0.0311279296875
0.0234375
0.0399169921875
0.03515625
-0.0003662109375
-0.027099609375
-0.0673828125
-0.01025390625
-0.021240234375
0.0216064453125
-0.0076904296875
0.0106201171875
-0.0164794921875
0.0208740234375
-0.015380859375
0.0223388671875
-0.0245361328125
0.0172119140625
-0.013916015625
0.006591796875
0.016845703125
-0.002197265625
0.0205078125
0.0
0.0087890625
-0.0018310546875
-0.00732421875
0.005859375
-0.000732421875
0.0040283203125
-0.006591796875
0.005859375
-0.005126953125
0.00439453125
-0.0047607421875
0.0003662109375
-0.02197265625
-0.0047607421875
0.0223388671875
-0.0384521484375
0.003662109375
0.0296630859375
0.022705078125
0.07177734375
0.02197265625
-0.0186767578125
-0.0347900390625
-0.025634765625
-0.013916015625
0.017578125
-0.0069580078125
0.019775390625
0.002197265625
0.0142822265625
-0.00146484375
0.0164794921875
-0.0062255859375
0.01904296875
-0.0106201171875
0.0054931640625
0.02197265625
-0.0216064453125
0.0369873046875
-0.0230712890625
0.0098876953125
-0.0106201171875
-0.0172119140625
0.0069580078125
-0.018310546875
0.0142822265625
-0.0157470703125
0.0142822265625
-0.003662109375
-0.0003662109375
0.0179443359375
-0.0245361328125
0.0128173828125
-0.0267333984375
0.003662109375
-0.0135498046875
-0.0531005859375
0.0296630859375
0.005859375
-0.0047607421875
0.035888671875
0.01904296875
0.0673828125
0.0010986328125
0.0421142578125
-0.0867919921875
-0.073974609375
-0.0113525390625
-0.0186767578125
0.0274658203125
0.0128173828125
0.0025634765625
0.0252685546875
-0.0311279296875
0.0179443359375
-0.0322265625
-0.016845703125
0.009521484375
-0.0281982421875
0.02197265625
-0.0010986328125
0.0025634765625
0.0205078125
-0.017578125
0.003662109375
-0.010986328125
-0.00732421875
-0.008056640625
-0.019775390625
-0.000732421875
-0.0245361328125
0.008056640625
-0.0179443359375
0.00439453125
-0.0029296875
-0.0076904296875
-0.0325927734375
-0.0120849609375
0.0146484375
-0.034423828125
0.0439453125
0.0150146484375
0.0296630859375
0.02783203125
-0.021240234375
-0.01171875
-0.0732421875
0.019775390625
-0.0032958984375
-0.0025634765625
-0.0054931640625
0.0018310546875
-0.0267333984375
0.028564453125
-0.021240234375
0.0172119140625
-0.0128173828125
-0.0003662109375
0.01611328125
-0.02783203125
0.0252685546875
-0.0208740234375
0.0135498046875
-0.0003662109375
0.003662109375
0.0025634765625
0.0084228515625
-0.0040283203125
0.0377197265625
-0.0443115234375
0.0355224609375
-0.046875
-0.0032958984375
0.009521484375
-0.01904296875
0.028564453125
0.01611328125
-0.018310546875
0.022705078125
-0.038818359375
-0.009521484375
0.0032958984375
-0.02197265625
0.0322265625
-0.003662109375
0.008056640625
0.0025634765625
-0.0069580078125
-0.01171875
0.0040283203125
-0.0054931640625
0.0062255859375
-0.0029296875
0.005126953125
0.0
0.00146484375
0.0029296875
0.00732421875
-0.00146484375
0.0106201171875
0.0003662109375
0.0120849609375
0.0032958984375
0.0146484375
0.0
0.0186767578125
-0.0098876953125
0.0296630859375
-0.015380859375
0.0523681640625
0.032958984375
0.046875
0.0421142578125
-0.0322265625
-0.032958984375
-0.0260009765625
-0.0347900390625
0.0223388671875
-0.01025390625
0.0208740234375
-0.0146484375
0.0296630859375
-0.01171875
0.024169921875
-0.0205078125
0.01611328125
-0.0194091796875
0.0032958984375
-0.0025634765625
-0.0029296875
0.0179443359375
-0.008056640625
0.013916015625
-0.0098876953125
0.002197265625
0.002197265625
0.0047607421875
0.005859375
-0.008056640625
0.005859375
-0.0062255859375
-0.0069580078125
-0.0032958984375
-0.008056640625
0.0025634765625
-0.008056640625
-0.000732421875
-0.0069580078125
-0.0076904296875
0.005859375
-0.0040283203125
0.01025390625
-0.03515625
0.022705078125
-0.015380859375
0.030029296875
0.0391845703125
0.0318603515625
0.052734375
-0.0296630859375
-0.0216064453125
-0.037353515625
-0.0552978515625
0.008056640625
-0.0146484375
-0.0040283203125
-0.0142822265625
-0.0040283203125
-0.0098876953125
0.005859375
-0.0142822265625
0.012451171875
-0.0084228515625
-0.006591796875
0.005126953125
-0.021240234375
0.0289306640625
-0.024169921875
0.024169921875
-0.0135498046875
0.0069580078125
-0.006591796875
0.0025634765625
-0.0150146484375
-0.0076904296875
-0.024169921875
0.000732421875
-0.0238037109375
-0.000732421875
-0.010986328125
-0.0076904296875
-0.0179443359375
-0.0054931640625
-0.0263671875
-0.009521484375
0.0146484375
0.043212890625
0.03515625
0.031494140625
-0.03515625
-0.0391845703125
-0.040283203125
-0.02783203125
0.00439453125
-0.0032958984375
0.0
-0.0054931640625
0.0087890625
-0.0128173828125
0.0157470703125
-0.0172119140625
0.0146484375
-0.01025390625
0.0025634765625
0.0205078125
-0.0142822265625
0.034423828125
-0.0150146484375
0.0274658203125
-0.0120849609375
0.005126953125
0.0
-0.0032958984375
0.008056640625
-0.0069580078125
0.016845703125
-0.005859375
0.0274658203125
-0.016845703125
0.0531005859375
-0.0684814453125
0.057861328125
-0.0047607421875
0.0146484375
0.107666015625
-0.0552978515625
0.032958984375
-0.0252685546875
-0.037353515625
0.03515625
-0.0047607421875
-0.0054931640625
-0.0025634765625
0.0018310546875
-0.005126953125
0.0238037109375
-0.0054931640625
0.0208740234375
0.002197265625
0.022705078125
0.0120849609375
-0.0267333984375
-0.0040283203125
-0.0465087890625
-0.0032958984375
-0.018310546875
0.0179443359375
-0.038818359375
0.0498046875
-0.066650390625
0.04541015625
-0.038818359375
0.0157470703125
-0.003662109375
0.027099609375
-0.017578125
0.0457763671875
-0.0391845703125
0.0556640625
-0.035888671875
0.03515625
-0.021240234375
0.0340576171875
-0.031494140625
0.03369140625
-0.028564453125
0.020172119140625
-0.006591796875
-0.0205078125
0.0172119140625
0.022705078125
0.0025634765625
0.054595947265625
0.0223388671875
0.0450439453125
0.016845703125
-0.0142822265625
-0.017578125
-0.070709228515625
0.012451171875
0.0040283203125
0.0
0.0003662109375
0.0018310546875
-0.00146484375
-0.0025634765625
-0.0186767578125
0.008056640625
-0.059722900390625
0.0465087890625
-0.01611328125
-0.0010986328125
0.015380859375
-0.0230712890625
0.016845703125
0.0010986328125
0.01904296875
-0.0091552734375
0.0150146484375
-0.017578125
0.0087890625
-0.0230712890625
-0.0062255859375
-0.0399169921875
-0.009521484375
-0.0413818359375
-0.073974609375
0.0274658203125
0.088653564453125
-0.116119384765625
0.143218994140625
-0.170684814453125
-0.0029296875
0.1109619140625
0.037353515625
0.130401611328125
0.0875244140625
-0.03955078125
0.138427734375
-0.099639892578125
0.146881103515625
-0.101806640625
0.155670166015625
-0.111328125
0.1248779296875
-0.099609375
0.076904296875
-0.103302001953125
0.0413818359375
-0.125274658203125
0.010986328125
-0.0933837890625
-0.005859375
-0.0267333984375
-0.024169921875
0.0120849609375
-0.0369873046875
0.0252685546875
-0.06884765625
0.0509033203125
-0.056396484375
0.031494140625
-0.0963134765625
0.069244384765625
-0.109893798828125
0.095245361328125
-0.063385009765625
0.0574951171875
-0.0325927734375
0.017578125
0.0018310546875
-0.015380859375
-0.010986328125
0.00146484375
-0.0179443359375
0.0091552734375
-0.0380859375
0.0347900390625
-0.0428466796875
0.043212890625
-0.040283203125
0.035888671875
-0.034423828125
0.0322265625
-0.0296630859375
0.0230712890625
-0.054931640625
0.0443115234375
-0.0340576171875
0.028564453125
-0.043212890625
0.0604248046875
-0.00146484375
0.07470703125
0.003662109375
-0.0230712890625
-0.05859375
-0.0186767578125
-0.053863525390625
0.040283203125
-0.039581298828125
0.0435791015625
-0.0238037109375
0.030059814453125
-0.03369140625
0.019805908203125
-0.034423828125
0.032958984375
-0.0439453125
0.04248046875
-0.01611328125
0.0172119140625
0.00732421875
0.0
-0.0018310546875
-0.000732421875
-0.0157470703125
0.0164794921875
-0.0245361328125
0.022705078125
-0.0076904296875
0.0018310546875
-0.015380859375
0.0128173828125
-0.01171875
0.005126953125
-0.0142822265625
-0.0025634765625
-0.002197265625
-0.008056640625
-0.0054931640625
0.005126953125
-0.024169921875
0.0296630859375
-0.0076904296875
0.01904296875
-0.02197265625
0.01611328125
-0.0142822265625
0.00439453125
-0.0281982421875
0.0501708984375
0.0128173828125
0.066650390625
0.0216064453125
-0.02783203125
-0.0347900390625
-0.0333251953125
-0.0340576171875
0.0216064453125
-0.0325927734375
0.0311279296875
-0.0201416015625
0.0274658203125
-0.021240234375
0.0146484375
-0.013916015625
0.005126953125
-0.02490234375
0.01025390625
-0.0087890625
0.0018310546875
0.012451171875
-0.003662109375
0.0018310546875
-0.00146484375
-0.0128173828125
0.0025634765625
-0.0245361328125
0.0098876953125
-0.0062255859375
-0.0062255859375
-0.008453369140625
-0.008056640625
-0.017974853515625
-0.0029296875
-0.0216064453125
0.006591796875
-0.0025634765625
-0.0018310546875
0.0069580078125
-0.00732421875
-0.003662109375
-0.00146484375
-0.0322265625
0.0040283203125
0.0010986328125
0.0047607421875
0.030029296875
0.0421142578125
0.047271728515625
0.010986328125
0.037017822265625
-0.0706787109375
0.013916015625
-0.0721435546875
0.0589599609375
-0.0582275390625
0.0732421875
-0.0589599609375
0.0926513671875
-0.0911865234375
0.1307373046875
-0.127471923828125
0.162261962890625
-0.157867431640625
0.164093017578125
-0.1519775390625
0.1431884765625
-0.1025390625
0.081298828125
-0.032958984375
0.006591796875
0.0311279296875
-0.0216064453125
0.052734375
-0.0025634765625
0.0369873046875
0.0003662109375
0.0252685546875
-0.0076904296875
0.0223388671875
-0.0216064453125
0.035888671875
-0.0076904296875
0.01611328125
-0.0054931640625
0.0084228515625
-0.0230712890625
0.02197265625
-0.0146484375
0.0150146484375
-0.02490234375
0.0509033203125
0.03515625
0.04541015625
0.0230712890625
-0.0252685546875
-0.0391845703125
-0.0164794921875
-0.0303955078125
0.016845703125
-0.0325927734375
0.0223388671875
-0.0391845703125
0.0421142578125
-0.0531005859375
0.053497314453125
-0.0516357421875
0.049468994140625
-0.05126953125
0.0325927734375
-0.0230712890625
0.0186767578125
-0.014678955078125
0.0333251953125
-0.017974853515625
0.0322265625
-0.027099609375
0.0146484375
-0.0369873046875
0.0164794921875
-0.0322265625
0.02490234375
-0.0318603515625
0.0238037109375
-0.018310546875
0.01025390625
-0.025634765625
0.018310546875
-0.0245361328125
0.016845703125
-0.02783203125
0.0263671875
-0.0318603515625
0.0333251953125
-0.0439453125
0.032958984375
-0.035888671875
0.0501708984375
0.03662109375
0.0380859375
0.022705078125
-0.01611328125
-0.0428466796875
-0.010986328125
-0.052001953125
0.0322265625
-0.0289306640625
0.037353515625
-0.024169921875
0.041748046875
-0.02783203125
0.035919189453125
-0.027099609375
0.024932861328125
-0.030029296875
0.006591796875
-0.00146484375
-0.0084228515625
0.0150146484375
-0.0040283203125
0.012451171875
-0.006591796875
-0.0098876953125
0.01025390625
-0.0142822265625
0.0087890625
-0.008056640625
-0.005126953125
-0.0084228515625
-0.0062255859375
-0.005126953125
-0.0113525390625
-0.054962158203125
0.0164794921875
-0.012481689453125
0.0157470703125
0.053863525390625
0.025634765625
0.043243408203125
-0.0084228515625
-0.025665283203125
-0.01171875
-0.047271728515625
0.0157470703125
-0.01025390625
0.0040283203125
-0.0234375
0.02197265625
-0.015380859375
0.018310546875
-0.0179443359375
0.017578125
-0.015380859375
0.0029296875
-0.006591796875
-0.0084228515625
0.0157470703125
-0.0179443359375
0.0135498046875
-0.0179443359375
-0.008056640625
-0.00439453125
-0.002197265625
-0.0018310546875
-0.0029296875
0.0040283203125
0.0029296875
-0.008056640625
-0.0032958984375
-0.0054931640625
0.0032958984375
0.000732421875
0.0047607421875
-0.0047607421875
0.0025634765625
-0.0076904296875
0.006591796875
-0.0047607421875
-0.0267333984375
0.01611328125
0.024169921875
-0.02197265625
0.01171875
0.02197265625
0.023834228515625
0.047607421875
0.0135498046875
-0.0260009765625
-0.038116455078125
-0.0223388671875
-0.005859375
0.008056640625
-0.0150146484375
0.0194091796875
-0.0098876953125
0.01904296875
-0.012451171875
0.0201416015625
-0.0062255859375
0.006591796875
-0.0128173828125
-0.00439453125
0.0142822265625
-0.01904296875
0.0303955078125
-0.0106201171875
0.0146484375
-0.002197265625
0.005859375
-0.0025634765625
-0.00146484375
0.005126953125
-0.0135498046875
0.01904296875
-0.037353515625
0.0223388671875
0.005126953125
-0.0699462890625
0.093414306640625
-0.088653564453125
0.0234375
0.0494384765625
-0.044342041015625
0.065216064453125
0.0025634765625
0.008056640625
0.005126953125
0.0164794921875
0.009521484375
0.006591796875
0.0186767578125
0.0054931640625
-0.008056640625
0.0377197265625
-0.0274658203125
0.0406494140625
-0.0047607421875
-0.0069580078125
0.037750244140625
-0.064453125
0.047637939453125
-0.0673828125
0.0267333984375
-0.0325927734375
0.0069580078125
0.0
0.003662109375
-0.0003662109375
0.087158203125
-0.099273681640625
0.114990234375
-0.130035400390625
0.082763671875
-0.0897216796875
0.040283203125
-0.0439453125
0.0556640625
-0.0556640625
0.117950439453125
-0.119384765625
0.119415283203125
-0.122711181640625
0.095947265625
-0.087921142578125
0.08056640625
-0.07763671875
0.0589599609375
-0.0538330078125
0.025634765625
-0.0223388671875
0.0333251953125
-0.0413818359375
0.041015625
-0.046142578125
0.0201416015625
-0.02490234375
0.00732421875
-0.0087890625
-0.0040283203125
0.0003662109375
-0.0091552734375
0.0029296875
-0.0355224609375
0.02197265625
-0.0699462890625
0.057861328125
-0.0963134765625
0.0648193359375
-0.07470703125
0.0772705078125
0.0113525390625
0.059326171875
0.0574951171875
-0.0380859375
-0.0025634765625
-0.0640869140625
-0.0501708984375
0.0032958984375
-0.0150146484375
0.02490234375
-0.025634765625
0.0201416015625
-0.018310546875
0.003662109375
-0.021240234375
0.01611328125
-0.029296875
0.013916015625
-0.00732421875
-0.0084228515625
-0.002197265625
-0.003662109375
0.01025390625
-0.015380859375
0.006591796875
-0.006591796875
-0.0018310546875
0.0018310546875
-0.019775390625
0.0106201171875
-0.028564453125
0.0245361328125
-0.030426025390625
0.022705078125
-0.059356689453125
0.031494140625
-0.0208740234375
0.0281982421875
0.036285400390625
0.038116455078125
0.0120849609375
-0.0087890625
-0.047637939453125
-0.005859375
-0.0369873046875
0.0267333984375
-0.0260009765625
0.027099609375
-0.046875
0.055694580078125
-0.0384521484375
0.050537109375
-0.04248046875
0.0399169921875
-0.0238037109375
0.0098876953125
-0.0032958984375
0.00439453125
0.0069580078125
0.012451171875
-0.0146484375
0.0234375
-0.02783203125
0.0274658203125
-0.008056640625
0.0120849609375
-0.00732421875
0.00146484375
-0.0128173828125
0.0062255859375
-0.031494140625
0.031494140625
-0.0135498046875
0.0179443359375
-0.0091552734375
0.005126953125
-0.029296875
0.017578125
-0.03076171875
0.0523681640625
0.022705078125
0.0523681640625
0.0355224609375
-0.0325927734375
-0.0399169921875
-0.0216064453125
-0.0380859375
0.019775390625
-0.0252685546875
0.0216064453125
-0.02490234375
0.0267333984375
-0.019775390625
0.0238037109375
-0.01318359375
0.0128173828125
-0.010284423828125
-0.0054931640625
-0.010284423828125
-0.0003662109375
0.018341064453125
-0.0076904296875
-0.0003662109375
0.0040283203125
-0.014678955078125
0.0076904296875
-0.012451171875
0.003662109375
0.001129150390625
-0.0091552734375
0.00146484375
-0.00732421875
-0.029693603515625
0.0201416015625
-0.0194091796875
0.0146484375
-0.003662109375
0.000732421875
0.0018310546875
-0.005126953125
-0.01171875
0.0113525390625
-0.0091552734375
0.0084228515625
-0.003662109375
0.000732421875
-0.015380859375
0.0120849609375
-0.010986328125
0.0120849609375
-0.008056640625
0.009521484375
0.0003662109375
-0.0040283203125
-0.005126953125
0.0003662109375
-0.0318603515625
0.011749267578125
-0.0091552734375
0.017608642578125
0.0626220703125
0.018310546875
0.050537109375
-0.027496337890625
-0.0267333984375
-0.024566650390625
-0.032958984375
0.0091552734375
-0.00732421875
0.007354736328125
-0.0032958984375
0.011016845703125
-0.0113525390625
0.018310546875
-0.0047607421875
0.009521484375
-0.0098876953125
0.005126953125
-0.0010986328125
-0.0047607421875
0.0289306640625
-0.018310546875
0.0245361328125
-0.005126953125
0.0150146484375
-0.00732421875
0.002197265625
-0.005859375
0.018310546875
-0.019439697265625
0.0172119140625
-0.017608642578125
-0.0076904296875
0.0025634765625
-0.012451171875
0.0084228515625
0.0084228515625
0.0
0.02197265625
-0.0172119140625
-0.008056640625
0.0047607421875
-0.0098876953125
0.01318359375
-0.029296875
0.022369384765625
0.022705078125
-0.01611328125
0.02490234375
0.013916015625
0.033355712890625
0.041778564453125
0.0201416015625
-0.037017822265625
-0.046539306640625
-0.026031494140625
-0.0032958984375
0.0010986328125
-0.010986328125
0.0084228515625
-0.000732421875
0.0054931640625
0.0029296875
0.009185791015625
-0.002197265625
0.004791259765625
-0.0054931640625
-0.006591796875
0.009521484375
-0.008819580078125
0.037017822265625
-0.022369384765625
0.014678955078125
-0.003662109375
0.0003662109375
0.0076904296875
-0.006256103515625
0.0087890625
0.003662109375
0.0018310546875
0.001861572265625
-0.003662109375
-0.008056640625
0.0040283203125
-0.000732421875
0.0018310546875
-0.002197265625
0.000732421875
0.0106201171875
-0.0062255859375
0.0018310546875
0.0010986328125
-0.0040283203125
0.011383056640625
-0.048736572265625
0.034088134765625
-0.018707275390625
0.02783203125
0.038818359375
0.0380859375
0.059356689453125
-0.009521484375
-0.00146484375
-0.046875
-0.065582275390625
0.0157470703125
-0.00732421875
0.02783203125
-0.0010986328125
0.024169921875
0.005126953125
0.0091552734375
-0.016845703125
0.022705078125
-0.0146484375
0.0076904296875
0.016845703125
-0.016845703125
0.028594970703125
-0.0135498046875
0.058624267578125
-0.04248046875
0.059326171875
-0.0439453125
0.060791015625
-0.046539306640625
0.0487060546875
-0.043243408203125
0.034423828125
-0.0380859375
0.076171875
-0.08935546875
0.0845947265625
-0.1036376953125
0.0556640625
-0.0574951171875
0.0589599609375
-0.0662841796875
0.0172119140625
-0.0574951171875
-0.0025634765625
0.0010986328125
-0.0091552734375
0.0574951171875
0.029327392578125
0.0439453125
0.046539306640625
-0.0794677734375
-0.0069580078125
-0.0849609375
0.0069580078125
-0.01171875
0.0091552734375
-0.00146484375
-0.01171875
0.0087890625
-0.01318359375
-0.0032958984375
-0.024932861328125
0.000732421875
-0.019073486328125
0.005859375
0.006591796875
-0.006591796875
0.0076904296875
-0.010986328125
-0.13330078125
0.1285400390625
-0.139892578125
0.138427734375
