-0.1278076171875
0.748992919921875
-0.1248779296875
0.748992919921875
0.0029296875
0.0
0.0062255859375
0.0
0.012451171875
0.0
0.0098876953125
0.0
0.000732421875
0.0
0.01025390625
0.0
0.0194091796875
0.0
0.008056640625
0.0
0.0128173828125
0.0
-0.0010986328125
0.0
-0.0157470703125
0.0
-0.0047607421875
0.0
0.016845703125
0.0
0.13916015625
0.0003662109375
0.16552734375
0.0
0.0692138671875
-0.0003662109375
0.0391845703125
0.0
0.025634765625
0.0
0.01318359375
0.0
0.00439453125
0.0
0.00146484375
0.0
-0.0032958984375
0.0
0.002593994140625
0.0
0.002197265625
0.0
-0.004791259765625
0.0
-0.010986328125
0.0
-0.009521484375
0.0003662109375
-0.003662109375
0.0003662109375
-0.0040283203125
-0.0003662109375
-0.00439453125
-0.0003662109375
-0.0029296875
0.0003662109375
-0.01025390625
0.0
-0.0443115234375
-0.0003662109375
-0.04833984375
0.0
0.0142822265625
0.0003662109375
0.01904296875
0.0
-0.0157470703125
-0.0003662109375
-0.0084228515625
0.0
-0.003662109375
0.0
-0.0018310546875
0.0003662109375
-0.0054931640625
-0.152740478515625
-0.0172119140625
-1.0
-0.0142822265625
-1.0
0.0010986328125
0.0
0.00439453125
0.0
-0.0069580078125
0.0
-0.01611328125
0.0
-0.009521484375
0.0
0.0025634765625
0.0
0.010986328125
0.0
-0.0062255859375
0.0
-0.010986328125
0.0
0.0010986328125
0.0
-0.0040283203125
0.0
-0.0025634765625
0.0
-0.0040283203125
0.0
0.005126953125
0.0
0.0018310546875
0.0
-0.0150146484375
0.0
-0.0172119140625
0.0
-0.0281982421875
0.0
-0.0274658203125
0.0
-0.0172119140625
0.0
-0.0252685546875
0.0
-0.0421142578125
0.0
-0.0216064453125
0.0
0.114990234375
0.0
0.04248046875
0.0
-0.1226806640625
1.0
-0.04248046875
1.0
0.00146484375
0.0
-0.0113525390625
0.0
0.0032958984375
0.0
0.0047607421875
0.0
-0.015380859375
0.0
-0.034423828125
0.0
-0.0172119140625
0.0
0.0076904296875
0.0
0.0076904296875
0.0
0.0281982421875
0.0
0.0150146484375
0.0
-0.0076904296875
0.0
-0.0234375
0.0
-0.04541015625
0.0
-0.0157470703125
0.0
0.01904296875
0.0
0.034423828125
0.0
0.0113525390625
-0.0003662109375
-0.0029296875
0.0
-0.000732421875
0.0003662109375
0.00146484375
0.0
0.006591796875
0.0
0.0128173828125
0.0
0.00732421875
0.0
-0.0098876953125
0.0
-0.0029296875
0.0
-0.00732421875
0.0
0.012451171875
0.0
0.0289306640625
0.0
0.0267333984375
0.0
0.0150146484375
0.0
-0.0245361328125
0.0003662109375
0.0274658203125
0.0
0.0399169921875
-0.0003662109375
0.0032958984375
-0.0003662109375
0.01904296875
0.0
0.017578125
0.0003662109375
0.0098876953125
0.0
0.003662109375
0.0
0.0029296875
0.0
-0.0032958984375
0.0
-0.0040283203125
0.0
-0.00439453125
0.0
0.0018310546875
0.0
0.0040283203125
0.0003662109375
-0.0018310546875
0.0
-0.0054931640625
-0.0003662109375
-0.0047607421875
0.0
0.0003662109375
0.0
-0.0003662109375
0.0
0.009521484375
-1.0
0.0146484375
-1.0
0.0018310546875
0.0
-0.00146484375
0.0
0.0032958984375
0.0
0.0
0.0
-0.0069580078125
0.0
-0.005859375
0.0
0.0010986328125
0.0
0.0040283203125
0.0
-0.00439453125
0.0
-0.0091552734375
0.0
-0.002197265625
0.0
0.0091552734375
0.0
0.0062255859375
0.0
-0.018310546875
0.0
-0.0216064453125
0.0
-0.01025390625
0.0
-0.005859375
0.0
-0.00732421875
0.0
-0.005126953125
0.0
0.0029296875
0.0
-0.0003662109375
0.0
-0.017578125
0.0
-0.0164794921875
0.0
-0.01611328125
0.0
-0.043212890625
0.0
0.0179443359375
0.0
0.037353515625
1.0
-0.0128173828125
1.0
-0.008056640625
0.0
0.009521484375
-0.0003662109375
0.019775390625
0.0
0.01171875
0.0003662109375
0.01025390625
0.0
-0.000732421875
0.0
-0.0047607421875
0.0
0.002197265625
0.0
0.0040283203125
0.0
0.005126953125
0.0
0.0040283203125
0.0
0.003662109375
0.0
0.0
0.0
0.00146484375
0.0
0.0
0.0
0.0010986328125
0.0
0.0062255859375
0.0
0.0010986328125
0.0
0.0025634765625
0.0
0.002197265625
0.0
0.000732421875
0.0
0.0018310546875
0.0
0.0018310546875
0.0
0.0018310546875
0.0
0.00146484375
0.0
0.0003662109375
0.0
-0.000732421875
0.0
0.000732421875
0.0
-0.00146484375
-0.0003662109375
0.0010986328125
0.0
0.000732421875
0.0003662109375
0.0003662109375
0.0
0.00146484375
0.0
-0.00439453125
0.0
0.002197265625
0.0
-0.0062255859375
0.0
-0.0355224609375
0.0
-0.00146484375
0.0
0.0399169921875
0.0
0.01171875
0.0
-0.00439453125
0.0
0.0
0.0
-0.002197265625
0.0
-0.00146484375
0.0
-0.0047607421875
0.0
-0.006591796875
0.0
-0.0069580078125
0.0
-0.00146484375
0.0
0.0010986328125
0.0
-0.00146484375
0.0
0.000732421875
0.0
-0.000732421875
0.0
0.0003662109375
0.0
-0.0018310546875
0.0
-0.00146484375
0.0
-0.0040283203125
0.0
-0.003662109375
0.0
0.000732421875
-0.43292236328125
-0.005126953125
-0.9573974609375
0.0
-1.0
-0.002197265625
-0.54132080078125
-0.005126953125
0.0
0.013916015625
0.0
0.0120849609375
0.0
-0.0054931640625
0.0
-0.0018310546875
0.0
-0.013916015625
0.0
-0.041748046875
0.0
0.0318603515625
0.0
0.037353515625
0.0
-0.034423828125
0.0
-0.0208740234375
0.0
-0.009521484375
0.0
-0.0040283203125
0.0
-0.0032958984375
0.0
-0.0087890625
0.0
-0.0150146484375
0.0
-0.0084228515625
0.0
0.0040283203125
0.0
0.0062255859375
0.0
0.010986328125
0.297760009765625
0.0084228515625
1.0
0.0010986328125
1.0
0.00146484375
0.0
0.00146484375
0.0
-0.002197265625
0.0
0.0
0.0
0.0032958984375
0.0
0.000732421875
0.0
0.0069580078125
0.0
-0.0029296875
0.0
-0.030029296875
0.0
0.0238037109375
0.0003662109375
0.062255859375
0.0
0.0179443359375
-0.0003662109375
0.005859375
0.0
0.005859375
0.0003662109375
0.00439453125
0.0
0.00146484375
-0.0003662109375
-0.005126953125
0.0
-0.00439453125
0.0
0.0003662109375
0.0
0.0054931640625
0.0
0.005859375
0.0
0.0032958984375
0.0
0.010986328125
0.0
0.01904296875
0.0
0.0205078125
0.0
0.0494384765625
0.0
0.099609375
0.0003662109375
0.024169921875
0.0
-0.050537109375
-0.37066650390625
-0.0380859375
-0.752655029296875
-0.025634765625
0.37030029296875
-0.093017578125
0.753021240234375
-0.057861328125
0.0
-0.071044921875
-0.0003662109375
-0.750823974609375
-0.0003662109375
-0.644989013671875
-0.40399169921875
1.0
-0.039947509765625
1.0
0.40435791015625
0.193389892578125
0.040679931640625
0.0
0.0
-0.047271728515625
0.0
-0.168853759765625
0.0
-0.82257080078125
-0.0003662109375
-1.0
-0.000732421875
-0.624847412109375
-0.0003662109375
0.0
0.0
0.0
0.0
0.0
-1.0
0.0
0.0
0.0
1.0
0.0
-0.136627197265625
0.0
-1.0
0.0
-1.0
0.0
0.0
1.0
0.0
1.0
1.0
-1.0
1.0
0.0040283203125
0.0
1.0
-1.0
-0.0040283203125
-1.0
0.0
0.0
0.0
0.174346923828125
0.0
1.0
0.0
1.0
0.0
0.0
0.0
0.0
-1.0
-0.000732421875
-1.0
-0.000732421875
0.0
0.0
0.0
0.0
0.0
0.0
0.0
0.0
0.0
0.0
0.0
0.0
0.0
0.0
0.0
0.0
0.0
0.0
1.0
-1.0
1.0
-1.0
-0.00439453125
-0.0263671875
0.0
0.0
0.0
0.0
0.0
0.0
0.0
0.0
0.0
0.0
-0.0003662109375
0.0
0.0
0.0
0.0003662109375
0.0
0.0
0.0
0.0
0.0
0.0
0.0
0.0
0.0
0.0
0.0
0.0
0.0
0.0
0.0
0.0
0.0
0.0
0.0
0.0
0.0
0.0
0.0
0.0
0.0
0.0
0.0
0.0
0.0
0.0
0.0
0.0
0.01171875
0.0
0.729949951171875
0.0
1.0
0.0
0.447174072265625
0.0
0.0552978515625
0.0
-0.00146484375
0.0
0.149444580078125
0.0
0.167388916015625
0.0
0.116455078125
0.0
-0.286407470703125
0.0
0.126007080078125
0.0
0.44244384765625
0.0
0.0
0.0
-1.0
0.0
-1.0
0.0
-0.35821533203125
0.0
0.0
0.0
0.0
0.0
0.0
0.0
0.0
0.0
0.0
0.0
1.0
0.0
0.58819580078125
0.0
-1.0
0.0
0.910888671875
0.0
1.0
0.0
0.0
0.0
0.0
0.0
0.0
0.0
0.0
0.0
0.0
0.0
0.0
0.0
0.0
-0.35455322265625
-1.0
-0.754486083984375
-1.0
-0.0816650390625
-0.000732421875
0.59698486328125
0.0
0.43585205078125
0.0
0.157501220703125
0.0
0.0003662109375
0.0
0.0003662109375
0.0
0.0
0.0
-0.0003662109375
0.0
0.0
0.0
0.0
0.0
0.0
0.0
0.0
0.0
0.0
0.0
0.0
0.0
0.0
0.0
0.0
0.0
0.0
0.0
0.0
1.0
0.0
1.0
0.0
0.0538330078125
-0.154937744140625
-1.0
0.0
-1.0
0.154937744140625
0.0
0.0
0.0
-0.0003662109375
0.0
0.0
0.0
0.0003662109375
0.0
0.0
0.0
0.0
0.0
0.0
0.0
0.0
0.0
0.0
0.0
0.0
0.0
0.0
0.0
0.0
0.0
0.0
0.0
0.0
0.0
-0.119415283203125
0.0
-0.33624267578125
0.0
-0.391876220703125
0.0
-0.324859619140625
0.0
-0.236236572265625
0.0
-0.317901611328125
0.0
-0.50067138671875
0.0
-0.51568603515625
0.0
-0.246490478515625
0.0
0.0
0.0
0.0
0.0
0.0
0.0
0.0
0.0
0.009521484375
0.0
0.313873291015625
0.0
0.660736083984375
0.0
0.624114990234375
0.0
0.459625244140625
0.0
0.473541259765625
0.0
0.36480712890625
0.0
0.083160400390625
0.0
0.0
0.0
0.0
1.0
0.0
1.0
0.0
-1.0
0.0
-1.0
0.0
0.0
0.0
0.0
0.0
0.0
0.0
0.0
0.0
0.0
0.0
0.0
0.0
0.0
0.0
0.0
-0.0003662109375
0.0
0.0
0.0
-0.079132080078125
0.0
-0.53546142578125
0.0
-0.68048095703125
0.0
-0.097076416015625
0.0
0.66912841796875
0.0
0.632537841796875
0.0
0.090850830078125
0.0
0.0
0.0
0.0
0.0
0.0
0.0
0.0
0.0
0.0
0.0
-0.0003662109375
0.0
0.0
0.0
0.0003662109375
0.0
0.0
0.0
0.0
0.0
0.0
0.0
0.0
0.0
0.0
0.0
0.0
0.0
0.0
0.0
0.0
0.0
0.0
0.0
0.0
0.0
0.0
0.0
0.0
0.0
0.0
0.0
0.0
0.0
0.0
0.0
0.0
0.0
0.0
0.0
0.0
0.0
0.0
0.0
0.0
0.0
0.0
0.0
0.0
0.0
0.0
0.0
0.0
0.0
0.0
0.0
0.0
0.0
0.0
0.0
0.0
0.0
-0.0003662109375
0.0
-0.0003662109375
0.0
0.0003662109375
0.0
0.0
0.0
-0.000732421875
0.0
-0.0106201171875
0.0
-0.01904296875
0.0
0.0025634765625
0.0
0.01904296875
0.0
-0.0172119140625
0.0
-0.091949462890625
0.0
-0.138092041015625
0.0
-0.1329345703125
0.0
-0.112060546875
0.0
-0.0809326171875
0.0
-0.065948486328125
0.0
-0.055328369140625
0.0
-0.0098876953125
0.0
-0.0150146484375
0.0
-0.0509033203125
0.0
-0.03369140625
0.0
-0.0208740234375
0.0
-0.027099609375
0.0
-0.0384521484375
0.0
-0.06884765625
0.0
-0.065185546875
0.0
-0.038818359375
0.0
-0.027099609375
0.0
-0.0113525390625
0.0
-0.0128173828125
0.0
-0.0150146484375
0.0
-0.0157470703125
0.0
-0.0098876953125
0.0
-0.005859375
0.0
-0.0135498046875
0.019775390625
-0.00732421875
0.049102783203125
-0.010650634765625
0.063018798828125
-0.017608642578125
0.068115234375
-0.0120849609375
0.057861328125
-0.0150146484375
0.046875
-0.0311279296875
0.046875
-0.0010986328125
0.0281982421875
0.0216064453125
0.01318359375
-0.0120849609375
-0.01611328125
-0.0018310546875
-0.0205078125
0.0194091796875
0.01904296875
0.0179443359375
0.0322265625
0.0054931640625
0.03662109375
0.011749267578125
0.028564453125
0.020172119140625
0.0260009765625
0.03369140625
0.0201416015625
0.0494384765625
0.008056640625
0.0281982421875
0.0208740234375
-0.00146484375
0.037353515625
-0.0087890625
0.034423828125
0.0201416015625
0.019073486328125
0.0391845703125
0.009552001953125
0.0274658203125
0.0146484375
-0.0003662109375
0.0289306640625
0.0047607421875
0.0263671875
0.0157470703125
0.0201416015625
0.0062255859375
0.02197265625
0.0010986328125
0.021240234375
0.008056640625
0.017578125
0.0084228515625
0.0172119140625
-0.0003662109375
0.0208740234375
-0.0150146484375
0.027099609375
-0.0322265625
0.0355224609375
0.0076904296875
0.0194091796875
0.00439453125
0.040283203125
-0.0172119140625
0.0853271484375
0.0076904296875
0.0560302734375
0.0032958984375
0.0428466796875
-0.0025634765625
0.103668212890625
-0.006591796875
0.165557861328125
-0.0076904296875
0.1201171875
-0.0069580078125
0.0025634765625
-0.01025390625
-0.032958984375
-0.0223388671875
-0.03515625
-0.060791015625
0.025634765625
-0.083160400390625
0.1552734375
-0.077301025390625
0.230377197265625
-0.0703125
0.080230712890625
-0.059326171875
0.009521484375
-0.0150146484375
-0.0040283203125
0.010986328125
-0.0172119140625
0.01025390625
-0.134796142578125
0.0234375
-0.124542236328125
0.02197265625
0.165191650390625
0.093780517578125
0.0018310546875
0.239532470703125
-0.54351806640625
0.57684326171875
-0.1673583984375
0.43621826171875
0.913055419921875
-0.058990478515625
0.794403076171875
-0.669525146484375
0.146148681640625
-1.0
-0.000732421875
-0.68157958984375
-0.0003662109375
-0.108795166015625
0.0003662109375
-0.0120849609375
0.0
1.0
0.0003662109375
1.0
0.000732421875
-0.9658203125
-0.0003662109375
-1.0
-0.000732421875
-0.53326416015625
-0.0003662109375
0.0
0.0
0.0
0.0
0.0
0.0
0.0
0.0
0.0
0.0
0.0
0.0
0.0
0.0
0.0
0.0
0.0
0.0
0.0
0.0
0.0
0.0
0.0
-0.037750244140625
0.0
-1.0
1.0
-1.0
1.0
0.0
0.0
0.0
0.0
0.0
0.0
1.0
0.0
1.0
-0.0003662109375
0.0
0.0
0.0
0.0003662109375
0.0003662109375
0.0
-1.0
0.0
-1.0
-1.0
1.0
-1.0
1.0
0.0
0.0
0.0
0.0
0.0
0.0003662109375
0.0
0.0
0.0
0.0
0.165557861328125
-1.0
1.0
-1.0
1.0
0.0
-1.0
0.0
-1.0
1.0
0.0
1.0
0.0
0.0
0.0
0.0
0.000732421875
0.0
1.0
-1.0
1.0
-1.0
0.0
0.0
0.0
0.0
0.0
0.0
-0.0003662109375
0.0
0.0
0.0
0.0003662109375
0.0
0.0
0.0
-1.0
1.0
-1.0
1.0
-0.0010986328125
0.0
0.0
0.0
0.0
0.0
0.0
-1.0
1.0
-1.0
1.0
0.0
-0.00439453125
0.0
0.0
0.0
0.0
0.0
0.00439453125
1.0
0.0
1.0
-0.00439453125
0.0
-1.0
-0.000732421875
-1.0
-0.000732421875
1.0
-1.0
1.0
-1.0
0.0010986328125
0.0
0.0
0.0
0.0
0.0
-1.0
1.0
0.00439453125
0.0
1.0
-1.0
-0.00439453125
0.0
-1.0
0.9486083984375
0.0
0.0
1.0
0.52410888671875
0.0
1.0
0.0
0.0263671875
-0.0003662109375
0.0
0.0
0.0
0.0003662109375
0.0
-1.0
-0.000732421875
-1.0
-0.000732421875
0.0
0.0
0.0
0.0
0.0
0.0
0.0
0.0
0.0
0.0
0.0
0.0
1.0
-1.0
1.0
-1.0
-0.00439453125
-0.35491943359375
0.0
0.0
0.0
0.0
0.0003662109375
0.761810302734375
0.0
0.0
0.0
-0.761810302734375
0.0
0.0
0.0
0.0
0.0
0.0
0.0
0.0
0.0
0.0
0.0
0.0
0.0
0.0
0.0
0.0
0.0
0.0
0.0
0.0
0.0
0.0
0.0
0.0
0.0
0.0
0.0
0.0
0.0
0.0
0.0
0.0
0.0
0.0
0.0
0.0
0.0
0.0
0.0
0.0
0.0
0.0
0.0
0.0
0.0
0.0
0.0
0.0
0.0
0.0
0.0
0.0
0.0
0.0
0.0
0.0
0.0
0.0
-0.0003662109375
0.0
0.0
0.0
0.0003662109375
0.0
0.0
0.0
0.0
0.0
0.0
0.0
0.0
0.0
0.0
0.0
0.0
0.0
0.0
0.0
0.0
0.0
0.0
0.0
0.0
0.0
0.0
0.0
0.0
0.0
0.0
0.0
0.0
0.0
0.0
0.0
0.0
0.0
0.0
0.0
0.0
0.0
0.0
0.0
0.0
0.0
0.0
0.0
0.0
0.0
0.0
1.0
0.0
1.0
0.0
0.0
0.0003662109375
-1.0
0.0
-1.0
-0.0003662109375
-0.0135498046875
0.0
0.0
0.0
0.0
0.0
0.0
-0.49993896484375
0.0
0.0
0.0
0.49993896484375
1.0
0.0
0.0
0.0
-1.0
0.0
0.0
0.0
0.0
0.0
0.0
0.0
0.0
-1.0
1.0
-1.0
1.0
0.98046875
-1.0
-0.297760009765625
-1.0
-0.98046875
1.0
1.0
1.0
1.0
0.000732421875
-1.0
-0.000732421875
-1.0
-0.000732421875
-0.285675048828125
0.0
0.0
0.0
0.0
0.0
0.0
0.0
0.0
0.0
0.0
-0.0003662109375
1.0
-1.0
1.0
-1.0
0.0
0.0
0.0
0.0
0.0
0.0
0.0
0.0
0.0
0.0
0.0
0.0
-1.0
1.0
-1.0
1.0
0.0
0.0
0.0
0.0
0.0
0.0
0.0
0.0
0.0
0.0
0.0
-1.0
0.0
-1.0
1.0
0.0
1.0
0.52154541015625
-1.0
1.0
-1.0
0.976806640625
0.0
0.0
0.0
0.0
0.0
0.0
0.0
0.0
1.0
-1.0
1.0
-1.0
-0.0003662109375
0.0
0.0
0.0
0.0
0.0
0.0
0.0
0.0
0.0
0.0
0.0
0.0
0.0
0.0
0.0
0.0
0.0
0.0
0.0
0.0
0.0
0.0
0.228546142578125
-1.0
1.0
-1.0
1.0
0.0
0.0
0.0
0.0
0.0
-0.0003662109375
0.0
0.0003662109375
0.0
0.0003662109375
0.0
-0.0003662109375
0.0
0.0
0.0
0.0
0.0
0.0
0.0
-0.881561279296875
0.0
-1.0
0.0
-0.616790771484375
0.0
0.0
0.0
0.0
0.0
0.0
0.0
0.0
0.0
0.0
0.0
0.0
0.0
0.0
0.0
0.0
0.0
0.0
0.0
0.0
0.0
0.0
0.0
0.0
0.0
0.0
0.0
0.0
0.0
0.0
0.0
0.0
1.0
0.0
1.0
0.0
0.234771728515625
0.0
0.0
0.0
0.0
0.0
0.0
0.0
0.0
0.0
0.0
0.0
0.0
0.0
0.0
0.0
-0.0003662109375
0.0
0.0
0.0
0.0003662109375
0.0
0.0
0.0
0.0
0.0
0.0
0.0
0.0
0.0
0.0
0.0
0.0
0.0
0.0
0.0
0.0
0.0
0.0
0.0
0.0
0.0
0.0
0.0
0.0
0.0
0.0
0.0
0.0
0.0
0.0
0.0
0.0
0.0
0.0
0.0
0.0
0.0
0.0
0.0
0.0
0.0
0.0
0.0
0.0
0.0
0.0
0.0
0.0
0.0
-0.0003662109375
0.0
0.0
0.0
0.0003662109375
0.0
0.0
0.0
0.0
0.0
0.0
0.0
0.0
0.0
0.0
0.0
0.0
0.0
0.0
0.0
0.0
0.0
0.0
0.0
0.0
0.0
0.0
0.0
0.0
0.0
0.0
0.0
0.0
0.0
0.0
0.0
0.0
0.0
0.0
0.0
0.0
0.0
0.0
0.0
0.0
0.0
-1.0
0.0234375
-1.0
0.49114990234375
1.0
-0.0234375
1.0
-0.49114990234375
0.0003662109375
1.0
-0.0003662109375
1.0
0.0
0.0
0.0
0.0
0.0
0.0
0.0
0.0
0.0
0.0
0.0
-0.92333984375
0.0
-1.0
0.0
-0.57574462890625
0.0
0.0
0.0
0.0
0.0
0.0
0.0
0.0
0.0
0.0
0.0
0.0
0.0
0.0
0.0
0.0
0.0
0.0
0.0
1.0
0.0
1.0
0.0
0.35711669921875
0.0
-1.0
0.0
-1.0
0.0
-0.154937744140625
0.0
0.0
0.0
0.0
-0.030059814453125
0.0
-0.39007568359375
0.0
0.022003173828125
0.0
0.39007568359375
0.0
0.008056640625
1.0
0.0
1.0
0.0
-1.0
0.0
-1.0
0.0
0.0
-0.0003662109375
0.0
-0.112091064453125
0.0
-0.33148193359375
0.0
-0.424102783203125
1.0
-0.327056884765625
1.0
-0.120513916015625
0.0
-0.0736083984375
0.0
-0.18603515625
0.0
-0.171783447265625
0.0
-0.050201416015625
0.0
0.239898681640625
0.0
0.55816650390625
-1.0
0.664398193359375
-1.0
0.33514404296875
0.0
0.0
0.0
-0.0003662109375
1.0
0.0
1.0
0.0
0.0
0.0
0.0
0.0
0.0
0.0
0.0
0.0
0.0
0.0
0.0
0.0
0.0
0.0
0.0
0.0
0.0
0.0
0.0
0.0
0.0
0.0
0.0
0.0
0.0
0.0
0.0
-0.0003662109375
0.0
0.0
0.0
0.0003662109375
0.0
0.0
0.0
0.0
0.0
0.0
0.0
0.0
0.0
0.0
0.0
0.0
0.0
-0.0003662109375
0.0
0.0
-0.34979248046875
0.0003662109375
-1.0
0.0
-1.0
-1.0
-0.065948486328125
-0.021240234375
1.0
0.870941162109375
1.0
-1.0
-1.0
-0.870941162109375
-1.0
0.0
0.0
0.0
0.0
0.0
0.0
0.0
0.0
0.0
0.0
0.0
0.0
0.0
0.0
0.0
0.0
0.0
0.0
0.0
0.0
0.0
0.0
0.0
0.0
0.0
0.0
0.0
0.0
0.0
0.0
0.0
0.0
0.0
0.0
0.0
0.0
0.0
0.0
0.0
0.0
0.0
0.0
0.0
0.0
0.0
0.0
0.0
0.0
0.0
0.0
0.760711669921875
0.0
1.0
0.0
0.43878173828125
0.0
-0.0556640625
0.0
-0.258941650390625
0.0
-0.172119140625
0.0
-0.316070556640625
0.0
-0.722259521484375
0.0
-0.51275634765625
0.0
-0.1651611328125
0.0
-0.111724853515625
0.0
-0.037017822265625
0.0
0.140655517578125
0.0
0.827728271484375
0.0
0.366607666015625
0.0
-0.377960205078125
0.0
0.912689208984375
0.0
1.0
0.0
0.074737548828125
0.0
0.0
0.0
0.0
0.0
-1.0
0.0
-1.0
0.0
0.0
0.0
0.0
0.0
0.0
0.0
0.0
0.0
0.0
0.0
0.0
0.0
0.0
0.0
0.0
1.0
0.0
1.0
0.0
0.0186767578125
0.0
0.0
0.0
-1.0
0.0
-1.0
1.0
0.0
0.0
0.0
-1.0
0.0
0.0
0.0
0.0
0.0
0.0
0.064483642578125
0.0
0.0
0.0
-0.064483642578125
0.0
0.0
0.0
0.0
0.0
0.0
0.0
0.0
0.0
0.0
0.0
0.0
0.0
0.0
0.0
0.0
0.0
1.0
0.0
1.0
0.0
0.0
0.0
0.0
0.0
0.0
0.0
0.0
0.0
0.0003662109375
0.0
0.0
0.0
-0.0003662109375
0.0
0.0
0.0
0.0
0.0
0.0
0.0
0.0
0.0
0.0
0.0
0.0
0.0
0.0
0.0
0.0
0.60247802734375
-0.763641357421875
1.0
-1.0
0.8922119140625
-0.734710693359375
0.0
0.0
0.0
0.0
0.0
0.0
0.0
0.0
0.0
0.0
-0.0003662109375
0.0
0.0
0.0
0.0003662109375
0.0
0.0
0.0
0.0
0.0
0.0
0.0
0.0
0.0
0.0
0.0
0.0
0.0
0.0
0.0
0.0
0.0
-0.675750732421875
0.0
-1.0
1.0
-0.818939208984375
1.0
0.0
0.0
0.0
0.0
0.0
0.0
1.0
-1.0
1.0
-1.0
0.0
0.0
-1.0
1.0
-1.0
1.0
0.0
0.0
0.0
0.0
0.0
0.0
0.0
0.0
0.0
0.0
0.0
0.0
0.0
0.0
0.0
0.0
0.0
0.0
0.0
0.0
0.0
0.0003662109375
0.0
0.0
0.0
-0.0003662109375
0.0
0.0
0.0
0.0
0.0
0.0
0.0
0.0
0.0
0.0
0.0
0.0
0.0
0.0
0.0
0.0
0.0
0.0
0.0
0.0
0.0
0.0
0.0
0.0
0.0
0.0
0.0
0.0
0.0
0.0
0.0
0.0
0.0
0.0
0.0
0.0
0.0
0.0
0.0
0.0
0.0
0.0003662109375
0.0
0.0
0.0
-0.0003662109375
0.0
0.0
0.0
0.0
0.0
0.0
0.0
0.0
0.0
0.0
0.0
0.0
0.0
0.0
0.0
0.0
0.0
0.0
0.0
0.0
0.0
0.0
0.0
0.0
0.0
0.0
0.0
-0.0003662109375
0.0
0.0
0.0
0.0003662109375
0.0
0.0
0.0
0.0
0.0
0.0
0.0
0.0
0.0
0.0
0.0
0.0
0.0
0.0
0.0
0.0
0.0
0.0
0.0
0.0
0.0
0.0
0.0
0.0
0.0
0.0
0.656341552734375
0.0003662109375
1.0
0.000732421875
0.838348388671875
0.0003662109375
-0.0029296875
0.0
-1.0
-0.000732421875
0.00439453125
0.0
1.0
0.000732421875
-0.00439453125
0.0
0.0
0.0
0.0
0.0
0.0
0.0
0.0
0.0
0.0
0.0
-1.0
-0.000732421875
-1.0
-1.0
0.0
-1.0
1.0
1.0
1.0
1.0
-0.00439453125
0.0
-0.0003662109375
0.0
0.0
0.0
0.0003662109375
0.0
0.0
0.0
0.0
0.0
-1.0
-1.0
-1.0
-1.0
0.0
0.0
0.0
0.0
0.0
0.0
0.0
0.0
0.0
0.0
0.0
0.0
0.0
0.0
0.0
0.0
0.0
0.0
0.0
0.0
0.0
0.0
1.0
1.0
1.0
1.0
-0.00439453125
0.0
0.0
0.0
0.0
0.0
0.0
0.0
0.0
0.0
0.0
0.0
0.0
0.0
0.0
0.0
-0.0003662109375
0.0
0.0
0.0
0.0003662109375
0.0
0.0
0.0
0.0
0.0
0.0
0.0
0.0
0.0
0.0
0.0
0.0
0.0
0.0
0.0
0.0
0.0
0.0
0.0
0.0
0.0
0.0
0.0
0.0
0.0
0.0
0.0
0.0
0.0
0.0
0.0003662109375
0.0
0.0
0.0
-0.0003662109375
-0.0003662109375
0.0
0.0
0.0
0.0003662109375
0.0
0.0
0.0
0.0
0.0
0.0
0.0
0.0
0.0
0.0
0.0
0.0
0.0
0.0
0.0
0.0
0.0003662109375
0.0
0.0
0.0
-0.0003662109375
0.0
0.0003662109375
0.0
0.0
0.0
-0.0003662109375
-0.0003662109375
0.0
0.0003662109375
0.0
0.0003662109375
0.0003662109375
-0.0003662109375
0.0
0.0
-0.0003662109375
0.0
0.0
0.0
0.0
0.0
0.0
0.0
0.0
0.0
0.0
0.0
0.0
-1.0
-1.0
-1.0
-1.0
0.0
0.0
0.0
0.0
0.0
0.0
0.0
0.0
0.0
0.0
0.0
0.0
0.0
0.0
0.0
0.0
0.0
0.0
0.0
0.0
0.0
0.0
0.0
0.0
0.0
0.0
0.0
0.0
0.0
0.0
0.0
0.0
0.0
0.0
0.0
0.0
0.0
0.0
0.0
0.0
0.0
0.0
0.0
0.0
0.0
0.0
0.0
0.0
0.0
0.0
0.0
0.0
0.0
0.0
0.0
0.0
0.0
0.0
0.0
0.0
0.0
0.0
0.0
0.0
0.0
0.0
0.0
0.0
0.0
0.0
0.0
0.0
0.0
0.0
0.0
0.0
0.0
0.0
0.0
0.0
0.0
0.0
0.0
0.0
0.0
0.0
0.0
0.0
0.0
0.0
1.0
1.0
1.0
1.0
-0.0040283203125
0.0
0.0
0.0
-1.0
-1.0
-1.0
-1.0
0.870208740234375
0.9910888671875
1.0
1.0
0.624481201171875
0.50799560546875
0.0
0.0
0.0
0.0
0.0
0.0
0.0
0.0
0.0
0.0
0.0
0.0
0.0
0.0
0.0
0.0
0.0
0.0
0.0
0.0
0.0
0.0
0.0
0.0
0.0
0.0
0.0
0.0
0.0
0.0
0.0
0.0
-1.0
-1.0
-1.0
-1.0
0.0
0.0
0.0
0.0
0.0
0.0
0.0
0.0
0.0
0.0
0.0
0.0
0.0
0.0
0.0
0.0
0.0
0.0
0.0
0.0
0.0
0.0
1.0
0.0
1.0
0.0
0.064483642578125
0.0
0.0
0.0
0.0
0.0
0.0
0.0
0.0
0.0
0.0
0.0
0.0
0.0
0.0
0.0
0.0
0.0
0.0
0.0
0.0
0.0
-0.0003662109375
0.0
0.0
0.0
0.0003662109375
0.0
0.0
0.0
0.0
0.0
0.0
0.0
-0.0003662109375
0.0
0.0
0.0
0.0003662109375
0.0
0.0
0.0
0.0
0.0
0.0
0.0
0.0
0.0
-0.00439453125
0.0
-1.0
1.0
-1.0
1.0
0.0
0.0
0.0
0.0
0.0
0.0
0.0
0.0
0.0
0.0
0.0
0.0
0.0
0.0
0.0
0.0
0.0
0.0
0.0
0.0
0.0
0.0
0.0
0.0
0.0
0.0
0.0
0.0
0.0
0.0
0.0
0.0
0.0
0.0
0.0
0.0
0.0
0.0
0.0
0.0
0.0
0.0
0.0
0.0
0.0
0.0
0.0
0.0
0.0
0.0
0.0
0.0
0.0
0.0
1.0
-1.0
1.0
-1.0
0.035552978515625
0.0
0.0
0.0
0.0
0.0
0.0
0.0
-1.0
0.0
0.0029296875
0.0
1.0
0.0
-0.0029296875
0.0
0.0
0.0
0.0
0.0
0.0
0.0
-1.0
0.310577392578125
-1.0
1.0
-0.01171875
1.0
0.0
0.0
0.0
0.0
0.0
0.0
1.0
-1.0
1.0
-1.0
-0.00439453125
-0.01171875
0.0
0.0
0.0
0.0
0.0
0.0
-1.0
1.0
-1.0
1.0
-0.00439453125
0.0
0.0
0.0
0.0
0.0
0.0
0.0
0.0
0.0
0.0
0.0
0.0
0.0
0.0
0.0
0.0
0.0
0.0
0.0
0.0
0.0
1.0
0.000732421875
1.0
0.000732421875
0.0
0.0
0.0
0.0
0.0
-1.0
0.0
-1.0
0.0
0.0
0.0
0.0
0.0
0.0
0.0
0.0
0.0
0.0
0.0
0.0
0.0
0.0
0.0
0.0
0.0
0.735443115234375
0.0
1.0
0.0
-0.735443115234375
0.0
-1.0
0.0
0.0
0.0
0.0
0.0
0.0
0.0
0.0
0.0
0.0
0.0
0.0
0.0
0.0
0.0
0.0
0.0
0.0
0.0
0.0
0.0003662109375
0.0
0.0
0.0
-0.0003662109375
0.0
0.0
0.0
0.0
0.0
0.0
0.0
0.0
0.0
-1.0
0.0
-1.0
0.0
0.0
1.0
0.0
1.0
0.0
0.0
0.0
0.0
1.0
0.000732421875
1.0
0.000732421875
-0.00439453125
0.0
0.0
0.0
0.0
0.0
0.0
0.0
-0.188262939453125
0.0
0.0
0.0
0.188262939453125
0.0
0.0
0.0
0.0
0.0
0.0
0.0
0.0
0.0
0.0
0.0
0.0
0.0
0.0
0.0
-0.0003662109375
0.0
0.0
0.0003662109375
0.0003662109375
0.0
0.0
-0.0003662109375
-1.0
-0.000732421875
-1.0
-0.000732421875
1.0
-1.0
1.0
-1.0
-0.002197265625
0.0
0.0
0.0
0.0003662109375
0.0
-1.0
0.44537353515625
-1.0
1.0
0.0
-0.44537353515625
0.0
-1.0
0.0
1.0
0.0
1.0
0.0
0.0
0.0
0.0
0.0
0.0
0.0
0.0
0.0
-1.0
0.0
-1.0
1.0
-0.309478759765625
1.0
0.0
-1.0
1.0
-1.0
1.0
0.0
0.0
0.0
0.0
0.0
0.0
0.0
0.0
0.0
0.0
0.0
0.0
0.0
0.0
0.0
0.0
0.0
0.0
0.0
0.0
0.0
0.0
0.0
0.0
0.0
0.0
0.0
0.0
0.0
0.0
0.0
0.0
0.0
0.0
0.0
0.0
0.0
0.0
0.0
0.0
0.0
0.0
1.0
0.000732421875
1.0
0.000732421875
-0.00439453125
0.0
-1.0
-0.000732421875
-1.0
-0.000732421875
0.0
0.0
0.0
0.0
0.0
0.0
0.0
-1.0
0.0
-1.0
0.0
-0.0150146484375
0.0
0.0
0.0
0.0
0.0
0.0
0.0
0.0
0.0
0.0
0.0
0.0
0.0
0.0
0.0
0.0
0.0
0.0
0.0
0.0
0.0
0.0
0.0
0.0
0.0
0.0
0.0
0.0
0.0
0.0
0.0
0.0
0.0
0.0
0.0
0.0
0.0
1.0
0.0
0.40802001953125
0.0
-1.0
0.0
-0.40802001953125
0.0
0.0
0.0
1.0
0.0
1.0
0.0
0.0
0.0
0.0
0.0
0.0
0.0
0.0
0.0
0.0
0.0
0.0
0.0
0.0
0.0
0.0
0.0
0.0
0.0
0.0
0.0
0.0
0.0
0.0
0.0
0.0
0.0
-0.063385009765625
0.0
-0.209869384765625
0.0
0.063385009765625
0.0
0.209869384765625
0.0
0.0
0.0
0.0
0.0
-0.672088623046875
0.0
-0.41497802734375
0.0
0.672088623046875
0.0
0.41497802734375
0.0
-0.0054931640625
0.0
-0.46990966796875
0.0
-1.0
0.0
-1.0
0.0
0.0
0.0
0.0252685546875
0.0
0.0
0.0
-0.0252685546875
0.0
1.0
0.45123291015625
1.0
1.0
0.242462158203125
1.0
0.000732421875
0.0
0.0
0.0
0.0
0.0
0.0
0.0
0.0
0.0
0.0
0.0
0.0
0.0
0.0
0.0
0.0
-1.0
-0.000732421875
-1.0
-1.0
-0.00732421875
-1.0
0.0
0.0
0.0
0.0
0.0
0.0
0.0
0.0
0.0
0.0
0.0
0.002197265625
0.0
0.9595947265625
0.0
1.0
0.805389404296875
0.53912353515625
1.0
0.000732421875
0.689300537109375
0.0003662109375
-0.0003662109375
0.0
0.0
0.0
0.0
0.0
0.0
0.0
0.0
0.0
0.0
0.0
0.0
0.0
0.0
0.0
0.0
-1.0
0.0
-1.0
0.0
0.0
0.0
0.0
0.0
0.0
-0.50726318359375
1.0
-0.687835693359375
1.0
0.164794921875
0.0003662109375
0.687835693359375
0.0003662109375
0.34246826171875
0.0
0.0
-1.0
0.0
-1.0
-0.080963134765625
1.0
-1.0
1.0
-1.0
-0.000732421875
0.303253173828125
0.0
0.148345947265625
0.0003662109375
0.145782470703125
0.0003662109375
0.185302734375
0.0
-0.188262939453125
-0.0003662109375
-0.51824951171875
-0.0003662109375
-0.260772705078125
0.0
0.0
0.0
0.0
0.0
0.0
0.0
0.0
-0.57061767578125
0.0
-1.0
0.0
-0.927734375
0.0
-0.128936767578125
0.0
1.0
0.223785400390625
1.0
0.0
0.0
-0.223785400390625
0.0
0.0
0.0
1.0
0.000732421875
0.55780029296875
0.0003662109375
-1.0
-1.0
-0.55780029296875
-1.0
0.0
0.0
0.0
0.0
0.0
0.0
0.0
0.0
0.0
0.0
0.0
0.0
0.0
0.0
0.0
0.0
0.0
0.0
0.0
0.0
0.0
0.0
0.0
0.0
0.0
0.0
0.0
0.058624267578125
1.0
1.0
1.0
1.0
0.0
0.0
0.0
0.0
0.0
0.0
0.0
0.0
0.0
0.0
0.0
0.0
0.0
0.0
0.0
0.0
0.0
0.0
0.0
0.0
0.0
0.0
0.0
0.0
0.0
0.0
0.0
0.0
0.0
0.0
0.0
0.0
0.0
0.0
0.0
0.0
0.0
0.0
0.0
0.0
0.0
0.0
0.0
0.0
0.0
0.0
-0.0003662109375
0.0
0.0
0.0
0.0003662109375
0.0
0.0
0.0
0.0
0.0
0.0
0.0
0.0
0.0
0.0
0.0
0.0
0.0
0.0
0.0
0.0
0.0
0.0
0.0
0.0
0.0
0.0
0.0
-0.0003662109375
0.0
0.0
0.0
0.0003662109375
0.0
0.0
0.0
0.0
0.0003662109375
0.0
0.0
0.0
-0.0003662109375
0.0
0.0
0.0
0.0
0.0
0.0
0.0
0.0
0.0
0.0
0.0
0.0
0.0
0.0
-0.0003662109375
0.0
0.0
0.0
0.0003662109375
0.0
0.0
0.0
0.0
0.0
0.0
0.0
0.0
0.0
0.0
0.0
0.0
0.0
0.0
0.0
0.0
0.0
0.0
0.0
0.0
0.0
0.0
0.0
0.0
0.0
0.0
0.0
0.0
0.0
0.0
0.0
0.0
0.0
0.0
0.0
0.0
0.0
0.0
0.0
0.0
0.0
0.0
0.0
0.0
0.0
0.0
0.0003662109375
-0.0003662109375
0.0
0.0
-0.0003662109375
0.0003662109375
0.0
0.0
0.0
0.0
0.0
-0.0003662109375
0.0
-0.031890869140625
0.0
-0.078033447265625
0.0
-0.180908203125
0.0
-0.2178955078125
0.0
-0.126739501953125
0.0
-0.103668212890625
0.0
-0.0780029296875
-0.0003662109375
-0.114990234375
-0.0003662109375
-0.1395263671875
0.0003662109375
-0.082763671875
0.0003662109375
-0.101837158203125
0.0
-0.083160400390625
-0.0003662109375
-0.0443115234375
-0.0003662109375
-0.0604248046875
0.0
-0.0703125
0.0
-0.052734375
0.0
-0.0245361328125
0.0
-0.02490234375
0.0
-0.078369140625
0.0
-0.136627197265625
-0.0003662109375
-0.177642822265625
-0.039581298828125
-0.17138671875
-0.119415283203125
-0.079833984375
-0.0955810546875
-0.086456298828125
-0.104736328125
-0.125274658203125
-0.1453857421875
-0.1131591796875
-0.132598876953125
-0.1182861328125
-0.137359619140625
-0.085693359375
-0.10546875
-0.0263671875
-0.0435791015625
-0.0069580078125
-0.0252685546875
-0.0516357421875
-0.072509765625
-0.028564453125
-0.047607421875
-0.0040283203125
-0.02197265625
-0.046905517578125
-0.188629150390625
-0.035186767578125
-0.56475830078125
0.0
-0.51824951171875
0.0
-0.221954345703125
0.0
-0.250152587890625
0.0
-0.156036376953125
0.0
-0.0062255859375
0.0
0.0
0.0
0.0
0.0
0.0
0.0
0.0
0.0
0.0
0.0
0.0
0.0
0.0
0.0
0.0
0.0
0.0
0.0
0.0
0.0
0.0
0.0
0.0
0.0
0.0
0.0
0.0
0.0
0.0
0.0
0.0
0.0
0.0
0.0
0.0
0.0
0.0
0.0
0.0
0.0
0.0
0.0
0.0
0.0
0.0
0.0
0.0
0.0
0.0
1.0
0.0
1.0
0.0
0.0
0.0
0.0
0.0
0.0
0.0
0.0
0.0
0.0
0.0
0.0
0.0
0.0
0.0
0.0
0.0
0.0
0.0
0.0
0.0
0.0
0.0
0.0
0.0
0.0
0.0
0.0
0.0
0.0
0.0
0.0
0.0
0.0
0.0
0.0
0.0
0.0
0.0
0.0
0.0
0.0
0.0
0.0
0.0
0.0
0.0
0.0
0.0
0.0
0.0
0.0
0.0
0.0
0.0
0.0
0.0
0.0
0.0
0.0
0.0
0.0
0.0
0.0
0.0
0.0
0.0
0.0
0.0
0.0
0.0
0.0
0.0
0.0
0.0
-0.0003662109375
0.0
0.0
0.0
0.0003662109375
0.0
0.0
0.0
0.0
0.0
0.0
0.0
0.0
0.0
0.0
0.0
0.0
0.0
0.0
0.0
0.0
0.0
0.0
0.0
0.0
0.0
0.0
0.0
0.0
0.0
0.0
0.0
0.0
0.0
0.0
0.0
0.0
0.0
0.0
0.0
0.0
0.0
0.0
0.0
0.0
0.0
0.0
0.0
0.0
0.0
0.0
0.0
0.0
1.0
0.0
0.0
-1.0
-1.0
-0.59149169921875
0.0
1.0
0.0
0.341705322265625
0.0
-1.0
1.0
-1.0
1.0
-0.0087890625
0.0
0.0
0.0
0.0
0.0
0.0
0.0
0.0
0.0
0.0
0.0
0.0
0.0
0.0
-1.0
0.0
-1.0
1.0
-0.35015869140625
1.0
0.0
0.0
0.0
-1.0
1.0
-1.0
1.0
0.0
0.0
0.0
0.0
0.0
0.0
0.0
-0.0003662109375
0.0
0.0
0.0
0.0003662109375
0.0
0.0
0.0
0.0
0.0
0.0
0.0
0.0
0.0
0.0
0.873870849609375
0.0003662109375
1.0
0.000732421875
0.620819091796875
0.0003662109375
0.0
0.0
-0.0003662109375
0.0
0.0
0.0
0.0003662109375
0.0
0.0
0.0
0.0
0.0
0.0
0.0
0.0
0.0
0.0
0.0
-0.0003662109375
0.0
0.0
0.0
0.0003662109375
0.0
0.0
0.0
0.0
0.0
0.0
0.0
0.0
0.0
0.0
0.0
0.0
0.0
0.0
0.0
0.0
0.0
0.0
0.0
0.0
0.0
0.0
0.0
0.0
0.0
0.0
0.0
0.0
0.0
-0.0003662109375
0.0
0.0
0.0
0.0003662109375
0.0
0.0
0.0
0.0
0.0
0.0
0.0
-0.0003662109375
0.0
0.0
0.0
0.0003662109375
0.0
0.0
0.0
0.0
0.0
0.0
0.0
0.0
0.0003662109375
0.0
0.0
0.0
-0.0003662109375
0.0
0.0
0.0
0.0
0.0
0.0
0.0
0.0
0.0
0.0
0.0
0.0
0.0
0.0
0.0
0.0
0.0
0.0
0.0
0.0
0.0
0.0003662109375
0.0
0.0
0.0
-0.0003662109375
0.0
0.0
0.0
0.0
0.0
0.0
0.0
0.0
0.0
0.0
0.0
0.0
0.0
0.0
0.0
0.0
0.0
0.0
0.0
0.0
0.0
0.0
0.0
0.0
0.0
0.0
0.0
0.0
0.0
0.0
0.0
0.0
0.0
0.0
0.0
0.0
0.0
0.0
0.0
0.0
0.0
0.0
0.0
0.0
0.00439453125
0.0
0.0
0.0
-0.00439453125
0.0
0.0
0.0
0.0
0.0
0.0
0.0
0.0
0.0
0.0
0.0
-0.0003662109375
0.0
-0.0003662109375
0.0
-0.0047607421875
0.0
-0.030059814453125
0.0
-0.050567626953125
0.0
-0.049072265625
0.0
-0.0465087890625
0.0
-0.0450439453125
0.0
-0.043212890625
0.0
-0.041015625
0.0
-0.03955078125
0.0
-0.0380859375
0.0
-0.0369873046875
0.0
-0.0362548828125
0.0
-0.0340576171875
0.0
-0.0322265625
0.0
-0.0311279296875
0.0
-0.030029296875
0.0
-0.030426025390625
0.0
-0.028594970703125
-0.0003662109375
-0.0260009765625
0.0
0.33074951171875
-1.0
0.34356689453125
-1.0
0.0
0.0
-0.0003662109375
0.142486572265625
-1.0
1.0
-1.0
1.0
0.0
0.0
0.0
0.0
0.0
0.0
0.0
0.0
0.0
0.0
0.0
0.0
0.0
0.0
0.0
0.0
0.0
0.0
0.0
0.0
0.0
0.0
0.0
0.0
0.0
0.0
0.0
0.0
0.0
0.0
0.0
0.0
0.0
0.0
0.0
0.0
0.0
-0.0003662109375
0.0
0.0
0.0
0.0003662109375
0.0
0.0
0.0
0.0
0.0
0.0
0.0
0.0
0.0
0.0
0.0
0.0
0.0
0.0
0.0
0.0
0.0
0.0
0.0
0.0
0.0
0.0
0.0
0.0
0.0
0.0
0.0
0.0
0.0
0.0
0.0
0.0
0.0
0.0
0.0
0.0
0.0
0.0
0.0
0.0
0.0
0.0
0.0
0.0
0.0
0.0
0.0
0.0
0.0
0.0
0.025634765625
0.0
0.053863525390625
0.0
0.056427001953125
0.0
0.053466796875
0.0
0.05126953125
0.0
0.0498046875
0.0
0.046875
0.0
0.04541015625
0.0
0.0439453125
0.0
0.0421142578125
0.0
0.041015625
0.0
0.03955078125
0.0
0.063751220703125
0.0
0.060089111328125
0.0003662109375
0.009521484375
0.0
0.00732421875
0.0
0.66656494140625
-0.39447021484375
1.0
-1.0
-0.969085693359375
0.39447021484375
-1.0
1.0
-0.035919189453125
0.0
0.0
0.0
0.0
0.0
0.0
0.0
0.0
0.0
0.0
0.0
0.0
0.0
0.0
0.0
0.0
0.0
0.0
0.0
0.0
0.0
0.0
0.0
0.0
0.0
1.0
-1.0
0.254913330078125
-1.0
-1.0
-0.089385986328125
-0.254913330078125
0.0
0.0018310546875
0.0
0.0
0.0
1.0
0.0
0.0
0.0
-1.0
0.0
0.9991455078125
0.0
0.0
0.0
-0.9991455078125
0.0
0.0
0.0
0.0
0.0
1.0
0.0
1.0
0.0
0.000732421875
0.0
0.0
0.0
0.0003662109375
0.0
0.0
0.0
0.0
0.0
0.0
0.0
0.0
0.0
0.0
0.0
0.0
0.0
0.0
0.0
0.0
0.0
0.0
0.0
0.0
0.0
0.0
0.0
0.0
0.0
0.0
0.0
0.0
0.0
-0.0003662109375
0.0
0.0
0.0
0.0003662109375
0.0
0.0
0.0
0.0
0.0
0.0
0.0
0.0
0.0
0.0
0.0
0.0
0.0
0.0
0.0
0.0
0.0
0.0
0.0
0.0
0.0
0.0
0.0
0.0
0.0
0.0
0.0
0.0
0.0
0.0
0.0
0.0
0.0
0.0
0.0
0.0
0.0
0.0
0.0
0.0
0.0
0.0
0.0
0.0
0.0
0.0
0.0
-0.0047607421875
0.0
0.0
0.0
0.0047607421875
0.0
0.0
0.0
0.00146484375
0.0
-0.210235595703125
0.0
0.000732421875
0.0
0.210235595703125
0.0
-0.002197265625
0.0
0.0
0.0
0.0
0.0
-1.0
0.687469482421875
0.0029296875
1.0
1.0
0.811614990234375
-0.0029296875
-1.0
0.0
-1.0
0.0
0.0
0.0
0.0
0.0
0.0
0.0
0.0
-0.869842529296875
0.0
-1.0
0.0
-0.624847412109375
0.51934814453125
1.0
1.0
1.0
0.979736328125
-0.294830322265625
-0.164825439453125
-1.0
-1.0
-1.0
-1.0
0.0
0.0
0.143585205078125
0.0
0.097076416015625
0.0
-0.143585205078125
0.0
-0.097076416015625
0.0
0.0
0.0
0.0
0.0
0.0
0.0
0.0
0.49664306640625
0.0
1.0
0.0
1.0
0.36627197265625
0.0186767578125
0.644622802734375
0.0003662109375
-0.284210205078125
-1.0
-0.52447509765625
-1.0
1.0
1.0
1.0
0.38458251953125
0.077301025390625
-1.0
0.177276611328125
1.0
0.0
1.0
-1.0
-1.0
0.00439453125
-1.0
1.0
0.0
-0.794036865234375
0.0
-1.0
0.0
-0.174713134765625
0.0
0.217559814453125
0.0
-0.442047119140625
0.0
0.43438720703125
0.0
0.1248779296875
0.0
0.1318359375
0.0
1.0
0.0
-0.783782958984375
0.0
-1.0
0.0
0.0
0.0
0.0
0.0
0.0
0.0
0.0
0.0
0.038116455078125
0.0
0.208770751953125
0.0
0.339141845703125
0.0
0.242462158203125
0.0
-0.013916015625
0.0
-0.0908203125
0.0
0.03369140625
0.0
0.0875244140625
0.0
0.046875
0.0
-0.0157470703125
0.0
0.0062255859375
0.0
0.0556640625
0.0
0.0684814453125
0.0
0.0296630859375
0.0
-0.057861328125
0.0
0.030029296875
0.0
0.098876953125
0.0
0.0245361328125
0.0
0.03955078125
0.0
-0.0135498046875
0.0
0.030426025390625
0.0
0.092681884765625
0.0
0.021240234375
0.0
0.0157470703125
0.0
0.0194091796875
0.0
0.0340576171875
0.0
0.021240234375
0.0
-0.0076904296875
0.0
0.0234375
0.0
0.0296630859375
0.0
0.003662109375
0.0
0.0054931640625
0.0
0.0164794921875
0.0
0.0333251953125
0.0
0.0369873046875
0.0
0.0
0.0
-0.01611328125
0.0
0.008056640625
0.0
0.0216064453125
0.0
0.0018310546875
0.002197265625
0.009521484375
0.0
0.046875
-0.002197265625
0.03955078125
0.076568603515625
-0.0186767578125
0.079864501953125
-0.028564453125
-0.051300048828125
-0.0010986328125
0.167724609375
0.0106201171875
0.258941650390625
0.0
-0.01904296875
-0.01171875
0.054595947265625
0.016845703125
0.0201416015625
0.025634765625
-0.131500244140625
0.01171875
-0.0845947265625
-0.016845703125
-0.0150146484375
0.00146484375
0.103271484375
0.0010986328125
0.178741455078125
0.029296875
-0.073974609375
0.0450439453125
-0.37103271484375
0.056060791015625
-0.193389892578125
0.126739501953125
0.0
0.017578125
0.162628173828125
-0.075439453125
0.265533447265625
0.031494140625
0.1025390625
0.07177734375
-0.19189453125
-0.041748046875
-0.2032470703125
-0.113189697265625
0.1541748046875
-0.106231689453125
0.285675048828125
-0.0523681640625
0.142486572265625
0.0732421875
-0.106964111328125
0.087188720703125
-0.052764892578125
0.027862548828125
0.081695556640625
-0.017242431640625
0.119049072265625
-0.061553955078125
0.0325927734375
0.0120849609375
-0.000732421875
-0.0421142578125
0.1973876953125
-0.0684814453125
-0.158966064453125
0.053466796875
-0.290435791015625
-0.018310546875
0.193756103515625
-0.0838623046875
0.291900634765625
0.040283203125
-0.08642578125
0.08203125
-0.188232421875
0.0413818359375
-0.0091552734375
0.063018798828125
-0.0311279296875
0.038848876953125
0.12890625
-0.0208740234375
0.1845703125
-0.112823486328125
-0.03515625
-0.052032470703125
-0.219390869140625
0.032958984375
0.02783203125
-0.017578125
0.285308837890625
0.01611328125
-0.0032958984375
0.0552978515625
-0.144287109375
0.0274658203125
-0.1387939453125
0.024932861328125
0.1453857421875
-0.0146484375
0.15380859375
-0.029693603515625
-0.1904296875
0.0003662109375
-0.027099609375
-0.0369873046875
0.15673828125
-0.0201416015625
0.0977783203125
0.046173095703125
-0.0054931640625
-0.08056640625
0.061187744140625
0.0531005859375
-0.0399169921875
0.1036376953125
-0.224151611328125
-0.0421142578125
-0.254913330078125
0.005859375
-0.029296875
-0.0003662109375
0.213165283203125
0.033721923828125
0.076171875
0.0245361328125
-0.0281982421875
0.0208740234375
-0.08203125
-0.0216064453125
0.028564453125
-0.025634765625
0.0655517578125
-0.0076904296875
-0.0465087890625
0.0003662109375
-0.0179443359375
-0.009918212890625
0.1534423828125
-0.0120849609375
0.0377197265625
0.030792236328125
-0.189697265625
0.0186767578125
-0.016845703125
0.00732421875
0.02783203125
-0.01611328125
0.0106201171875
-0.0076904296875
-0.0062255859375
-0.022003173828125
0.0699462890625
-0.048004150390625
0.0692138671875
0.021270751953125
-0.017578125
0.067047119140625
-0.084228515625
0.0780029296875
-0.1651611328125
-0.0084228515625
0.16259765625
-0.0369873046875
0.05712890625
-0.0194091796875
-0.0758056640625
-0.02197265625
0.05126953125
-0.013916015625
-0.0234375
-0.0142822265625
-0.01025390625
0.000732421875
0.0311279296875
-0.019439697265625
0.0552978515625
0.0032958984375
-0.005859375
-0.006591796875
-0.00146484375
0.0186767578125
-0.136962890625
0.022369384765625
-0.03369140625
-0.025634765625
0.2215576171875
-0.016510009765625
0.1263427734375
0.01318359375
-0.1365966796875
0.035919189453125
-0.272491455078125
-0.00439453125
-0.0018310546875
-0.0142822265625
0.087921142578125
-0.0003662109375
0.0538330078125
-0.00732421875
0.022705078125
0.0047607421875
-0.0267333984375
0.01025390625
-0.0047607421875
-0.0062255859375
-0.0146484375
-0.026397705078125
0.0263671875
0.003662109375
-0.013916015625
0.016510009765625
-0.0032958984375
-0.210601806640625
-0.05419921875
0.0333251953125
0.052001953125
0.232208251953125
0.142822265625
0.0274658203125
-0.04833984375
0.0501708984375
-0.0347900390625
-0.0289306640625
0.0010986328125
-0.0439453125
0.0040283203125
-0.0296630859375
0.04248046875
-0.0205078125
0.08203125
-0.026397705078125
0.005859375
-0.0223388671875
-0.04541015625
0.01025390625
0.0318603515625
0.0128173828125
-0.0421142578125
0.047637939453125
-0.0926513671875
0.016845703125
-0.043212890625
0.006591796875
0.0765380859375
-0.0120849609375
0.043212890625
-0.0142822265625
-0.008056640625
-0.023834228515625
0.0172119140625
-0.042510986328125
-0.016845703125
0.038482666015625
0.0245361328125
0.032623291015625
0.01171875
-0.0010986328125
0.052734375
-0.003662109375
0.087890625
-0.0113525390625
0.142120361328125
-0.0040283203125
0.101837158203125
0.00146484375
-0.041748046875
0.0120849609375
-0.104766845703125
0.0040283203125
-0.102203369140625
0.000732421875
-0.0216064453125
0.000732421875
-0.0721435546875
-0.01318359375
0.061553955078125
-0.0146484375
0.150543212890625
-0.0003662109375
0.0281982421875
-0.0062255859375
0.0443115234375
-0.152374267578125
0.246856689453125
-0.168487548828125
-0.273956298828125
-0.031494140625
-0.50726318359375
0.0098876953125
-0.211334228515625
0.01904296875
-0.38714599609375
0.016845703125
-0.0010986328125
-0.01171875
1.0
-0.013916015625
0.708709716796875
0.0230712890625
-0.081298828125
0.0208740234375
-0.123077392578125
0.0164794921875
-0.087188720703125
0.003662109375
0.0875244140625
0.013916015625
-0.305450439453125
0.0172119140625
-0.67572021484375
0.02490234375
-0.58013916015625
0.0135498046875
0.314239501953125
-0.015380859375
0.877899169921875
0.0205078125
0.0908203125
0.0150146484375
0.205474853515625
-0.00439453125
0.197784423828125
0.0
-0.367340087890625
0.0025634765625
0.094879150390625
-0.003662109375
-0.0831298828125
0.0208740234375
-0.899169921875
0.0216064453125
-0.46441650390625
-0.009521484375
0.272491455078125
0.00439453125
0.215362548828125
0.000732421875
0.083526611328125
-0.0128173828125
0.0091552734375
0.00439453125
0.019775390625
-0.0010986328125
0.0908203125
-0.000732421875
0.02490234375
-0.009521484375
-0.0443115234375
-0.01611328125
0.0732421875
0.093780517578125
-0.0047607421875
0.092315673828125
-0.050537109375
-0.058624267578125
-0.0860595703125
-0.087921142578125
0.0732421875
-0.0399169921875
0.06005859375
-0.032958984375
-0.0128173828125
-0.0289306640625
0.028564453125
-0.085693359375
-0.0194091796875
-0.116455078125
0.0574951171875
-0.144317626953125
-0.0362548828125
0.1549072265625
0.0325927734375
-0.249420166015625
-0.0391845703125
-0.814544677734375
-0.52740478515625
1.0
0.351593017578125
1.0
0.57427978515625
0.01318359375
-0.143951416015625
0.301788330078125
0.041046142578125
0.0010986328125
0.059722900390625
-0.0281982421875
-0.102569580078125
-0.0010986328125
-0.051666259765625
0.029296875
0.0018310546875
-0.0003662109375
0.023101806640625
0.0
0.093048095703125
0.0003662109375
-0.031158447265625
-0.0010986328125
0.019775390625
-0.0040283203125
0.030426025390625
-0.0018310546875
0.0596923828125
-0.238433837890625
-0.055694580078125
-0.036651611328125
-0.0743408203125
-0.142852783203125
-0.0955810546875
-0.0479736328125
-0.089019775390625
0.329986572265625
0.163360595703125
-0.0120849609375
0.148345947265625
-0.0743408203125
0.0120849609375
-0.1805419921875
-0.129669189453125
0.101104736328125
0.038818359375
-0.123443603515625
0.0487060546875
-0.173248291015625
-0.0289306640625
-0.0743408203125
0.01025390625
-0.185333251953125
-0.0296630859375
0.222686767578125
0.050567626953125
-0.062255859375
0.0252685546875
0.00146484375
0.0523681640625
-0.390045166015625
-0.161529541015625
0.20068359375
-0.0673828125
0.57281494140625
0.062255859375
-0.285675048828125
0.0087890625
-0.079498291015625
0.01318359375
-0.0062255859375
-0.107696533203125
-0.02783203125
0.060455322265625
0.0032958984375
0.0325927734375
0.0311279296875
-0.037384033203125
-0.005859375
-0.0263671875
-0.037353515625
0.055694580078125
-0.009521484375
0.01171875
0.0172119140625
-0.057525634765625
-0.01904296875
0.0172119140625
-0.017578125
-0.0673828125
-0.0186767578125
0.0281982421875
-0.00146484375
-0.0029296875
-0.0743408203125
0.090850830078125
-0.0985107421875
0.0823974609375
-0.101806640625
0.044677734375
0.05712890625
-0.0648193359375
0.255645751953125
-0.263336181640625
-0.0802001953125
0.105499267578125
0.0289306640625
-0.167755126953125
-0.169219970703125
0.169189453125
0.05126953125
-0.0439453125
0.075469970703125
-0.109130859375
0.0860595703125
-0.14794921875
0.2281494140625
-0.288604736328125
-0.331817626953125
0.405426025390625
-0.1256103515625
0.0501708984375
-0.0831298828125
0.090118408203125
0.15087890625
-0.188995361328125
-0.202545166015625
0.1439208984375
-0.0985107421875
0.115386962890625
0.177276611328125
-0.1204833984375
0.256378173828125
-0.241729736328125
0.407257080078125
-0.50286865234375
-0.371002197265625
0.446807861328125
-0.371734619140625
0.407623291015625
-0.060821533203125
0.084991455078125
0.242828369140625
-0.354522705078125
-0.1259765625
0.1212158203125
-0.136627197265625
0.238800048828125
0.178009033203125
-0.249053955078125
-0.1116943359375
0.131103515625
0.1556396484375
-0.261871337890625
0.0029296875
-0.084228515625
0.286041259765625
-0.292999267578125
0.062255859375
-0.09228515625
-0.0999755859375
0.063385009765625
-0.201446533203125
0.231842041015625
-0.306549072265625
0.311676025390625
0.172515869140625
-0.208038330078125
-0.069580078125
0.2039794921875
-0.0380859375
0.09375
-0.009552001953125
0.0032958984375
-0.0340576171875
0.052734375
-0.11279296875
0.130401611328125
0.347930908203125
-0.437652587890625
0.169219970703125
-0.225616455078125
-0.318634033203125
0.413116455078125
-0.0406494140625
0.060791015625
-0.082061767578125
0.110626220703125
-0.068511962890625
0.0263671875
-0.098876953125
0.094482421875
0.260772705078125
-0.328155517578125
0.0091552734375
-0.009521484375
-0.150146484375
0.185699462890625
0.141021728515625
-0.256011962890625
-0.110626220703125
0.15673828125
-0.051300048828125
0.0640869140625
0.208038330078125
-0.2559814453125
0.175445556640625
-0.271026611328125
-0.140625
0.19482421875
-0.117919921875
0.242462158203125
-0.012847900390625
-0.0516357421875
-0.022003173828125
-0.01318359375
-0.00732421875
-0.0172119140625
-0.0296630859375
0.090087890625
-0.02490234375
0.0941162109375
-0.00146484375
0.0194091796875
0.0208740234375
-0.0889892578125
0.0076904296875
-0.04248046875
0.0
0.0311279296875
0.018310546875
-0.046142578125
-0.0018310546875
0.0640869140625
0.003662109375
0.0274658203125
0.00732421875
-0.0303955078125
0.014312744140625
-0.066650390625
-0.0018310546875
0.0076904296875
0.0208740234375
-0.10107421875
0.019073486328125
-0.15087890625
-0.0205078125
0.0853271484375
-0.005889892578125
0.1376953125
-0.006988525390625
0.1226806640625
0.004425048828125
0.029296875
-0.000732421875
0.039215087890625
0.018310546875
-0.0087890625
0.00439453125
-0.028961181640625
-0.0098876953125
0.073638916015625
0.007720947265625
-0.0128173828125
-0.014312744140625
0.0113525390625
0.01611328125
-0.08642578125
0.022369384765625
-0.209503173828125
-0.01025390625
0.0380859375
-0.028594970703125
0.233673095703125
0.0164794921875
-0.0673828125
0.031890869140625
-0.293365478515625
0.0025634765625
-0.13330078125
-0.0194091796875
0.0985107421875
-0.048736572265625
0.2384033203125
0.0205078125
0.03955078125
0.012451171875
0.125274658203125
-0.0164794921875
0.0450439453125
0.005157470703125
-0.000732421875
-0.0029296875
0.0457763671875
0.0216064453125
-0.261138916015625
0.0135498046875
-0.141357421875
-0.0087890625
0.076904296875
-0.0142822265625
0.106201171875
0.0201416015625
-0.0380859375
0.016845703125
-0.06591796875
0.01025390625
-0.1365966796875
0.0146484375
-0.204742431640625
-0.0146484375
-0.022369384765625
-0.0186767578125
0.074005126953125
-0.0230712890625
0.127838134765625
0.0003662109375
0.0084228515625
0.0091552734375
-0.003662109375
-0.000732421875
0.0552978515625
-0.026397705078125
0.1083984375
-0.01171875
0.0234375
0.018707275390625
-0.1043701171875
-0.0010986328125
0.059326171875
0.0076904296875
0.0172119140625
0.00146484375
0.0281982421875
0.005859375
-0.0106201171875
0.00732421875
-0.085693359375
0.006591796875
-0.005859375
-0.042510986328125
0.0743408203125
-0.040313720703125
0.0963134765625
0.031890869140625
-0.345733642578125
0.074737548828125
-0.52630615234375
0.0205078125
0.305084228515625
-0.084259033203125
0.57244873046875
0.00146484375
-0.440948486328125
0.064117431640625
-0.54718017578125
0.017578125
0.038818359375
-0.018310546875
0.252349853515625
-0.024169921875
0.354156494140625
-0.022705078125
0.183502197265625
-0.022735595703125
-0.0406494140625
0.009521484375
-0.09228515625
0.010650634765625
0.0113525390625
0.0263671875
-0.068878173828125
0.0069580078125
-0.017578125
-0.035888671875
0.032623291015625
-0.009521484375
-0.138092041015625
0.0032958984375
-0.231109619140625
0.006591796875
-0.131103515625
-0.00439453125
0.1761474609375
0.008056640625
0.262969970703125
0.00439453125
0.101837158203125
-0.0120849609375
-0.187530517578125
-0.021270751953125
-0.211334228515625
-0.011016845703125
-0.141357421875
0.024566650390625
-0.0849609375
0.017608642578125
0.170654296875
0.0164794921875
-0.084991455078125
-0.0106201171875
-0.219757080078125
-0.0091552734375
0.005859375
-0.000732421875
0.0
0.0399169921875
-0.005859375
0.0677490234375
0.0
0.0322265625
0.0
0.027099609375
0.0
-0.02490234375
0.0
-0.0509033203125
0.0
-0.015380859375
0.0
0.01171875
0.0
-0.0369873046875
0.241729736328125
-0.060089111328125
0.33807373046875
0.005859375
0.107696533203125
-0.00732421875
0.2208251953125
-0.018707275390625
0.297393798828125
0.023468017578125
0.186065673828125
0.033721923828125
0.0948486328125
0.0263671875
0.123046875
-0.0274658203125
0.260772705078125
-0.03076171875
0.113189697265625
0.0128173828125
-0.090087890625
-0.0003662109375
-0.153839111328125
-0.0047607421875
0.034423828125
0.0194091796875
0.123077392578125
0.017578125
0.04248046875
0.003662109375
-0.03515625
-0.02490234375
-0.0340576171875
-0.030029296875
-0.0010986328125
0.003662109375
-0.075836181640625
-0.041778564453125
0.0106201171875
0.019775390625
-0.1929931640625
0.084625244140625
-0.194488525390625
0.01025390625
0.057861328125
-0.024169921875
0.107666015625
0.00439453125
-0.02197265625
0.0113525390625
-0.1109619140625
-0.0406494140625
0.15234375
-0.051666259765625
0.181304931640625
-0.002960205078125
-0.043212890625
0.0146484375
-0.052764892578125
0.003692626953125
0.119049072265625
0.032623291015625
-0.0146484375
0.0355224609375
-0.207305908203125
-0.016845703125
-0.0908203125
-0.041778564453125
-0.002197265625
-0.034454345703125
-0.030029296875
0.017242431640625
-0.153839111328125
0.029327392578125
0.006591796875
-0.0047607421875
0.060089111328125
0.0062255859375
-0.1168212890625
0.0113525390625
-0.061187744140625
-0.003662109375
0.0091552734375
-0.027496337890625
0.085723876953125
-0.039581298828125
0.002197265625
-0.03369140625
-0.032958984375
-0.0223388671875
0.0128173828125
-0.0128173828125
0.1981201171875
0.0091552734375
0.0849609375
0.066680908203125
-0.277984619140625
0.048736572265625
-0.0699462890625
0.0120849609375
0.03369140625
0.0274658203125
-0.131134033203125
0.0018310546875
-0.1962890625
-0.0238037109375
-0.13623046875
-0.024169921875
-0.138458251953125
-0.016510009765625
-0.143585205078125
0.01171875
-0.1435546875
0.038116455078125
-0.13037109375
0.01904296875
0.13623046875
0.0091552734375
0.156005859375
0.009521484375
0.109893798828125
-0.0047607421875
0.102569580078125
-0.0186767578125
0.0966796875
-0.0018310546875
-0.101104736328125
0.0032958984375
-0.307281494140625
0.0025634765625
-0.238800048828125
0.0135498046875
-0.149810791015625
0.0194091796875
-0.0263671875
-0.009521484375
0.105499267578125
-0.0296630859375
0.107330322265625
-0.021240234375
0.03515625
-0.00439453125
0.264068603515625
0.030029296875
0.1116943359375
0.0230712890625
-0.107696533203125
0.00732421875
0.0091552734375
0.03076171875
-0.192626953125
0.03662109375
-0.261505126953125
-0.0029296875
-0.000732421875
-0.031494140625
0.229644775390625
-0.0025634765625
0.11279296875
0.0091552734375
0.0032958984375
-0.015380859375
0.213531494140625
-0.0421142578125
0.41973876953125
-0.0362548828125
0.338775634765625
-0.0054931640625
0.016845703125
0.0032958984375
-0.11572265625
-0.0025634765625
-0.0062255859375
-0.0091552734375
0.053466796875
0.0029296875
-0.0164794921875
0.015380859375
0.106201171875
0.005859375
0.117919921875
-0.005859375
-0.0780029296875
0.0029296875
-0.0673828125
-0.023468017578125
0.0684814453125
-0.028228759765625
0.15966796875
-0.018310546875
0.162261962890625
-0.006591796875
0.042144775390625
0.0106201171875
-0.232940673828125
-0.0362548828125
-0.29559326171875
-0.1600341796875
-0.0802001953125
-0.425567626953125
0.163360595703125
0.03369140625
0.1124267578125
0.71160888671875
-0.157470703125
0.373565673828125
-0.0809326171875
-0.11865234375
0.038818359375
-0.345367431640625
-0.38824462890625
-1.0
0.078369140625
-0.782684326171875
-0.262237548828125
0.0
-0.726654052734375
0.0
0.0
1.0
1.0
1.0
0.638763427734375
-0.00439453125
-0.694427490234375
0.0
0.145751953125
0.0
-0.1435546875
-0.0003662109375
-0.201446533203125
0.0
-0.072174072265625
0.0003662109375
0.123809814453125
0.0
0.170684814453125
0.0
0.0904541015625
0.0
0.154571533203125
0.0
0.150543212890625
0.0
-0.040679931640625
0.0
-0.191192626953125
0.0
-0.099609375
0.0
0.1329345703125
0.0
0.290435791015625
0.0
0.082427978515625
0.0
-0.328521728515625
0.0
-0.260406494140625
0.0
0.0567626953125
0.0
0.266265869140625
0.0
0.188629150390625
0.0
-0.196319580078125
0.0
-0.249420166015625
0.0
-0.1036376953125
-0.002197265625
0.209136962890625
-0.002197265625
0.050537109375
0.0010986328125
-0.43218994140625
0.0010986328125
-0.328521728515625
0.0010986328125
-0.50872802734375
0.0010986328125
-0.39996337890625
-0.0003662109375
0.0
0.00439453125
0.0146484375
-1.0
1.0
0.0
0.0087890625
0.0029296875
0.036651611328125
-1.0
1.0
-0.003662109375
0.0
0.0
0.0
0.0
0.0
0.0
0.0
0.0
0.0
0.0
0.0
0.0
0.0
0.0
0.0
0.0
0.0
0.0
0.0
0.0
0.0
0.0
0.0
0.0
0.0
0.0
0.0
0.0
0.0
0.0
0.0
0.0
0.0
0.0
0.0
0.0
0.0003662109375
0.0
0.0
0.0
-0.0003662109375
0.0
0.0
0.056427001953125
0.0
0.102569580078125
0.0
0.010986328125
0.0
0.1336669921875
0.0
0.2508544921875
0.0
1.0
-1.0
1.0
-1.0
-0.0281982421875
0.00732421875
-1.0
1.0
-1.0
1.0
-0.0172119140625
0.034088134765625
0.0
0.058990478515625
1.0
-1.0
0.0322265625
-0.167755126953125
0.0230712890625
0.0252685546875
-0.0223388671875
0.145050048828125
-0.100006103515625
0.061553955078125
0.209503173828125
-0.287506103515625
-1.0
1.0
0.833221435546875
-0.9281005859375
-0.231475830078125
0.40069580078125
0.209503173828125
-0.15234375
0.0
0.0
-1.0
1.0
0.0
0.0
0.0
0.0
0.0
0.0
0.0
0.0
0.0
0.0
0.0
0.0
0.0
0.0
0.0
0.0
0.0
0.0
0.0
0.0
0.0
0.0
0.0
0.0
0.0
0.0
0.0
0.0003662109375
0.0
0.0
0.0
-0.0003662109375
0.0
0.0
0.0
0.0
0.0
0.0
0.0
0.0
0.0
0.0
0.0
0.0
0.0
0.0
0.0
0.0
0.0
0.0
0.0
0.0
0.0
0.0
0.0
0.0
0.0
0.0
0.0
0.0
0.0
0.0
0.0
-0.0205078125
0.0
-0.224151611328125
0.0
-0.30841064453125
0.0
0.0208740234375
0.0
0.32891845703125
0.0
0.203277587890625
0.0
0.0
0.0
0.0
0.0029296875
0.0
0.0274658203125
0.0
0.096710205078125
0.0
0.47650146484375
0.0003662109375
0.214599609375
0.0003662109375
-0.301422119140625
-0.039215087890625
0.084259033203125
-0.818572998046875
0.187530517578125
-1.0
-0.219390869140625
0.59405517578125
-0.143585205078125
0.760345458984375
-0.0003662109375
-0.148712158203125
-0.05419921875
0.1142578125
-0.030029296875
-0.0325927734375
-0.0509033203125
-0.217926025390625
0.49993896484375
-0.0498046875
0.46588134765625
0.0362548828125
0.1080322265625
-0.324859619140625
0.487823486328125
-1.0
-0.195953369140625
-0.718231201171875
-0.857391357421875
0.47210693359375
-0.297027587890625
0.868377685546875
-0.0794677734375
0.52044677734375
-0.12451171875
0.198883056640625
0.140625
0.50286865234375
0.376495361328125
-0.0662841796875
0.43182373046875
-0.912353515625
0.216827392578125
-0.801727294921875
-0.073974609375
-0.288970947265625
-0.49114990234375
0.227447509765625
-0.105865478515625
0.46881103515625
-0.0380859375
-0.317901611328125
0.072174072265625
-0.765838623046875
0.329986572265625
0.1761474609375
-0.204742431640625
0.35455322265625
0.098175048828125
-0.091552734375
0.821502685546875
-0.259307861328125
0.507965087890625
-0.193389892578125
0.03515625
-0.089385986328125
-0.330718994140625
0.42340087890625
-0.66546630859375
1.0
0.018310546875
0.53765869140625
0.169921875
-0.414581298828125
0.150543212890625
-0.115386962890625
0.42669677734375
0.040283203125
0.0926513671875
-0.0618896484375
0.1171875
0.325592041015625
0.42340087890625
0.156402587890625
0.0010986328125
-1.0
-0.9427490234375
-0.940185546875
-0.735076904296875
0.284210205078125
-0.476837158203125
1.0
-0.58929443359375
1.0
-0.074005126953125
0.48016357421875
0.0
0.0
0.02490234375
-0.019775390625
0.34503173828125
0.0
0.53289794921875
0.0201416015625
0.82989501953125
0.000732421875
0.873138427734375
0.0003662109375
0.31976318359375
0.0
-0.25048828125
0.0
-0.53326416015625
-1.0
-0.221954345703125
-1.0
-0.147979736328125
0.0
-0.245025634765625
0.0
-0.239166259765625
0.0
0.0164794921875
0.0
0.247955322265625
0.0
0.0010986328125
0.0
-0.173583984375
0.0
-0.0611572265625
0.0
0.12158203125
0.0
0.1395263671875
0.0
0.183135986328125
0.0
-0.0029296875
0.0
-0.240997314453125
0.0
-0.14794921875
0.0
-0.0252685546875
0.631439208984375
0.2091064453125
1.0
0.245758056640625
-0.629241943359375
0.015380859375
-1.0
-0.103668212890625
-0.002197265625
0.012847900390625
0.210968017578125
0.280914306640625
0.0
-0.45892333984375
-0.210968017578125
-0.832855224609375
0.0
0.1461181640625
0.768768310546875
0.58489990234375
0.223052978515625
0.9061279296875
-0.768768310546875
-0.0736083984375
-0.223052978515625
-0.744964599609375
0.0
-0.0439453125
0.0
-0.072509765625
0.041046142578125
-0.201080322265625
0.101837158203125
-0.169586181640625
-0.041046142578125
-0.14794921875
-0.101837158203125
-0.235137939453125
0.0
-0.39556884765625
0.308380126953125
-0.266998291015625
0.0
0.0
-0.308380126953125
0.0
0.0
0.0
0.0
1.0
0.200714111328125
1.0
0.99658203125
-0.00439453125
1.0
0.0
-0.369537353515625
0.0
-1.0
-0.40985107421875
-0.304718017578125
0.0
0.40252685546875
0.40985107421875
0.2354736328125
0.0
-0.707244873046875
0.0
-0.55780029296875
0.0
0.0
0.0
0.0
-0.0003662109375
0.0
0.0
0.0
0.0003662109375
0.0
0.0
0.0
0.0
0.0
0.0
0.0
-0.269927978515625
1.0
-0.646087646484375
1.0
-0.34100341796875
-0.0003662109375
-0.294830322265625
0.0
-0.443511962890625
0.0
0.0029296875
0.0
0.330352783203125
0.0
0.44683837890625
0.0
0.60028076171875
0.0003662109375
-0.0809326171875
0.0
-0.18017578125
-0.0003662109375
0.347930908203125
0.0
0.1102294921875
0.0
0.0523681640625
0.0003662109375
-0.164825439453125
0.0003662109375
-0.859954833984375
-0.000732421875
-0.883026123046875
-0.000732421875
-0.44903564453125
0.0
0.316070556640625
0.0003662109375
0.52374267578125
0.0003662109375
-0.087890625
0.0
0.9610595703125
0.0003662109375
1.0
0.0003662109375
-0.0040283203125
0.0
-0.0003662109375
0.0
-0.0003662109375
0.0
0.0003662109375
0.0
0.0003662109375
0.0
0.0
0.0
0.0
0.0
0.0
0.0003662109375
0.0
0.0
0.0
-0.0003662109375
0.0
0.0
0.0
0.0
-0.0003662109375
0.0
0.0
0.0
0.0003662109375
0.0
-0.0003662109375
0.0
0.0
0.0
0.0003662109375
0.0
0.0
0.0
0.0
0.0
0.0
0.0
0.0
0.0
0.0
0.0
0.0
0.0
0.0
0.0
0.0
0.0
0.0
0.0
0.0
0.0
0.0
0.0
0.0
0.0
0.0
0.0
0.0
0.0
0.0
0.0
-1.0
-1.0
-1.0
-1.0
0.0
0.0
0.0
0.0
0.0
0.0
0.0
0.0
0.0
0.0
0.0
0.0
0.0
0.0
0.0
0.0
0.0
0.0
1.0
1.0
1.0
1.0
0.0003662109375
0.0
0.0
0.0
0.0
0.0
0.0
0.0
0.0
0.0
0.0
0.0
0.0
0.0
0.0
0.0
0.0
0.0
0.0
0.0
-0.0003662109375
0.0
-1.0
-1.0
-1.0
-1.0
0.0
0.0
0.0
0.0
0.0
0.0
1.0
0.0
1.0
0.0
0.0010986328125
0.0
0.0
0.0
0.0
0.0
0.0
0.0
0.0
0.0
0.0
0.0
0.0
0.0
0.0
0.0
0.0
0.0
0.0
0.0
0.0
0.0
0.0
0.0
0.0
0.0
0.0
0.0
0.0
0.0
0.0
0.0
0.0
0.0
0.0
0.0
0.0
0.0
0.0
0.0
0.0
0.0
0.0
0.0
0.0
0.0
0.0
0.0
0.0
0.0
0.0
0.0
0.0
0.0
-0.021240234375
0.0
-0.55780029296875
0.0
-1.0
0.0
-0.9368896484375
1.0
0.0
1.0
0.0
0.0
0.0
0.0
0.0
0.0
0.0
0.0
0.0
0.0
1.0
-1.0
1.0
-1.0
0.159332275390625
0.0
0.0
0.0
0.0003662109375
0.0
0.0
0.0
0.0
0.0
0.0
0.0
0.0
0.0
0.0
0.0
0.0
0.0
0.0
0.0
0.0
0.0
0.0
0.0
0.0
0.0
0.0
0.0
-0.0087890625
0.0
-1.0
1.0
-1.0
1.0
0.0
0.0
0.0
0.0
0.0
0.0
0.0
0.0
0.0
0.0
0.0
0.0
0.0
0.0
0.0
0.0
0.0
0.0
0.0
0.0
1.0
-1.0
1.0
-1.0
-0.00439453125
0.0
0.0
0.0
-0.0003662109375
0.0
0.0
0.0
0.0003662109375
0.0
0.0
0.0
0.0
0.0
-1.0
1.0
-1.0
1.0
-0.030029296875
0.0
0.0
0.0
0.0
0.0
0.0
0.0
0.0
0.0
0.0
0.0
0.0
0.0
0.0
0.0
0.0
0.0
0.0
0.0
0.0
0.0
0.0
0.0
0.0
0.0
0.0
0.0
0.0
0.0
0.0
0.0
0.0
0.0
0.0
0.0
0.0
0.0
0.0
0.0
0.0
0.0
0.0
-1.0
0.0
-1.0
0.0
0.0
0.0
0.0
0.0
0.0
0.0
0.0
0.0
1.0
0.825164794921875
1.0
0.817840576171875
0.0003662109375
-0.0985107421875
0.0
-0.0838623046875
0.0
-0.046875
0.0
-0.0966796875
0.0
-0.040283203125
0.0
-0.032989501953125
0.0
-0.149810791015625
-0.0003662109375
-0.170654296875
-0.0003662109375
-0.0069580078125
0.0003662109375
0.041748046875
0.0003662109375
-0.0758056640625
0.0
-0.075439453125
0.0
0.0919189453125
0.0
0.225616455078125
0.0
-0.063720703125
-0.0003662109375
-0.48016357421875
-0.0003662109375
-0.43511962890625
0.0
1.0
-1.0
1.0
-1.0
-0.00439453125
-0.01171875
0.0
0.0
0.0
0.0
0.0
0.0
0.0
0.0
0.0
0.0
0.0
0.0
0.0
0.0
0.0
0.0
0.0
0.0
0.0
0.0
0.0
0.0
0.0
0.0
0.0
0.0
0.0
0.0
0.0
0.0
0.0
0.0
0.0
0.0
0.0
0.0
0.0
0.0
0.0
0.0
0.0
0.0
0.0
0.0
0.0
0.0
0.0
0.0
0.0
0.0
0.0
0.0
0.0
0.0
0.0
0.0
0.0
0.0
0.0
0.0
0.0
0.0
0.0
0.0
0.0
0.0
0.0
0.0
0.0
0.0
0.0
0.0
0.0
0.0
0.0
0.0
0.0
0.0
0.0
0.0
0.0
0.0
0.0
0.0
0.0
0.0
-1.0
1.0
-1.0
1.0
0.0
0.0
0.0
0.0
0.0
-0.0003662109375
0.0
0.0
0.0
0.0003662109375
0.0
0.0
0.0
0.0
0.0
0.0
0.0
0.0
0.0
0.0
0.0
0.0
0.0
0.0
0.0
0.0
0.0
0.0
0.0
0.0
1.0
-1.0
1.0
-1.0
0.0
0.0
0.0
0.0
0.0
0.0
0.0
0.0
0.0
0.0
0.0
0.0
0.0
0.0
0.0
0.0
0.0
0.0
0.0
0.0
0.0
0.0
0.0
0.0
0.0
0.0
-0.0172119140625
0.0
-1.0
1.0
-1.0
1.0
0.0
-0.0003662109375
0.0
0.0
0.0
0.0
0.0
0.0
0.0
0.0
0.0
0.0
0.0
0.0
0.0
0.0
0.0
0.0003662109375
0.0
0.0
0.0
-0.0003662109375
0.0
0.0
0.0
0.0
0.0
0.0
0.0
0.0
0.0
0.0
0.0
0.0
0.0
0.0
0.0
0.0
0.0
0.0
0.0
0.0
0.0
0.0
0.0
0.0
0.0
0.0003662109375
0.0
0.0
0.0
-0.0003662109375
0.0
0.0
0.0
0.0
0.0
0.0
0.0
0.0
0.0
0.0
0.0
0.0
0.0
0.0
0.0
0.0
0.0
0.0
0.0
0.0
0.0
0.0
0.0
0.0
0.0
0.0
0.0
0.0
0.0
0.0
0.0
0.0
0.0
0.0
0.0
0.0
0.0
0.0
0.0
0.0
0.0
0.0
0.0
0.0
0.0
0.0
0.0
0.0
0.0
0.0
0.0
0.0
0.0
0.0
0.0
0.0
0.0
0.0
0.0
0.0
0.0
0.0
0.0
0.0
0.0
0.0
0.0
0.0
0.0
0.0
0.0
0.0
0.0
0.0
0.0
0.0
0.0
0.0
0.0
0.0
0.0
0.0
0.0
0.0
0.0
0.0
0.0
0.0
0.0
0.0
0.0
0.0
0.0
0.0
0.0
0.0
0.0
0.0
0.0
0.0
0.0
0.0
0.0
0.0
0.0
0.0
0.0
0.0
0.0
0.0
0.0
0.0
0.0
0.0
0.0
0.0
0.0
0.0
0.0
0.0
0.0
0.0
0.0
0.0
0.0
0.0
0.0
-0.0186767578125
0.0
-0.048004150390625
0.0
-0.057159423828125
0.0
-0.0516357421875
0.0
-0.0487060546875
0.0
-0.0479736328125
0.0
-0.0421142578125
0.0
-0.038818359375
0.0
-0.041015625
0.0
-0.040283203125
0.0
-0.038818359375
0.0
-0.0377197265625
0.00439453125
-0.03662109375
0.019775390625
-0.0384521484375
0.031524658203125
-0.038482666015625
0.030792236328125
-0.037750244140625
0.0289306640625
-0.0369873046875
0.027099609375
-0.03515625
0.0267333984375
-0.03369140625
0.02783203125
-0.0318603515625
0.028564453125
-0.02783203125
0.029296875
-0.02490234375
0.028564453125
-0.0234375
0.029296875
-0.022705078125
0.030029296875
-0.021240234375
0.029296875
-0.0194091796875
0.028564453125
-0.017578125
0.0303955078125
-0.013916015625
0.0340576171875
-0.01025390625
0.0369873046875
-0.0062255859375
0.0399169921875
-0.0025634765625
0.03369140625
-0.0054931640625
0.0208740234375
-0.016845703125
0.0128173828125
-0.0252685546875
0.0084228515625
-0.0267333984375
0.0113525390625
-0.024169921875
0.014678955078125
-0.0216064453125
0.016876220703125
-0.0150146484375
0.024169921875
-0.0062255859375
0.02490234375
-0.006591796875
0.0223388671875
-0.009521484375
0.02490234375
-0.005126953125
0.0267333984375
0.003662109375
0.018310546875
-0.005859375
0.0849609375
0.0626220703125
0.0809326171875
0.0567626953125
-0.0054931640625
-0.03662109375
0.0018310546875
-0.02490234375
0.201812744140625
-0.123809814453125
1.0
-0.9478759765625
0.814910888671875
-0.828094482421875
0.0
0.0
0.0
0.0
0.0
0.0
-1.0
1.0
-1.0
1.0
-0.097442626953125
0.259307861328125
0.0
0.0
0.0
0.0
0.0
0.0
0.0
0.0
0.0
0.0
0.0
0.0
1.0
-1.0
1.0
-1.0
-0.0029296875
0.0
0.0
0.0
0.0
0.0
0.0
0.0
0.0
0.0
0.0
0.0
0.0
0.0
0.0
0.0
0.0
0.0
0.0
0.0
0.0
0.0
0.0
0.0
-1.0
1.0
-1.0
1.0
1.0
0.000732421875
1.0
-1.0
-0.00439453125
-1.0
0.0
0.0
0.0
0.0
-1.0
1.0
-1.0
1.0
-0.01171875
0.0
0.0
0.0
0.0
0.0
0.0
0.0
0.0
0.0
0.0
0.0
0.0
0.0
0.0
0.0
0.0
0.0
0.0
-0.0003662109375
0.0
0.0
0.0
0.0003662109375
0.0
0.0
0.0
0.0
0.0
0.0
0.0
0.0
0.0
0.0
0.0
0.0
0.0
0.0
0.0
0.0
0.0
0.0
0.0
0.0
0.0
0.0
0.0
0.0
0.0
0.0
0.0
0.0
0.0
0.0
0.0
0.0
0.0
0.0
0.0
0.0
0.0
0.0
0.0
0.0
0.0
0.0
0.0
0.0
0.0
0.0
0.0
0.0
0.0
0.0
0.0
0.0
0.0
0.0
0.0
0.0
0.0
0.0
0.0
0.0
0.0
0.0
0.0
0.0
0.0
0.0
0.0
0.0
0.0
0.0
0.0
0.0
0.0
0.0
0.0
0.0
0.0
0.0
0.0
0.0
0.0
0.0
0.0
0.0
0.0
0.0
0.0
0.0
0.0
0.0
0.0
0.0
0.0
0.0
0.0
0.0
0.0
0.0
0.0
0.0
0.0
0.0
0.0
0.0
0.0
0.0
0.0
0.0
0.0
0.0
0.0
0.0
0.0
0.0
0.0
0.0
0.0
0.0
1.0
-1.0
1.0
-1.0
0.000732421875
0.0
0.0
0.0
0.0
0.0
0.0
0.0
0.0
0.0
0.0
0.0
-1.0
1.0
-1.0
1.0
0.0
0.0
0.0
0.0
0.0
0.0
0.0
0.0
0.0
0.0
0.0
0.0003662109375
0.0
0.0
0.0
-0.0003662109375
0.0
0.0
0.0
0.0
0.0
0.0
0.0
0.0
0.0
-0.0003662109375
0.0
0.0
0.0
0.0003662109375
0.0
0.0
0.0
0.0
0.0
0.0
0.0
0.0
0.0
0.0
1.0
-1.0
1.0
-1.0
0.0010986328125
0.0
0.0
0.0
0.0
0.0
0.0
0.0
-0.0003662109375
0.0
0.0
0.0
0.0003662109375
0.0
0.0
0.0
0.0
0.0
0.0
0.0
0.0
0.0
0.0
0.0
0.0
0.0
0.0
0.0
0.0
0.0
-1.0
0.9141845703125
-1.0
0.0
-0.017578125
-0.9141845703125
0.0
0.0
0.0
0.0
1.0
0.0
1.0
0.0
0.0010986328125
0.0
0.0
0.0
0.0
0.0
0.0
0.0
-0.0003662109375
0.0
0.0
0.0
0.0003662109375
0.0
0.0
0.0
0.0
0.0
0.0
0.0
0.0
0.0
0.0
0.0
0.0
0.0
0.0
0.0
0.0
0.0
0.0
0.0
0.0
1.0
0.0
1.0
0.0
-0.0003662109375
0.0
0.0
0.0
0.0003662109375
0.0
0.0
0.0
0.0
0.0
0.0
0.0
0.0
-1.0
-0.000732421875
-1.0
-0.000732421875
-0.0325927734375
0.0
0.0
0.0
1.0
0.000732421875
1.0
0.000732421875
-0.00439453125
-1.0
0.0
-1.0
0.0
-0.018310546875
0.0
0.0
0.0
0.0
-0.0003662109375
1.0
0.0
1.0
0.0003662109375
0.0
0.0
0.0
0.0
0.0
0.0
0.0
0.0
0.0
0.0
0.0
0.0
0.0
0.0
0.0
0.0
0.0
0.0
0.0
-0.0003662109375
0.0
0.0
0.0
0.0003662109375
0.0
0.0
0.0
-1.0
-0.000732421875
-1.0
-0.000732421875
-0.0234375
0.0
0.0
0.0
0.0
0.0
0.0
0.0
0.0
0.0
0.0
0.0
0.0
0.0
0.0
0.0
0.0
0.0
1.0
-1.0
1.0
-1.0
-0.625946044921875
0.793304443359375
-1.0
1.0
-0.868011474609375
0.705047607421875
0.0
0.0
0.0
0.0
0.0
0.0
0.0
0.0
0.0
0.0
0.0
0.0
0.0
0.0
0.0
0.0
0.0
0.0
0.0
0.0
0.0
0.0
0.0
0.0
0.0
0.0
0.749725341796875
-0.748626708984375
0.749725341796875
-0.748626708984375
