-0.266632080078125
-0.747528076171875
-0.242462158203125
-0.747528076171875
0.0457763671875
0.0
0.02490234375
0.0
0.00439453125
0.0
0.0054931640625
0.0
0.01904296875
0.0
0.01318359375
0.0
-0.01318359375
0.0
-0.0223388671875
0.0
-0.017578125
0.0
0.0106201171875
0.0
0.029296875
0.0
0.03076171875
0.0
0.02197265625
0.0
0.0135498046875
0.0
0.035186767578125
0.0146484375
0.038116455078125
0.066680908203125
0.009521484375
0.084259033203125
-0.0091552734375
0.05419921875
-0.000732421875
0.04833984375
0.0069580078125
0.043212890625
-0.0025634765625
0.15087890625
-0.012451171875
0.081298828125
-0.011383056640625
-0.10400390625
-0.014312744140625
-0.030029296875
-0.015380859375
0.0380859375
-0.006591796875
0.032958984375
0.0010986328125
0.025634765625
0.0047607421875
0.0311279296875
0.0091552734375
0.068145751953125
0.026031494140625
0.084625244140625
0.038848876953125
0.0556640625
0.02783203125
0.0274658203125
0.005126953125
0.0399169921875
0.0205078125
0.044677734375
0.0391845703125
0.02783203125
0.0274658203125
0.0234375
0.0172119140625
0.0377197265625
0.0164794921875
0.0399169921875
0.0238037109375
0.0263671875
0.0303955078125
0.052001953125
0.0091552734375
0.152374267578125
0.016845703125
-0.01611328125
0.019775390625
-0.149444580078125
0.0010986328125
-0.01025390625
0.0084228515625
0.01611328125
0.0010986328125
0.0098876953125
-0.0047607421875
0.00146484375
-0.0062255859375
0.019775390625
0.0047607421875
0.0615234375
0.017578125
0.061187744140625
0.01611328125
0.021270751953125
0.006591796875
0.0076904296875
-0.0047607421875
0.02490234375
0.000732421875
0.0274658203125
0.01171875
0.0164794921875
0.006591796875
0.0164794921875
0.005859375
0.013916015625
0.0106201171875
0.0230712890625
0.0076904296875
0.0260009765625
0.0963134765625
0.00146484375
0.0303955078125
0.03515625
-0.0670166015625
0.0106201171875
-0.0076904296875
-0.03369140625
-0.00732421875
-0.0018310546875
-0.0098876953125
0.006591796875
-0.0208740234375
0.0205078125
-0.01904296875
0.0230712890625
0.005859375
0.019775390625
0.0281982421875
0.0106201171875
0.03076171875
0.0029296875
0.0325927734375
-0.0054931640625
-0.0106201171875
0.015380859375
-0.0223388671875
0.021240234375
0.0047607421875
0.0025634765625
-0.0025634765625
0.0098876953125
0.003662109375
0.0003662109375
-0.00732421875
0.00732421875
0.053466796875
0.0069580078125
0.052001953125
-0.00732421875
-0.038818359375
0.0142822265625
-0.03955078125
0.010986328125
-0.0274658203125
-0.0054931640625
-0.0150146484375
-0.0010986328125
-0.0157470703125
0.002197265625
-0.0303955078125
0.01318359375
-0.0150146484375
0.006591796875
0.017578125
-0.0054931640625
0.0252685546875
-0.006591796875
0.00732421875
-0.0047607421875
0.0010986328125
-0.0128173828125
0.0018310546875
-0.0179443359375
-0.0106201171875
-0.0010986328125
-0.0084228515625
0.0208740234375
0.006591796875
0.0135498046875
0.002197265625
0.000732421875
-0.0029296875
0.0062255859375
-0.0018310546875
0.0172119140625
0.005859375
0.01904296875
0.0179443359375
0.0194091796875
0.002197265625
0.127471923828125
0.002197265625
-0.008056640625
0.00146484375
-0.158599853515625
-0.0120849609375
-0.0443115234375
-0.005859375
-0.0069580078125
-0.0054931640625
-0.00439453125
-0.002197265625
-0.0146484375
-0.010986328125
-0.0062255859375
-0.01611328125
0.0303955078125
-0.0003662109375
0.034423828125
0.010986328125
0.0040283203125
0.0003662109375
-0.006591796875
-0.0146484375
0.0113525390625
0.0087890625
0.0201416015625
0.0194091796875
0.015380859375
0.006591796875
0.0087890625
0.0025634765625
0.0018310546875
0.0025634765625
0.021240234375
0.018310546875
0.0062255859375
0.0234375
0.062286376953125
0.012451171875
0.082794189453125
0.0040283203125
-0.086090087890625
-0.005859375
-0.110626220703125
-0.006591796875
-0.0208740234375
0.00146484375
-0.0120849609375
-0.0010986328125
-0.0223388671875
-0.003662109375
-0.0208740234375
-0.0010986328125
0.009521484375
0.0029296875
0.038818359375
0.0084228515625
0.0303955078125
0.01171875
-0.0010986328125
0.0032958984375
-0.0128173828125
-0.0054931640625
0.006591796875
0.005126953125
0.0142822265625
0.0054931640625
0.0047607421875
-0.0010986328125
0.0025634765625
0.000732421875
0.0047607421875
0.0010986328125
0.0120849609375
0.019775390625
-0.000732421875
0.018310546875
0.106231689453125
-0.0084228515625
0.0428466796875
-0.0091552734375
-0.143585205078125
-0.006591796875
-0.081298828125
-0.008056640625
-0.013916015625
-0.0062255859375
-0.0087890625
-0.0062255859375
-0.0172119140625
-0.0069580078125
-0.0146484375
-0.0029296875
0.0172119140625
0.0047607421875
0.0347900390625
0.010986328125
0.0076904296875
0.00146484375
-0.0098876953125
-0.01318359375
0.0087890625
0.0003662109375
0.01611328125
0.005859375
0.005126953125
-0.0003662109375
0.003662109375
-0.0018310546875
0.0084228515625
-0.00146484375
0.0164794921875
0.015380859375
0.0032958984375
0.0238037109375
0.081695556640625
0.0032958984375
0.0457763671875
-0.0157470703125
-0.117950439453125
-0.021240234375
-0.0816650390625
-0.015380859375
-0.012451171875
-0.005859375
-0.0150146484375
-0.0106201171875
-0.0150146484375
-0.012451171875
-0.0091552734375
-0.0084228515625
0.013916015625
-0.000732421875
0.043212890625
0.0106201171875
0.0238037109375
0.0091552734375
-0.0135498046875
-0.0091552734375
0.0003662109375
-0.0025634765625
0.019775390625
0.0172119140625
0.009521484375
0.0062255859375
0.0029296875
-0.0054931640625
0.01171875
-0.00439453125
0.0186767578125
0.008056640625
0.0135498046875
0.0164794921875
0.0263671875
-0.005126953125
0.128570556640625
0.003662109375
-0.029296875
0.0047607421875
-0.175445556640625
-0.01025390625
-0.0428466796875
-0.003662109375
-0.008056640625
-0.0087890625
-0.009521484375
-0.006591796875
-0.015380859375
-0.0054931640625
0.0010986328125
0.0
0.03369140625
0.0106201171875
0.037353515625
0.0186767578125
-0.000732421875
0.008056640625
-0.0201416015625
-0.009521484375
0.00439453125
0.0032958984375
0.0238037109375
0.010986328125
0.0150146484375
0.0018310546875
0.008056640625
0.0
0.0091552734375
0.0010986328125
0.0106201171875
0.0135498046875
-0.0018310546875
0.0216064453125
0.056396484375
0.0054931640625
0.0765380859375
-0.0069580078125
-0.08935546875
-0.0146484375
-0.1142578125
-0.013916015625
-0.0194091796875
-0.0029296875
-0.01171875
-0.0084228515625
-0.0179443359375
-0.0091552734375
-0.01904296875
-0.0076904296875
0.009521484375
-0.0010986328125
0.03662109375
0.0113525390625
0.0179443359375
0.0076904296875
-0.01025390625
-0.0106201171875
0.0025634765625
-0.0032958984375
0.019775390625
0.0128173828125
0.005126953125
0.0
-0.0010986328125
-0.00439453125
0.0062255859375
-0.00146484375
0.0150146484375
0.0106201171875
0.005859375
0.0223388671875
0.022705078125
-0.0054931640625
0.124542236328125
-0.0062255859375
-0.0362548828125
-0.00732421875
-0.162628173828125
-0.0216064453125
-0.0340576171875
-0.0084228515625
-0.0106201171875
-0.008056640625
-0.0194091796875
-0.009521484375
-0.0201416015625
-0.0106201171875
0.00146484375
-0.0025634765625
0.0318603515625
0.008056640625
0.0260009765625
0.003662109375
-0.0069580078125
-0.021240234375
-0.0025634765625
-0.0186767578125
0.021240234375
0.0040283203125
0.0135498046875
0.0025634765625
0.0
-0.0025634765625
0.0062255859375
-0.003662109375
0.013916015625
0.0054931640625
0.0208740234375
0.0172119140625
0.01318359375
0.012451171875
0.119781494140625
0.0040283203125
0.0069580078125
-0.0040283203125
-0.162261962890625
-0.010986328125
-0.0538330078125
-0.005859375
-0.005126953125
-0.003662109375
-0.0120849609375
-0.005859375
-0.018310546875
-0.005126953125
-0.00146484375
-0.00439453125
0.029296875
0.005126953125
0.0380859375
0.012451171875
0.00439453125
0.0029296875
-0.0128173828125
-0.0120849609375
0.010986328125
-0.0003662109375
0.0205078125
0.012451171875
0.005859375
0.0003662109375
0.0076904296875
-0.0010986328125
0.012451171875
-0.0018310546875
0.01171875
0.0128173828125
0.0003662109375
0.0238037109375
0.0582275390625
0.002197265625
0.0787353515625
-0.00732421875
-0.0860595703125
-0.01318359375
-0.10986328125
-0.01171875
-0.0164794921875
-0.006591796875
-0.0146484375
-0.0128173828125
-0.0208740234375
-0.012451171875
-0.0186767578125
-0.00732421875
0.0091552734375
0.0003662109375
0.03955078125
0.0087890625
0.0179443359375
0.009521484375
-0.01318359375
-0.0150146484375
0.0029296875
-0.008056640625
0.02490234375
0.01318359375
0.008056640625
0.0010986328125
-0.0025634765625
-0.005126953125
0.0091552734375
-0.0029296875
0.010986328125
0.009521484375
0.000732421875
0.0230712890625
0.030029296875
0.0010986328125
0.121246337890625
-0.00146484375
-0.046875
-0.005859375
-0.157867431640625
-0.0216064453125
-0.030029296875
-0.005126953125
-0.013916015625
-0.0054931640625
-0.0157470703125
-0.0087890625
-0.0230712890625
-0.0047607421875
0.0018310546875
-0.0018310546875
0.043212890625
0.0098876953125
0.025634765625
0.0128173828125
-0.0087890625
-0.0113525390625
-0.00146484375
-0.0084228515625
0.0238037109375
0.0120849609375
0.015380859375
0.0069580078125
0.00732421875
0.0
0.0047607421875
-0.0018310546875
0.0062255859375
0.003662109375
0.0230712890625
0.0157470703125
0.0201416015625
0.00439453125
0.132232666015625
0.0054931640625
0.0003662109375
0.0029296875
-0.173248291015625
-0.01318359375
-0.053466796875
-0.00439453125
-0.015380859375
-0.00732421875
-0.01318359375
-0.0087890625
-0.0113525390625
-0.00732421875
0.0
-0.0040283203125
0.0289306640625
0.0069580078125
0.0322265625
0.0157470703125
0.0
0.005859375
-0.0146484375
-0.01318359375
0.010986328125
0.0025634765625
0.021240234375
0.008056640625
0.0040283203125
-0.0018310546875
-0.00146484375
-0.002197265625
0.00732421875
-0.0018310546875
0.0128173828125
0.013916015625
0.002197265625
0.0179443359375
0.073974609375
0.005126953125
0.0648193359375
-0.0084228515625
-0.100341796875
-0.01611328125
-0.098876953125
-0.0091552734375
-0.0234375
-0.0029296875
-0.016845703125
-0.0076904296875
-0.0179443359375
-0.008056640625
-0.018310546875
-0.005126953125
0.01318359375
-0.0003662109375
0.044677734375
0.013916015625
0.0179443359375
0.0076904296875
-0.0146484375
-0.0142822265625
0.00439453125
-0.0032958984375
0.0205078125
0.01318359375
0.0062255859375
0.0054931640625
0.0047607421875
-0.002197265625
0.009521484375
-0.00146484375
0.0113525390625
0.0113525390625
0.0029296875
0.021240234375
0.034423828125
-0.0084228515625
0.125274658203125
-0.00439453125
-0.053466796875
-0.000732421875
-0.160797119140625
-0.01611328125
-0.0274658203125
-0.0029296875
-0.0128173828125
-0.0040283203125
-0.0194091796875
-0.005859375
-0.022705078125
-0.0091552734375
0.0047607421875
-0.0032958984375
0.035888671875
0.008056640625
0.0252685546875
0.0087890625
-0.0025634765625
-0.0113525390625
-0.0003662109375
-0.0076904296875
0.025634765625
0.0142822265625
0.0062255859375
0.0069580078125
-0.012451171875
-0.0047607421875
0.0098876953125
-0.00439453125
0.02197265625
0.01171875
0.0091552734375
0.0238037109375
0.019775390625
0.000732421875
0.132598876953125
0.0029296875
-0.028564453125
-0.0010986328125
-0.169952392578125
-0.017578125
-0.0369873046875
-0.006591796875
-0.0098876953125
-0.005859375
-0.0146484375
-0.01171875
-0.021240234375
-0.0142822265625
0.0
-0.0010986328125
0.0380859375
0.010986328125
0.0333251953125
0.0146484375
-0.00439453125
-0.0025634765625
-0.01025390625
-0.009521484375
0.0179443359375
0.0047607421875
0.022705078125
0.0054931640625
0.0062255859375
-0.0029296875
0.0062255859375
-0.00439453125
0.0106201171875
0.0029296875
0.017578125
0.0201416015625
0.0040283203125
0.0146484375
0.117218017578125
-0.0032958984375
0.0201416015625
-0.005859375
-0.161895751953125
-0.0128173828125
-0.0615234375
-0.0069580078125
-0.0091552734375
-0.0047607421875
-0.01171875
-0.0084228515625
-0.0201416015625
-0.00439453125
-0.01025390625
-0.0040283203125
0.0260009765625
0.0029296875
0.0380859375
0.0106201171875
0.0029296875
0.0
-0.0135498046875
-0.0113525390625
0.0098876953125
0.0010986328125
0.021240234375
0.0069580078125
0.0113525390625
-0.0010986328125
0.003662109375
-0.00439453125
0.0098876953125
-0.000732421875
0.0128173828125
0.022705078125
0.0003662109375
0.0208740234375
0.09814453125
-0.0032958984375
0.0347900390625
-0.012451171875
-0.134765625
-0.0205078125
-0.0703125
-0.0164794921875
-0.0084228515625
-0.01025390625
-0.0113525390625
-0.0084228515625
-0.0142822265625
-0.0087890625
-0.008056640625
-0.005126953125
0.0267333984375
0.005859375
0.0443115234375
0.0142822265625
0.0091552734375
0.005859375
-0.0084228515625
-0.0113525390625
0.006591796875
0.0029296875
0.019775390625
0.0098876953125
0.0128173828125
-0.0018310546875
0.0087890625
-0.0029296875
0.0091552734375
-0.0010986328125
0.01171875
0.01611328125
0.0029296875
0.0260009765625
0.0582275390625
0.008056640625
0.075439453125
-0.008056640625
-0.085693359375
-0.0157470703125
-0.10546875
-0.013916015625
-0.017578125
-0.0054931640625
-0.0135498046875
-0.0084228515625
-0.0157470703125
-0.009521484375
-0.0142822265625
-0.0062255859375
0.0142822265625
0.0018310546875
0.0435791015625
0.0135498046875
0.02490234375
0.0142822265625
-0.012451171875
-0.005859375
-0.01318359375
-0.0091552734375
0.0186767578125
0.010986328125
0.017578125
0.0076904296875
0.0025634765625
-0.0010986328125
0.01025390625
-0.0010986328125
0.010986328125
0.00146484375
0.0146484375
0.016845703125
0.0032958984375
0.01171875
0.118682861328125
0.000732421875
0.0146484375
-0.0029296875
-0.166290283203125
-0.0106201171875
-0.05859375
-0.0069580078125
-0.0091552734375
-0.0069580078125
-0.0146484375
-0.0091552734375
-0.018310546875
-0.0084228515625
-0.00732421875
-0.0029296875
0.0223388671875
0.00439453125
0.03662109375
0.013916015625
0.002197265625
0.003662109375
-0.01611328125
-0.0098876953125
0.00732421875
0.0032958984375
0.0205078125
0.0069580078125
0.009521484375
-0.0003662109375
0.0018310546875
-0.003662109375
0.0076904296875
0.0
0.0150146484375
0.0194091796875
0.00146484375
0.0205078125
0.0889892578125
0.0029296875
0.047607421875
-0.00732421875
-0.1285400390625
-0.01611328125
-0.085693359375
-0.012451171875
-0.0135498046875
-0.003662109375
-0.0120849609375
-0.00732421875
-0.01904296875
-0.0084228515625
-0.01904296875
-0.0062255859375
0.01611328125
0.002197265625
0.04248046875
0.01611328125
0.0113525390625
0.00732421875
-0.01318359375
-0.0120849609375
0.00732421875
-0.0018310546875
0.021240234375
0.0120849609375
0.006591796875
0.0010986328125
0.002197265625
-0.00439453125
0.0098876953125
-0.0025634765625
0.0150146484375
0.0150146484375
-0.00146484375
0.0245361328125
0.06005859375
0.002197265625
0.0743408203125
-0.0069580078125
-0.0919189453125
-0.016845703125
-0.109130859375
-0.0150146484375
-0.0179443359375
-0.002197265625
-0.0106201171875
-0.00732421875
-0.0179443359375
-0.0069580078125
-0.0186767578125
-0.0069580078125
0.0128173828125
-0.0003662109375
0.041748046875
0.0106201171875
0.0186767578125
0.008056640625
-0.005859375
-0.0146484375
0.0040283203125
-0.008056640625
0.0194091796875
0.0120849609375
0.01025390625
0.00146484375
0.0025634765625
-0.0054931640625
0.0113525390625
-0.0047607421875
0.017578125
0.009521484375
0.008056640625
0.0234375
0.031494140625
0.0003662109375
0.119415283203125
-0.0032958984375
-0.044677734375
-0.0069580078125
-0.152008056640625
-0.017578125
-0.0245361328125
-0.0040283203125
-0.0091552734375
-0.0062255859375
-0.0150146484375
-0.0091552734375
-0.0186767578125
-0.0087890625
0.0054931640625
-0.00439453125
0.03955078125
0.0076904296875
0.032958984375
0.015380859375
-0.0054931640625
0.002197265625
-0.0120849609375
-0.0076904296875
0.012451171875
0.0032958984375
0.016845703125
0.0069580078125
0.01025390625
-0.0018310546875
0.0069580078125
-0.0029296875
0.009521484375
0.0018310546875
0.01611328125
0.0186767578125
0.0010986328125
0.0216064453125
0.107330322265625
0.0010986328125
0.028564453125
-0.0113525390625
-0.147247314453125
-0.0186767578125
-0.0648193359375
-0.0120849609375
-0.01171875
-0.009521484375
-0.013916015625
-0.0142822265625
-0.01904296875
-0.013916015625
-0.0128173828125
-0.0120849609375
0.024169921875
0.0003662109375
0.0439453125
0.010986328125
0.0084228515625
0.00732421875
-0.0146484375
-0.0113525390625
0.0047607421875
-0.00146484375
0.0186767578125
0.01318359375
0.0084228515625
0.00439453125
0.0032958984375
-0.0018310546875
0.009521484375
-0.0025634765625
0.0157470703125
0.016845703125
0.0018310546875
0.0274658203125
0.0428466796875
0.0069580078125
0.100341796875
-0.00439453125
-0.069580078125
-0.012451171875
-0.135498046875
-0.013916015625
-0.0216064453125
-0.0029296875
-0.01025390625
-0.006591796875
-0.0150146484375
-0.0087890625
-0.01904296875
-0.0054931640625
0.0054931640625
0.0
0.0384521484375
0.0113525390625
0.024169921875
0.0128173828125
-0.0076904296875
-0.0076904296875
-0.0040283203125
-0.0054931640625
0.0201416015625
0.01171875
0.0142822265625
0.0069580078125
0.0003662109375
-0.0025634765625
0.00732421875
-0.0025634765625
0.01171875
0.00439453125
0.0128173828125
0.0157470703125
0.00146484375
0.0091552734375
0.118316650390625
0.0003662109375
0.0157470703125
-0.0040283203125
-0.159332275390625
-0.0120849609375
-0.0567626953125
-0.0076904296875
-0.009521484375
-0.008056640625
-0.012451171875
-0.006591796875
-0.0208740234375
-0.0062255859375
-0.008056640625
-0.0040283203125
0.028564453125
0.00732421875
0.037353515625
0.01611328125
0.00146484375
0.0047607421875
-0.01171875
-0.0084228515625
0.0069580078125
0.003662109375
0.017578125
0.0054931640625
0.0113525390625
-0.00146484375
0.0069580078125
-0.0029296875
0.009521484375
0.0
0.0135498046875
0.0205078125
0.002197265625
0.0216064453125
0.087158203125
0.0040283203125
0.0450439453125
-0.012451171875
-0.12158203125
-0.022705078125
-0.0772705078125
-0.012451171875
-0.01171875
-0.0054931640625
-0.0106201171875
-0.0076904296875
-0.0157470703125
-0.0076904296875
-0.0113525390625
-0.005859375
0.0216064453125
0.0025634765625
0.0399169921875
0.0142822265625
0.0146484375
0.0091552734375
-0.0120849609375
-0.0135498046875
0.003662109375
-0.0069580078125
0.024169921875
0.012451171875
0.008056640625
0.0062255859375
-0.0062255859375
-0.0047607421875
0.0120849609375
-0.0040283203125
0.0205078125
0.0091552734375
0.009521484375
0.019775390625
0.0267333984375
-0.000732421875
0.123809814453125
-0.0003662109375
-0.03515625
-0.003662109375
-0.163726806640625
-0.0172119140625
-0.0296630859375
-0.005126953125
-0.01025390625
-0.0084228515625
-0.0164794921875
-0.0087890625
-0.0179443359375
-0.0087890625
0.0025634765625
-0.000732421875
0.0347900390625
0.0106201171875
0.03369140625
0.01611328125
-0.000732421875
0.0062255859375
-0.0186767578125
-0.0106201171875
0.005126953125
0.0025634765625
0.02197265625
0.0098876953125
0.0098876953125
0.0
0.005859375
-0.002197265625
0.0091552734375
0.0
0.0128173828125
0.016845703125
-0.00146484375
0.0267333984375
0.054931640625
0.006591796875
0.0787353515625
-0.009521484375
-0.0853271484375
-0.0150146484375
-0.112060546875
-0.0135498046875
-0.0205078125
-0.00439453125
-0.010986328125
-0.0076904296875
-0.015380859375
-0.0076904296875
-0.018310546875
-0.0047607421875
0.009521484375
0.000732421875
0.0391845703125
0.01171875
0.0216064453125
0.009521484375
-0.0091552734375
-0.01171875
-0.000732421875
-0.0069580078125
0.0223388671875
0.0135498046875
0.0113525390625
0.008056640625
-0.008056640625
-0.0047607421875
0.0087890625
-0.005126953125
0.0230712890625
0.010986328125
0.005859375
0.0208740234375
0.0208740234375
-0.0040283203125
0.125274658203125
0.0003662109375
-0.032958984375
-0.0029296875
-0.163360595703125
-0.019775390625
-0.0322265625
-0.005126953125
-0.00732421875
-0.00732421875
-0.0146484375
-0.0087890625
-0.019775390625
-0.0087890625
0.0010986328125
-0.0018310546875
0.03515625
0.008056640625
0.0325927734375
0.0146484375
-0.0040283203125
0.00146484375
-0.012451171875
-0.010986328125
0.008056640625
0.002197265625
0.0179443359375
0.00439453125
0.01171875
-0.0025634765625
0.008056640625
-0.00439453125
0.009521484375
0.0010986328125
0.0106201171875
0.0179443359375
0.0003662109375
0.0230712890625
0.07763671875
0.003662109375
0.0567626953125
-0.0098876953125
-0.109130859375
-0.0172119140625
-0.091552734375
-0.0146484375
-0.013916015625
-0.00439453125
-0.0120849609375
-0.0076904296875
-0.017578125
-0.0084228515625
-0.01611328125
-0.00732421875
0.01611328125
0.0
0.0439453125
0.01025390625
0.018310546875
0.008056640625
-0.00732421875
-0.0120849609375
0.0
-0.0076904296875
0.018310546875
0.0142822265625
0.01171875
0.005859375
-0.0032958984375
-0.0032958984375
0.0098876953125
-0.0025634765625
0.0216064453125
0.0076904296875
0.010986328125
0.017578125
0.0194091796875
0.0010986328125
0.123809814453125
0.0025634765625
-0.021240234375
-0.005859375
-0.159698486328125
-0.0172119140625
-0.03955078125
-0.0040283203125
-0.0128173828125
-0.005859375
-0.0142822265625
-0.0076904296875
-0.015380859375
-0.0091552734375
0.0032958984375
-0.0003662109375
0.03515625
0.009521484375
0.03515625
0.0142822265625
0.000732421875
0.0069580078125
-0.0150146484375
-0.0135498046875
0.0062255859375
-0.0025634765625
0.017578125
0.013916015625
0.008056640625
0.0029296875
0.005859375
-0.0029296875
0.0076904296875
-0.000732421875
0.0146484375
0.0128173828125
0.002197265625
0.029296875
0.03955078125
0.006591796875
0.10546875
-0.0054931640625
-0.0670166015625
-0.0113525390625
-0.139892578125
-0.0164794921875
-0.0223388671875
-0.002197265625
-0.012451171875
-0.0062255859375
-0.0164794921875
-0.00732421875
-0.016845703125
-0.006591796875
0.005859375
0.00146484375
0.03515625
0.01171875
0.029296875
0.01318359375
-0.0069580078125
0.0018310546875
-0.0179443359375
-0.01025390625
0.0076904296875
0.0025634765625
0.022705078125
0.005859375
0.010986328125
-0.00146484375
0.005126953125
-0.002197265625
0.0098876953125
0.0010986328125
0.0128173828125
0.0208740234375
-0.0018310546875
0.02197265625
0.09228515625
0.003662109375
0.044677734375
-0.0098876953125
-0.1300048828125
-0.0194091796875
-0.079833984375
-0.0142822265625
-0.012451171875
-0.005126953125
-0.0128173828125
-0.00732421875
-0.018310546875
-0.0087890625
-0.0142822265625
-0.0054931640625
0.0186767578125
0.002197265625
0.041015625
0.0113525390625
0.0164794921875
0.008056640625
-0.0120849609375
-0.0087890625
-0.0062255859375
-0.00732421875
0.0186767578125
0.0098876953125
0.015380859375
0.005126953125
0.0032958984375
-0.003662109375
0.00732421875
-0.0029296875
0.010986328125
0.0032958984375
0.0120849609375
0.0157470703125
0.0062255859375
0.0087890625
0.123077392578125
0.0010986328125
0.0069580078125
-0.0040283203125
-0.164093017578125
-0.013916015625
-0.052734375
-0.0087890625
-0.0098876953125
-0.0069580078125
-0.0128173828125
-0.0084228515625
-0.0194091796875
-0.0084228515625
-0.008056640625
-0.0032958984375
0.030029296875
0.006591796875
0.038818359375
0.0142822265625
0.00439453125
0.00732421875
-0.0128173828125
-0.01171875
0.0025634765625
-0.029296875
0.016845703125
-0.005859375
0.0054931640625
0.0179443359375
0.0029296875
0.00732421875
0.0087890625
0.00439453125
0.0128173828125
0.01611328125
0.005859375
0.03076171875
0.0384521484375
0.01171875
0.101806640625
-0.0032958984375
-0.064453125
-0.0157470703125
-0.136962890625
-0.01904296875
-0.0205078125
-0.0040283203125
-0.0084228515625
-0.009521484375
-0.0150146484375
-0.009521484375
-0.0194091796875
-0.0062255859375
0.0076904296875
0.0
0.0413818359375
0.0106201171875
0.0322265625
0.01171875
-0.00439453125
0.003662109375
-0.01171875
-0.0106201171875
0.0062255859375
0.000732421875
0.013916015625
0.009521484375
0.0106201171875
-0.0018310546875
0.0135498046875
-0.0029296875
0.0113525390625
-0.0010986328125
0.01318359375
0.0157470703125
0.0
0.029296875
0.05712890625
0.010986328125
0.076171875
-0.01025390625
-0.085693359375
-0.0179443359375
-0.106201171875
-0.01318359375
-0.016845703125
-0.0047607421875
-0.01171875
-0.006591796875
-0.01611328125
-0.0098876953125
-0.0157470703125
-0.006591796875
0.0113525390625
0.0018310546875
0.041015625
0.01025390625
0.028564453125
0.0120849609375
-0.005859375
0.0029296875
-0.0172119140625
-0.01171875
0.005126953125
-0.0018310546875
0.021240234375
0.009521484375
0.0113525390625
-0.0010986328125
0.006591796875
-0.0032958984375
0.0098876953125
-0.0010986328125
0.0113525390625
0.01611328125
-0.0025634765625
0.0263671875
0.0582275390625
0.005859375
0.0732421875
-0.009521484375
-0.0882568359375
-0.01904296875
-0.104736328125
-0.0142822265625
-0.018310546875
-0.00439453125
-0.0128173828125
-0.006591796875
-0.017578125
-0.0087890625
-0.0164794921875
-0.0062255859375
0.012451171875
0.003662109375
0.03955078125
0.0106201171875
0.024169921875
0.012451171875
-0.0113525390625
-0.0010986328125
-0.0142822265625
-0.0087890625
0.008056640625
0.0025634765625
0.018310546875
0.00439453125
0.012451171875
-0.0018310546875
0.006591796875
-0.0029296875
0.009521484375
-0.0003662109375
0.0146484375
0.018310546875
-0.0025634765625
0.02197265625
0.09375
0.0003662109375
0.04248046875
-0.01025390625
-0.131103515625
-0.018310546875
-0.0743408203125
-0.012451171875
-0.01171875
-0.005126953125
-0.01318359375
-0.009521484375
-0.0172119140625
-0.0087890625
-0.0113525390625
-0.005126953125
0.0194091796875
0.0047607421875
0.040283203125
0.0087890625
0.0216064453125
0.0106201171875
-0.010986328125
-0.000732421875
-0.0135498046875
-0.0087890625
0.00732421875
0.00439453125
0.0179443359375
0.0029296875
0.01171875
-0.000732421875
0.0054931640625
-0.0032958984375
0.0113525390625
0.000732421875
0.015380859375
0.0205078125
-0.0018310546875
0.021240234375
0.0985107421875
0.00146484375
0.03955078125
-0.01171875
-0.1351318359375
-0.01904296875
-0.071044921875
-0.01318359375
-0.01025390625
-0.00439453125
-0.0128173828125
-0.00732421875
-0.019775390625
-0.0084228515625
-0.0113525390625
-0.0062255859375
0.022705078125
0.0054931640625
0.0391845703125
0.0113525390625
0.019775390625
0.0091552734375
-0.0128173828125
-0.00146484375
-0.012451171875
-0.0076904296875
0.0106201171875
0.006591796875
0.0172119140625
-0.000732421875
0.0205078125
0.003662109375
0.0029296875
0.0289306640625
-0.02490234375
0.0552978515625
-0.05126953125
0.0010986328125
0.049072265625
-0.064453125
0.0933837890625
-0.03515625
-0.030029296875
-0.01025390625
-0.0428466796875
-0.0062255859375
0.0
-0.0142822265625
0.0076904296875
-0.0150146484375
0.0040283203125
-0.0003662109375
-0.0087890625
0.01611328125
-0.01171875
0.0223388671875
-0.0029296875
0.012451171875
0.0
0.0032958984375
0.0
0.003662109375
-0.0146484375
-0.0025634765625
-0.01318359375
-0.009521484375
0.0113525390625
0.0018310546875
0.0205078125
0.005126953125
0.0106201171875
-0.000732421875
0.00439453125
-0.000732421875
0.0084228515625
0.0003662109375
0.01171875
0.0205078125
-0.002197265625
0.0223388671875
0.0977783203125
0.0025634765625
0.0421142578125
-0.0106201171875
-0.1329345703125
-0.0201416015625
-0.0728759765625
-0.0113525390625
-0.01025390625
0.0003662109375
-0.0216064453125
-0.00439453125
-0.0399169921875
-0.0194091796875
0.0010986328125
-0.0076904296875
0.0450439453125
0.0076904296875
0.040283203125
0.00439453125
0.0263671875
0.002197265625
0.0106201171875
0.0018310546875
0.0084228515625
0.01025390625
0.008056640625
0.0146484375
0.013916015625
0.0120849609375
0.104736328125
0.0084228515625
-0.021240234375
-0.01318359375
-0.1417236328125
-0.0205078125
-0.0303955078125
-0.005859375
-0.01171875
-0.005859375
-0.0179443359375
-0.0113525390625
-0.0164794921875
-0.0087890625
0.0113525390625
0.0029296875
0.0391845703125
0.013916015625
0.0263671875
0.0106201171875
0.0025634765625
0.0029296875
-0.00146484375
-0.00146484375
0.0032958984375
-0.00439453125
0.0040283203125
-0.0047607421875
0.0113525390625
-0.000732421875
0.015380859375
0.0120849609375
-0.012451171875
0.024169921875
-0.02197265625
-0.032958984375
0.08349609375
-0.0531005859375
0.08056640625
0.0
-0.07763671875
0.01611328125
-0.084228515625
0.0062255859375
-0.0076904296875
0.0040283203125
0.000732421875
0.0106201171875
-0.0172119140625
0.009521484375
-0.021240234375
0.002197265625
0.0032958984375
-0.006591796875
0.0311279296875
-0.0120849609375
0.034423828125
-0.02490234375
0.0281982421875
-0.0164794921875
0.006591796875
-0.0450439453125
0.0626220703125
-0.0721435546875
0.0948486328125
0.057861328125
-0.0025634765625
0.14208984375
-0.1424560546875
0.0626220703125
-0.1219482421875
0.0164794921875
-0.0205078125
0.01611328125
-0.025634765625
0.0091552734375
-0.0194091796875
-0.0135498046875
0.009521484375
-0.04248046875
0.038818359375
-0.0472412109375
0.047607421875
-0.03076171875
0.0384521484375
0.0
0.0157470703125
0.012451171875
0.0029296875
0.0032958984375
0.00146484375
0.0025634765625
0.0010986328125
0.0025634765625
-0.0029296875
0.0032958984375
-0.0040283203125
0.002197265625
-0.002197265625
0.0025634765625
-0.00439453125
0.00146484375
-0.0032958984375
-0.0157470703125
0.0029296875
0.062255859375
-0.015380859375
0.0380859375
0.005859375
-0.06298828125
0.031494140625
-0.016845703125
-0.0289306640625
-0.005859375
-0.016845703125
-0.01904296875
0.0201416015625
-0.0146484375
0.008056640625
-0.018310546875
0.008056640625
0.003662109375
-0.016845703125
0.0216064453125
-0.0281982421875
0.015380859375
-0.00439453125
0.0142822265625
0.0128173828125
0.01171875
0.00732421875
0.006591796875
0.00146484375
0.002197265625
-0.0003662109375
0.0025634765625
-0.0047607421875
0.003662109375
-0.005859375
0.002197265625
-0.005859375
0.00146484375
-0.00439453125
-0.013916015625
0.0018310546875
0.076904296875
-0.0186767578125
0.030029296875
0.0113525390625
-0.076904296875
0.0325927734375
-0.0098876953125
-0.0322265625
-0.0120849609375
-0.010986328125
-0.0238037109375
0.0252685546875
-0.01904296875
0.0113525390625
-0.0194091796875
0.0098876953125
0.0054931640625
-0.0120849609375
0.0311279296875
-0.03369140625
0.012451171875
-0.0135498046875
-0.0047607421875
0.018310546875
0.006591796875
0.0172119140625
0.00439453125
0.005126953125
0.000732421875
0.0018310546875
0.0
0.0010986328125
0.0
0.002197265625
0.0029296875
0.0054931640625
0.019775390625
-0.003662109375
0.0230712890625
0.079833984375
0.0018310546875
0.052734375
-0.0113525390625
-0.1109619140625
-0.0216064453125
-0.08056640625
-0.0135498046875
-0.0087890625
-0.00439453125
-0.01171875
-0.00732421875
-0.018310546875
-0.0098876953125
-0.0135498046875
-0.0069580078125
0.019775390625
0.0076904296875
0.0399169921875
0.0157470703125
0.0084228515625
0.0025634765625
-0.006591796875
-0.009521484375
0.0106201171875
0.0032958984375
0.0157470703125
0.006591796875
0.0084228515625
-0.000732421875
0.0054931640625
-0.00439453125
0.0120849609375
-0.0010986328125
0.0146484375
0.021240234375
-0.0010986328125
0.0238037109375
0.0860595703125
0.006591796875
0.043212890625
-0.010986328125
-0.1219482421875
-0.0230712890625
-0.076171875
-0.015380859375
-0.0091552734375
-0.006591796875
-0.0106201171875
-0.00732421875
-0.0179443359375
-0.010986328125
-0.0098876953125
-0.0069580078125
0.0252685546875
0.0054931640625
0.0399169921875
0.012451171875
0.0194091796875
0.00732421875
-0.0062255859375
0.002197265625
-0.0135498046875
-0.0120849609375
-0.0003662109375
-0.0040283203125
0.0172119140625
0.0106201171875
0.0157470703125
-0.0018310546875
0.0087890625
-0.0029296875
0.0084228515625
-0.00146484375
0.0128173828125
0.01171875
0.0040283203125
0.030029296875
0.0325927734375
0.0076904296875
0.1094970703125
-0.0091552734375
-0.0494384765625
-0.0172119140625
-0.1417236328125
-0.0194091796875
-0.0234375
-0.006591796875
-0.008056640625
-0.0076904296875
-0.0128173828125
-0.010986328125
-0.013916015625
-0.009521484375
0.006591796875
0.00146484375
0.0380859375
0.0120849609375
0.0311279296875
0.0098876953125
0.0062255859375
0.0069580078125
-0.01611328125
0.0003662109375
-0.0164794921875
-0.01025390625
0.0076904296875
0.00146484375
0.0208740234375
0.00439453125
0.013916015625
-0.00146484375
0.0047607421875
-0.0018310546875
0.0091552734375
0.00146484375
0.01318359375
0.022705078125
-0.003662109375
0.025634765625
0.1036376953125
0.003662109375
0.0325927734375
-0.0135498046875
-0.1409912109375
-0.0186767578125
-0.06591796875
-0.012451171875
-0.01025390625
-0.005859375
-0.0120849609375
-0.0062255859375
-0.0179443359375
-0.0087890625
-0.0113525390625
-0.0040283203125
0.0238037109375
0.0069580078125
0.03955078125
0.0128173828125
0.016845703125
0.0091552734375
-0.0091552734375
0.002197265625
-0.017578125
-0.012451171875
0.0032958984375
-0.0025634765625
0.0194091796875
0.0120849609375
0.009521484375
-0.0003662109375
0.0054931640625
-0.0029296875
0.01025390625
-0.000732421875
0.0142822265625
0.0146484375
-0.002197265625
0.0263671875
0.049072265625
0.0076904296875
0.08935546875
-0.009521484375
-0.0758056640625
-0.0201416015625
-0.120849609375
-0.013916015625
-0.0205078125
0.0010986328125
-0.017578125
0.000732421875
-0.041015625
-0.0230712890625
-0.0113525390625
-0.016845703125
0.0384521484375
0.0076904296875
0.0472412109375
0.0084228515625
0.0322265625
0.008056640625
0.01025390625
0.000732421875
0.0062255859375
0.005859375
0.0087890625
0.021240234375
-0.0040283203125
0.0238037109375
0.0966796875
0.0018310546875
0.0120849609375
-0.01904296875
-0.132568359375
-0.0194091796875
-0.043212890625
-0.0091552734375
-0.010986328125
-0.0054931640625
-0.01611328125
-0.010986328125
-0.017578125
-0.009521484375
0.0040283203125
-0.00146484375
0.035888671875
0.0106201171875
0.0296630859375
0.01171875
0.0062255859375
0.005859375
-0.002197265625
0.0010986328125
-0.0010986328125
-0.003662109375
0.0040283203125
0.0003662109375
0.0029296875
0.000732421875
-0.0003662109375
0.0
-0.000732421875
0.0
-0.0003662109375
-0.0003662109375
0.0
-0.000732421875
-0.0003662109375
-0.00146484375
-0.0062255859375
-0.0025634765625
-0.00439453125
-0.0029296875
0.006591796875
0.0025634765625
0.0087890625
0.003662109375
0.0084228515625
0.0029296875
0.00439453125
0.0003662109375
0.009521484375
0.0106201171875
0.0054931640625
0.0267333984375
0.0347900390625
0.0003662109375
0.1190185546875
-0.0047607421875
-0.0487060546875
-0.0084228515625
-0.1512451171875
-0.0186767578125
-0.0263671875
-0.005126953125
-0.0087890625
-0.00732421875
-0.0128173828125
-0.009521484375
-0.0146484375
-0.0091552734375
0.000732421875
-0.0010986328125
0.028564453125
0.008056640625
0.0303955078125
0.0084228515625
0.013916015625
0.000732421875
0.005859375
0.000732421875
-0.00146484375
0.0032958984375
-0.0172119140625
-0.01025390625
-0.0069580078125
-0.0054931640625
0.0146484375
0.0069580078125
0.017578125
0.010986328125
0.000732421875
0.0025634765625
0.002197265625
-0.0047607421875
0.019775390625
0.010986328125
0.006591796875
0.017578125
0.0238037109375
-0.002197265625
0.1270751953125
0.0
-0.03076171875
-0.0040283203125
-0.161865234375
-0.0186767578125
-0.034423828125
-0.0032958984375
-0.0091552734375
-0.005859375
-0.01318359375
-0.0091552734375
-0.0201416015625
-0.0087890625
-0.002197265625
-0.0047607421875
0.03369140625
0.0087890625
0.0380859375
0.010986328125
0.0164794921875
0.003662109375
0.002197265625
0.0003662109375
-0.009521484375
0.002197265625
-0.0201416015625
-0.0146484375
0.005859375
-0.00439453125
0.0201416015625
0.012451171875
0.008056640625
0.0029296875
0.005859375
0.0040283203125
0.003662109375
-0.0010986328125
0.01171875
0.01171875
0.0040283203125
0.0263671875
0.0428466796875
0.00439453125
0.1051025390625
-0.00732421875
-0.06298828125
-0.0150146484375
-0.13916015625
-0.0186767578125
-0.0205078125
-0.0032958984375
-0.0106201171875
-0.005859375
-0.0150146484375
-0.0106201171875
-0.016845703125
-0.0069580078125
0.0029296875
-0.00146484375
0.0369873046875
0.01025390625
0.0303955078125
0.0113525390625
0.01171875
0.002197265625
0.0047607421875
0.005126953125
-0.008056640625
0.0018310546875
-0.0054931640625
-0.006591796875
0.00439453125
-0.005126953125
0.008056640625
-0.000732421875
0.0084228515625
-0.0029296875
0.0040283203125
-0.003662109375
0.0076904296875
0.00146484375
0.0186767578125
0.035888671875
-0.012451171875
0.0970458984375
-0.0029296875
-0.01171875
0.012451171875
-0.0926513671875
-0.0205078125
-0.0263671875
-0.017578125
-0.0098876953125
-0.01025390625
-0.009521484375
-0.0029296875
-0.0223388671875
0.00439453125
-0.0194091796875
0.013916015625
0.0106201171875
0.01025390625
0.0311279296875
-0.0018310546875
0.0186767578125
-0.0032958984375
0.00439453125
0.000732421875
0.003662109375
-0.01025390625
0.0029296875
-0.0194091796875
-0.015380859375
0.00732421875
-0.006591796875
0.0263671875
0.0146484375
0.009521484375
0.0054931640625
-0.0018310546875
-0.0010986328125
0.00439453125
-0.0018310546875
0.0128173828125
0.0172119140625
-0.00146484375
0.0322265625
0.05859375
0.0084228515625
0.0684814453125
-0.012451171875
-0.08935546875
-0.0208740234375
-0.0999755859375
-0.0135498046875
-0.0142822265625
-0.0029296875
-0.01171875
-0.0069580078125
-0.018310546875
-0.01025390625
-0.017578125
-0.0069580078125
0.0087890625
0.003662109375
0.0391845703125
0.0106201171875
0.0289306640625
0.0087890625
0.0018310546875
0.005859375
-0.01611328125
-0.005126953125
-0.0098876953125
-0.0084228515625
0.0142822265625
0.0069580078125
0.0172119140625
0.0047607421875
0.0076904296875
-0.0029296875
0.006591796875
-0.0018310546875
0.01171875
0.00439453125
0.013916015625
0.0150146484375
0.0062255859375
0.0091552734375
0.12158203125
0.0029296875
0.005859375
-0.006591796875
-0.1636962890625
-0.015380859375
-0.0501708984375
-0.00732421875
-0.0084228515625
-0.0047607421875
-0.0146484375
-0.006591796875
-0.0186767578125
-0.01025390625
-0.0069580078125
-0.0047607421875
0.029296875
0.0084228515625
0.0369873046875
0.010986328125
0.0157470703125
0.0076904296875
-0.0029296875
0.00439453125
-0.010986328125
-0.00439453125
0.0
-0.0040283203125
0.01171875
0.00146484375
0.008056640625
-0.0025634765625
0.0047607421875
-0.0032958984375
0.0084228515625
-0.003662109375
0.013916015625
0.0135498046875
0.002197265625
0.049072265625
0.0164794921875
0.0318603515625
0.0538330078125
-0.0274658203125
-0.03955078125
-0.0439453125
-0.0787353515625
-0.018310546875
-0.012451171875
-0.005859375
-0.0076904296875
-0.009521484375
-0.0091552734375
-0.0157470703125
-0.0054931640625
-0.01025390625
0.0106201171875
0.01171875
0.0245361328125
0.0201416015625
0.0146484375
0.0106201171875
0.00146484375
0.005859375
-0.0146484375
-0.00146484375
-0.015380859375
-0.01025390625
0.0076904296875
0.0025634765625
0.0216064453125
0.0054931640625
0.0135498046875
-0.0018310546875
0.0040283203125
-0.00146484375
0.0091552734375
0.0010986328125
0.0135498046875
0.022705078125
-0.0032958984375
0.0230712890625
0.0933837890625
0.000732421875
0.040283203125
-0.0113525390625
-0.1292724609375
-0.0186767578125
-0.071044921875
-0.012451171875
-0.0106201171875
-0.0054931640625
-0.0120849609375
-0.00732421875
-0.01904296875
-0.0091552734375
-0.0128173828125
-0.0054931640625
0.019775390625
0.003662109375
0.03955078125
0.0113525390625
0.0223388671875
0.0076904296875
-0.0025634765625
0.0047607421875
-0.0135498046875
-0.0091552734375
-0.0032958984375
-0.008056640625
0.0179443359375
0.0106201171875
0.01318359375
0.00732421875
-0.0062255859375
-0.0040283203125
0.0087890625
-0.0054931640625
0.022705078125
0.0120849609375
0.0062255859375
0.018310546875
0.0194091796875
-0.0040283203125
0.128570556640625
0.0018310546875
-0.0238037109375
-0.0025634765625
-0.164825439453125
-0.017578125
-0.035888671875
-0.000732421875
-0.013916015625
0.005126953125
-0.03662109375
-0.0223388671875
-0.0234375
-0.019775390625
0.0263671875
0.006591796875
0.050537109375
0.006591796875
0.0369873046875
0.006591796875
0.0172119140625
0.000732421875
0.00732421875
0.005126953125
0.00732421875
0.0194091796875
-0.0047607421875
0.0263671875
0.073974609375
0.0087890625
0.038818359375
-0.0120849609375
-0.1080322265625
-0.0208740234375
-0.06591796875
-0.0146484375
-0.01025390625
-0.0047607421875
-0.013916015625
-0.0084228515625
-0.01904296875
-0.01171875
-0.005859375
-0.0054931640625
0.030029296875
0.009521484375
0.03662109375
0.0146484375
0.012451171875
0.0076904296875
-0.002197265625
0.002197265625
-0.00146484375
-0.002197265625
0.000732421875
-0.0018310546875
0.002197265625
-0.000732421875
0.0018310546875
0.0
0.000732421875
0.000732421875
0.00146484375
0.0003662109375
-0.0003662109375
0.0003662109375
0.0
-0.0003662109375
0.0003662109375
0.0
-0.005859375
-0.0062255859375
-0.0029296875
-0.0040283203125
0.006591796875
0.002197265625
0.006591796875
0.0054931640625
0.0069580078125
0.0054931640625
0.003662109375
-0.0003662109375
0.009521484375
0.0113525390625
0.0054931640625
0.0274658203125
0.043212890625
0.00732421875
0.1043701171875
-0.009521484375
-0.0611572265625
-0.0172119140625
-0.134765625
-0.0172119140625
-0.0201416015625
-0.0029296875
-0.01025390625
-0.008056640625
-0.013916015625
-0.01171875
-0.012451171875
-0.006591796875
0.002197265625
-0.0003662109375
0.027099609375
0.00732421875
0.0281982421875
0.008056640625
0.0128173828125
0.0040283203125
0.005126953125
0.0029296875
0.0
0.000732421875
-0.010986328125
-0.0025634765625
-0.015380859375
-0.015380859375
0.01025390625
-0.000732421875
0.0186767578125
0.015380859375
0.0047607421875
0.0054931640625
0.0032958984375
0.0
0.006591796875
0.0010986328125
0.0135498046875
0.0186767578125
-0.0010986328125
0.0230712890625
0.1036376953125
0.003662109375
0.0333251953125
-0.015380859375
-0.1387939453125
-0.0205078125
-0.0626220703125
-0.010986328125
-0.01025390625
-0.0029296875
-0.0128173828125
-0.008056640625
-0.015380859375
-0.010986328125
-0.010986328125
-0.00439453125
0.0205078125
0.005126953125
0.0384521484375
0.012451171875
0.019775390625
0.0062255859375
0.0029296875
0.0029296875
-0.0018310546875
0.0025634765625
-0.0091552734375
-0.0003662109375
-0.0146484375
-0.01171875
0.008056640625
-0.0029296875
0.0179443359375
0.012451171875
0.006591796875
0.003662109375
0.0040283203125
0.0003662109375
0.005859375
0.0003662109375
0.01318359375
0.0205078125
-0.000732421875
0.0223388671875
0.0955810546875
0.000732421875
0.046142578125
-0.0106201171875
-0.1278076171875
-0.0223388671875
-0.076171875
-0.01318359375
-0.0106201171875
-0.0047607421875
-0.01025390625
-0.008056640625
-0.01611328125
-0.0098876953125
-0.0142822265625
-0.006591796875
0.01611328125
0.005126953125
0.0399169921875
0.01171875
0.0238037109375
0.0084228515625
0.008056640625
0.0029296875
0.002197265625
0.0098876953125
-0.0106201171875
0.002197265625
-0.00732421875
-0.010986328125
0.0076904296875
-0.0040283203125
0.0047607421875
-0.000732421875
0.0
-0.0025634765625
0.00439453125
-0.003662109375
0.0091552734375
-0.0010986328125
0.01318359375
0.06005859375
0.0010986328125
0.054931640625
-0.0069580078125
-0.0406494140625
-0.0069580078125
-0.0545654296875
-0.0135498046875
-0.022705078125
-0.0076904296875
-0.0076904296875
-0.0025634765625
-0.01318359375
-0.000732421875
-0.0296630859375
0.012451171875
-0.0128173828125
0.0128173828125
0.0263671875
-0.0054931640625
0.032958984375
-0.0113525390625
0.0150146484375
-0.0047607421875
0.0029296875
0.0
-0.0003662109375
-0.0025634765625
-0.0029296875
-0.01025390625
-0.0120849609375
0.0029296875
-0.0040283203125
0.016845703125
0.013916015625
0.0076904296875
0.0062255859375
0.0025634765625
-0.0003662109375
0.0054931640625
-0.0003662109375
0.0128173828125
0.0146484375
-0.000732421875
0.028564453125
0.0556640625
0.0091552734375
0.0772705078125
-0.0098876953125
-0.08056640625
-0.0216064453125
-0.10546875
-0.0146484375
-0.0172119140625
-0.0018310546875
-0.0113525390625
-0.00732421875
-0.0164794921875
-0.0098876953125
-0.016845703125
-0.0091552734375
0.006591796875
0.0010986328125
0.0377197265625
0.0106201171875
0.030029296875
0.00732421875
0.009521484375
0.005126953125
-0.0076904296875
0.00146484375
-0.0135498046875
-0.0120849609375
0.0040283203125
-0.0032958984375
0.017578125
0.0091552734375
0.01025390625
0.0003662109375
0.005859375
-0.002197265625
0.0084228515625
-0.0025634765625
0.012451171875
0.0150146484375
-0.0010986328125
0.0296630859375
0.0498046875
0.0120849609375
0.076904296875
-0.0106201171875
-0.0750732421875
-0.0252685546875
-0.10546875
-0.016845703125
-0.0194091796875
-0.006591796875
-0.01025390625
-0.00732421875
-0.015380859375
-0.0091552734375
-0.01611328125
-0.0087890625
0.012451171875
0.000732421875
0.04248046875
0.01171875
0.0296630859375
0.01171875
0.01025390625
0.008056640625
-0.0084228515625
0.0032958984375
-0.0106201171875
-0.0076904296875
-0.000732421875
-0.0040283203125
0.0069580078125
-0.00146484375
0.0128173828125
-0.0032958984375
0.00732421875
-0.0029296875
0.005126953125
-0.0029296875
0.012451171875
0.0069580078125
0.0054931640625
0.0787353515625
0.0025634765625
0.01611328125
0.0303955078125
-0.0692138671875
-0.0216064453125
-0.022705078125
-0.0498046875
-0.01171875
-0.0113525390625
-0.0076904296875
-0.0069580078125
-0.017578125
-0.0025634765625
-0.0238037109375
0.01025390625
-0.0018310546875
0.0164794921875
0.0263671875
0.00439453125
0.025634765625
-0.002197265625
0.0087890625
-0.0025634765625
0.0062255859375
-0.0172119140625
0.0
-0.0172119140625
-0.0150146484375
0.0076904296875
-0.000732421875
0.02197265625
0.0091552734375
0.0113525390625
0.002197265625
0.0025634765625
-0.0010986328125
0.009521484375
0.0003662109375
0.0128173828125
0.01904296875
-0.0032958984375
0.0281982421875
0.0780029296875
0.0084228515625
0.0582275390625
-0.012451171875
-0.1116943359375
-0.0201416015625
-0.0889892578125
-0.01318359375
-0.01318359375
-0.0040283203125
-0.0120849609375
-0.0069580078125
-0.017578125
-0.0091552734375
-0.01611328125
-0.006591796875
0.01318359375
0.0040283203125
0.0377197265625
0.0135498046875
0.025634765625
0.0076904296875
0.0025634765625
0.005859375
-0.0164794921875
-0.005126953125
-0.012451171875
-0.005859375
0.0146484375
0.0062255859375
0.018310546875
0.0029296875
0.0069580078125
-0.0003662109375
0.0040283203125
-0.0029296875
0.0076904296875
0.0018310546875
0.01611328125
0.01904296875
-0.0003662109375
0.02490234375
0.1058349609375
0.0025634765625
0.02783203125
-0.0164794921875
-0.1435546875
-0.01904296875
-0.060791015625
-0.0106201171875
-0.01025390625
-0.0025634765625
-0.0142822265625
-0.0087890625
-0.0194091796875
-0.0113525390625
-0.0084228515625
-0.005126953125
0.0230712890625
0.0084228515625
0.0380859375
0.0128173828125
0.0205078125
0.0084228515625
-0.0025634765625
0.005126953125
-0.01171875
-0.0091552734375
0.0010986328125
-0.005126953125
0.01318359375
0.003662109375
0.00439453125
0.00146484375
-0.00146484375
-0.0025634765625
0.008056640625
-0.00146484375
0.01611328125
0.01171875
0.005126953125
0.0494384765625
0.0
0.0435791015625
0.0450439453125
-0.030029296875
-0.02197265625
-0.05126953125
-0.0703125
-0.02197265625
-0.010986328125
-0.0047607421875
-0.00732421875
-0.0106201171875
-0.006591796875
-0.0201416015625
-0.0025634765625
-0.0113525390625
0.009521484375
0.0120849609375
0.017578125
0.0245361328125
0.009521484375
0.012451171875
0.0018310546875
0.0062255859375
-0.01171875
0.0
-0.0142822265625
-0.01171875
0.005859375
-0.0010986328125
0.019775390625
0.0076904296875
0.01171875
0.000732421875
0.00439453125
-0.002197265625
0.008056640625
0.000732421875
0.0135498046875
0.0164794921875
-0.0018310546875
0.0303955078125
0.0596923828125
0.008056640625
0.069580078125
-0.013916015625
-0.090087890625
-0.0205078125
-0.0992431640625
-0.0164794921875
-0.015380859375
-0.0040283203125
-0.01025390625
-0.00732421875
-0.0146484375
-0.01025390625
-0.0164794921875
-0.0076904296875
0.0098876953125
0.0032958984375
0.0391845703125
0.0113525390625
0.027099609375
0.0076904296875
0.0040283203125
0.0062255859375
-0.015380859375
-0.0032958984375
-0.0120849609375
-0.0069580078125
0.0098876953125
0.003662109375
0.0164794921875
0.00439453125
0.01171875
-0.0010986328125
0.0069580078125
-0.00146484375
0.0106201171875
0.0018310546875
0.0150146484375
0.016845703125
-0.002197265625
0.0238037109375
0.1051025390625
0.0029296875
0.022705078125
-0.0150146484375
-0.1435546875
-0.018310546875
-0.0560302734375
-0.00732421875
-0.0113525390625
0.0054931640625
-0.0325927734375
-0.0223388671875
-0.0303955078125
-0.0223388671875
0.0150146484375
0.0029296875
0.0435791015625
0.006591796875
0.04248046875
0.013916015625
0.01318359375
0.0040283203125
0.006591796875
0.0
0.0157470703125
0.0146484375
0.0010986328125
0.0267333984375
0.03369140625
0.0157470703125
0.081298828125
-0.0040283203125
-0.0556640625
-0.025634765625
-0.111328125
-0.0205078125
-0.0146484375
-0.0040283203125
-0.01171875
-0.0076904296875
-0.0194091796875
-0.010986328125
-0.0150146484375
-0.0084228515625
0.017578125
0.0054931640625
0.041015625
0.0128173828125
0.0216064453125
0.0098876953125
0.00146484375
0.0047607421875
-0.0032958984375
0.00146484375
-0.00146484375
-0.00146484375
0.0032958984375
-0.0018310546875
0.0025634765625
0.0
-0.0003662109375
0.0
0.00146484375
0.005126953125
-0.0018310546875
0.01171875
-0.018310546875
-0.009521484375
0.0047607421875
-0.0135498046875
0.0234375
0.005859375
0.0029296875
0.0029296875
-0.00439453125
-0.003662109375
0.0040283203125
-0.0029296875
0.0146484375
0.0098876953125
0.0069580078125
0.0267333984375
0.0230712890625
0.0018310546875
0.1219482421875
-0.00732421875
-0.02783203125
-0.006591796875
-0.1552734375
-0.015380859375
-0.0322265625
-0.0029296875
-0.0098876953125
-0.006591796875
-0.013916015625
-0.009521484375
-0.013916015625
-0.0087890625
-0.000732421875
-0.00146484375
0.027099609375
0.008056640625
0.0322265625
0.010986328125
0.012451171875
0.0032958984375
0.003662109375
0.0
0.0010986328125
0.0018310546875
-0.0029296875
0.0010986328125
-0.0032958984375
0.0
-0.000732421875
-0.0029296875
-0.0029296875
-0.009521484375
0.003662109375
-0.003662109375
0.009521484375
0.0069580078125
0.0040283203125
0.0069580078125
0.003662109375
0.00439453125
0.0040283203125
-0.0010986328125
0.0128173828125
0.010986328125
0.003662109375
0.0322265625
0.0428466796875
0.0106201171875
0.1007080078125
-0.0128173828125
-0.06298828125
-0.0230712890625
-0.1248779296875
-0.019775390625
-0.0164794921875
-0.0047607421875
-0.0087890625
-0.009521484375
-0.01318359375
-0.0113525390625
-0.017578125
-0.0098876953125
0.0032958984375
0.0
0.0399169921875
0.0113525390625
0.0296630859375
0.010986328125
0.00732421875
0.0032958984375
0.006591796875
0.0003662109375
-0.005859375
0.0025634765625
-0.0201416015625
-0.01318359375
0.003662109375
-0.005126953125
0.0201416015625
0.0091552734375
0.006591796875
0.003662109375
0.0076904296875
0.0047607421875
0.0029296875
0.0003662109375
0.010986328125
0.0106201171875
0.00439453125
0.02490234375
0.0325927734375
0.0047607421875
0.1219482421875
-0.00439453125
-0.050537109375
-0.0098876953125
-0.153076171875
-0.01904296875
-0.024169921875
-0.00439453125
-0.0106201171875
-0.0062255859375
-0.015380859375
-0.0091552734375
-0.0186767578125
-0.0087890625
-0.0018310546875
-0.0018310546875
0.0333251953125
0.012451171875
0.0355224609375
0.01171875
0.0106201171875
0.00439453125
0.0003662109375
0.0003662109375
-0.006591796875
0.00146484375
-0.0186767578125
-0.013916015625
0.005126953125
-0.0047607421875
0.0186767578125
0.01611328125
0.0040283203125
0.0062255859375
0.0025634765625
0.0029296875
0.0047607421875
0.0
0.012451171875
0.0146484375
0.0010986328125
0.025634765625
0.078369140625
0.0062255859375
0.060791015625
-0.012451171875
-0.107666015625
-0.02197265625
-0.09228515625
-0.0146484375
-0.012451171875
-0.0040283203125
-0.0106201171875
-0.0054931640625
-0.015380859375
-0.0091552734375
-0.0172119140625
-0.0076904296875
0.0098876953125
0.002197265625
0.038818359375
0.01171875
0.0267333984375
0.0091552734375
0.0091552734375
0.00146484375
0.0018310546875
0.00732421875
-0.01025390625
0.0018310546875
-0.0029296875
-0.006591796875
0.0087890625
-0.0032958984375
0.0018310546875
0.00146484375
-0.005859375
-0.0029296875
0.0047607421875
-0.0054931640625
0.0205078125
0.0087890625
0.009521484375
0.05859375
-0.00732421875
0.046142578125
0.0186767578125
-0.0399169921875
-0.00732421875
-0.0545654296875
-0.0369873046875
-0.0238037109375
-0.00732421875
-0.0062255859375
-0.0062255859375
-0.0113525390625
-0.0029296875
-0.0252685546875
0.008056640625
-0.0128173828125
0.0135498046875
0.0201416015625
0.0018310546875
0.0303955078125
-0.0040283203125
0.015380859375
-0.0018310546875
0.0032958984375
-0.002197265625
0.00439453125
-0.0157470703125
-0.003662109375
-0.01171875
-0.01025390625
0.0146484375
0.002197265625
0.0186767578125
0.0069580078125
0.0087890625
0.0003662109375
0.0018310546875
-0.0018310546875
0.008056640625
0.0018310546875
0.015380859375
0.016845703125
0.0018310546875
0.01904296875
0.11279296875
0.0029296875
0.0186767578125
-0.0113525390625
-0.15087890625
-0.01904296875
-0.0538330078125
-0.0084228515625
-0.0087890625
-0.00439453125
-0.0128173828125
-0.0091552734375
-0.0194091796875
-0.0087890625
-0.0120849609375
-0.0040283203125
0.0230712890625
0.0062255859375
0.0391845703125
0.0113525390625
0.0201416015625
0.0084228515625
-0.002197265625
0.002197265625
-0.0135498046875
-0.01318359375
0.0010986328125
-0.0062255859375
0.0164794921875
0.01318359375
0.0076904296875
0.0069580078125
-0.0018310546875
-0.00439453125
0.0098876953125
-0.0029296875
0.0201416015625
0.01171875
0.005859375
0.024169921875
0.0263671875
0.0032958984375
0.11865234375
-0.0032958984375
-0.0369873046875
-0.0113525390625
-0.1505126953125
-0.0208740234375
-0.028564453125
-0.00439453125
-0.0128173828125
-0.0069580078125
-0.0142822265625
-0.0091552734375
-0.0135498046875
-0.01025390625
0.0018310546875
-0.0003662109375
0.0340576171875
0.0106201171875
0.035888671875
0.01025390625
0.016845703125
0.01025390625
-0.006591796875
0.0032958984375
-0.0084228515625
-0.0087890625
0.0047607421875
-0.006591796875
0.005126953125
0.000732421875
0.0047607421875
-0.0029296875
0.0069580078125
-0.00439453125
0.0106201171875
-0.0032958984375
0.01611328125
0.003662109375
0.0018310546875
0.093017578125
-0.0194091796875
0.0179443359375
0.0274658203125
-0.08056640625
0.0018310546875
-0.024169921875
-0.0439453125
-0.01318359375
-0.0106201171875
-0.0069580078125
-0.0040283203125
-0.018310546875
0.003662109375
-0.02490234375
0.0106201171875
-0.00146484375
0.0098876953125
0.031494140625
-0.0003662109375
0.0260009765625
-0.00732421875
0.0098876953125
-0.0029296875
0.005859375
-0.01318359375
-0.00146484375
-0.0157470703125
-0.016845703125
0.0106201171875
-0.0032958984375
0.0216064453125
0.0113525390625
0.0076904296875
0.002197265625
0.00439453125
0.0003662109375
0.005859375
-0.0010986328125
0.01025390625
0.015380859375
-0.002197265625
0.0289306640625
0.0626220703125
0.008056640625
0.0743408203125
-0.01171875
-0.090087890625
-0.0179443359375
-0.1043701171875
-0.01171875
-0.01904296875
-0.003662109375
-0.01171875
-0.0069580078125
-0.0157470703125
-0.009521484375
-0.018310546875
-0.00732421875
0.008056640625
0.0018310546875
0.0391845703125
0.0113525390625
0.0281982421875
0.0091552734375
0.005126953125
0.0069580078125
-0.013916015625
-0.0040283203125
-0.013916015625
-0.0098876953125
0.0146484375
0.006591796875
0.0205078125
0.00439453125
0.0076904296875
-0.0029296875
0.005859375
-0.00439453125
0.0150146484375
0.0087890625
0.0098876953125
0.0194091796875
-0.005126953125
0.0091552734375
0.1138916015625
-0.0018310546875
0.010986328125
-0.01171875
-0.1490478515625
-0.01171875
-0.046875
-0.00732421875
-0.0113525390625
-0.0069580078125
-0.0128173828125
-0.0098876953125
-0.0135498046875
-0.0076904296875
-0.006591796875
-0.0003662109375
0.0234375
0.0091552734375
0.03369140625
0.013916015625
0.017578125
0.009521484375
-0.006591796875
0.0025634765625
-0.01318359375
-0.0084228515625
0.0040283203125
-0.0032958984375
0.0113525390625
0.00439453125
0.0091552734375
-0.002197265625
0.0054931640625
-0.0032958984375
0.006591796875
-0.0025634765625
0.0142822265625
0.0150146484375
-0.000732421875
0.0516357421875
0.0303955078125
0.009521484375
0.0472412109375
-0.0399169921875
-0.0531005859375
-0.0245361328125
-0.0655517578125
-0.0106201171875
-0.012451171875
-0.00439453125
-0.01025390625
-0.012451171875
-0.0076904296875
-0.019775390625
-0.000732421875
-0.0062255859375
0.01171875
0.018310546875
0.0157470703125
0.0223388671875
0.008056640625
0.0113525390625
-0.0054931640625
0.0032958984375
-0.015380859375
-0.0120849609375
-0.002197265625
-0.0084228515625
0.0216064453125
0.0113525390625
0.0146484375
0.0087890625
-0.0069580078125
-0.0010986328125
0.005859375
-0.003662109375
0.0201416015625
0.0113525390625
0.006591796875
0.019775390625
0.0194091796875
-0.0047607421875
0.1300048828125
0.000732421875
-0.027099609375
-0.00146484375
-0.1658935546875
-0.017578125
-0.035888671875
-0.0054931640625
-0.0087890625
-0.005859375
-0.01171875
-0.0087890625
-0.017578125
-0.01025390625
-0.00146484375
-0.002197265625
0.0340576171875
0.0087890625
0.03662109375
0.010986328125
0.01171875
0.00732421875
-0.010986328125
0.0
-0.0150146484375
-0.0098876953125
0.0076904296875
0.0003662109375
0.019775390625
0.00439453125
0.0150146484375
0.000732421875
0.006591796875
0.0076904296875
-0.0018310546875
0.010986328125
-0.00146484375
0.044677734375
-0.0322265625
0.015380859375
0.078369140625
-0.0604248046875
0.0875244140625
-0.0333251953125
-0.0860595703125
0.0032958984375
-0.0633544921875
-0.0047607421875
-0.0032958984375
-0.01025390625
-0.003662109375
-0.010986328125
-0.0084228515625
0.0003662109375
-0.0157470703125
0.01318359375
-0.0010986328125
0.0128173828125
0.01904296875
0.0069580078125
0.0205078125
0.00439453125
0.0054931640625
0.0047607421875
-0.01171875
0.0
-0.0047607421875
-0.010986328125
0.0062255859375
-0.005859375
0.01318359375
0.0003662109375
0.00732421875
-0.0010986328125
0.00146484375
-0.003662109375
0.008056640625
-0.0018310546875
0.018310546875
0.0439453125
-0.0098876953125
0.1014404296875
-0.0322265625
-0.01904296875
0.00439453125
-0.0985107421875
0.0062255859375
-0.0252685546875
-0.0098876953125
-0.008056640625
-0.00732421875
-0.01025390625
-0.0025634765625
-0.0230712890625
0.0098876953125
-0.0179443359375
0.01171875
0.0164794921875
0.0
0.0322265625
-0.0087890625
0.01904296875
-0.00439453125
0.01025390625
-0.010986328125
0.00439453125
-0.01904296875
-0.0164794921875
0.005859375
-0.006591796875
0.0245361328125
0.0135498046875
0.0128173828125
0.003662109375
0.0025634765625
0.00146484375
0.0010986328125
0.0
0.008056640625
0.010986328125
0.0054931640625
0.02490234375
0.0311279296875
0.0010986328125
0.1234130859375
-0.0029296875
-0.0443115234375
-0.0054931640625
-0.15966796875
-0.016845703125
-0.0303955078125
-0.0062255859375
-0.01171875
-0.005126953125
-0.013916015625
-0.0091552734375
-0.0194091796875
-0.0106201171875
-0.000732421875
-0.00146484375
0.035888671875
0.0106201171875
0.0325927734375
0.01171875
0.003662109375
0.0047607421875
-0.0150146484375
-0.0128173828125
-0.0032958984375
-0.0084228515625
0.0216064453125
0.0128173828125
0.013916015625
0.0047607421875
-0.000732421875
0.0
0.006591796875
-0.0010986328125
0.017578125
0.005126953125
0.0113525390625
0.01611328125
0.009521484375
-0.0010986328125
0.1307373046875
0.000732421875
-0.0087890625
-0.000732421875
-0.1717529296875
-0.012451171875
-0.0443115234375
-0.0010986328125
-0.0120849609375
0.00439453125
-0.0362548828125
-0.019775390625
-0.025634765625
-0.019775390625
0.02197265625
0.00439453125
0.046142578125
0.005126953125
0.0399169921875
0.0062255859375
0.022705078125
0.000732421875
0.0084228515625
0.0040283203125
0.006591796875
0.0205078125
-0.0076904296875
0.0245361328125
0.0582275390625
0.008056640625
0.0596923828125
-0.01025390625
-0.0882568359375
-0.0216064453125
-0.0845947265625
-0.0142822265625
-0.0157470703125
-0.0040283203125
-0.01171875
-0.0069580078125
-0.01904296875
-0.0084228515625
-0.0120849609375
-0.005859375
0.02490234375
0.0025634765625
0.041748046875
0.0098876953125
0.0216064453125
0.008056640625
0.0010986328125
0.0040283203125
-0.002197265625
-0.0010986328125
0.0018310546875
-0.0040283203125
0.0040283203125
-0.0029296875
0.0029296875
0.0003662109375
0.000732421875
0.0018310546875
0.0010986328125
-0.000732421875
-0.00146484375
-0.000732421875
-0.0098876953125
-0.008056640625
0.005126953125
-0.0025634765625
0.0135498046875
0.0054931640625
0.00439453125
0.0054931640625
0.0040283203125
0.00439453125
0.0025634765625
-0.0018310546875
0.013916015625
0.0120849609375
0.0025634765625
0.029296875
0.044677734375
0.0113525390625
0.0926513671875
-0.012451171875
-0.0648193359375
-0.0216064453125
-0.1171875
-0.0172119140625
-0.0208740234375
-0.00439453125
-0.01025390625
-0.00732421875
-0.0113525390625
-0.0120849609375
-0.0128173828125
-0.0087890625
0.003662109375
-0.000732421875
0.030029296875
0.009521484375
0.0289306640625
0.0091552734375
0.0164794921875
0.0032958984375
0.0029296875
0.0018310546875
-0.0164794921875
-0.0003662109375
-0.01904296875
-0.013916015625
0.0113525390625
-0.002197265625
0.0205078125
0.016845703125
0.0062255859375
0.0040283203125
0.005126953125
0.0
0.008056640625
0.0018310546875
0.0146484375
0.0172119140625
0.0
0.021240234375
0.098876953125
0.0047607421875
0.035888671875
-0.0098876953125
-0.134033203125
-0.01904296875
-0.0703125
-0.0091552734375
-0.0120849609375
-0.0047607421875
-0.01171875
-0.006591796875
-0.0179443359375
-0.0087890625
-0.016845703125
-0.008056640625
0.016845703125
0.0054931640625
0.041015625
0.01171875
0.022705078125
0.009521484375
0.0025634765625
0.0032958984375
-0.00439453125
0.00146484375
-0.019775390625
-0.0142822265625
-0.00146484375
-0.0025634765625
0.0194091796875
0.015380859375
0.01025390625
0.003662109375
0.0084228515625
0.0029296875
0.000732421875
-0.0010986328125
0.0087890625
0.0120849609375
0.003662109375
0.0252685546875
0.0377197265625
0.0010986328125
0.1201171875
-0.0062255859375
-0.0560302734375
-0.0106201171875
-0.15234375
-0.0172119140625
-0.0260009765625
-0.005126953125
-0.0087890625
-0.006591796875
-0.0113525390625
-0.009521484375
-0.01904296875
-0.0087890625
-0.0018310546875
-0.002197265625
0.03515625
0.0091552734375
0.03369140625
0.0098876953125
0.01171875
0.0054931640625
-0.010986328125
-0.00146484375
-0.0172119140625
-0.013916015625
0.0076904296875
0.0018310546875
0.0208740234375
0.0120849609375
0.0098876953125
0.003662109375
0.0047607421875
-0.0010986328125
0.008056640625
0.0
0.01171875
0.018310546875
-0.0003662109375
0.018310546875
0.088623046875
0.002197265625
0.0538330078125
-0.0084228515625
-0.1204833984375
-0.017578125
-0.085693359375
-0.0135498046875
-0.0128173828125
-0.0040283203125
-0.01171875
-0.005859375
-0.0179443359375
-0.0091552734375
-0.0201416015625
-0.005859375
0.0106201171875
0.0010986328125
0.0413818359375
0.0098876953125
0.02783203125
0.008056640625
0.0025634765625
0.0113525390625
-0.017578125
0.000732421875
-0.0076904296875
0.0223388671875
-0.0128173828125
0.0670166015625
-0.0765380859375
0.082763671875
-0.104034423828125
-0.0281982421875
0.03662109375
-0.1395263671875
0.179840087890625
-0.069580078125
0.1025390625
-0.012451171875
0.0142822265625
-0.015380859375
0.0234375
-0.0234375
0.032958984375
-0.017578125
0.0205078125
0.0238037109375
-0.037353515625
0.0604248046875
-0.0875244140625
0.03955078125
-0.078369140625
-0.0018310546875
0.0029296875
-0.0029296875
0.038818359375
-0.002197265625
0.0113525390625
0.0010986328125
-0.0087890625
0.016845703125
-0.0322265625
-0.0010986328125
-0.024169921875
0.0794677734375
-0.116455078125
0.09521484375
-0.116485595703125
-0.0845947265625
0.142822265625
-0.1168212890625
0.188629150390625
-0.028564453125
0.044677734375
-0.00732421875
0.0146484375
-0.01904296875
0.028564453125
-0.0311279296875
0.041748046875
-0.0091552734375
0.0
0.0377197265625
-0.0673828125
0.04541015625
-0.0750732421875
0.019775390625
-0.0325927734375
0.002197265625
-0.002197265625
-0.0025634765625
0.0047607421875
-0.0029296875
0.005126953125
-0.0003662109375
-0.0040283203125
0.0025634765625
-0.000732421875
0.002197265625
-0.00146484375
0.002197265625
-0.0062255859375
0.0
-0.002197265625
0.002197265625
-0.0164794921875
-0.0142822265625
0.01025390625
-0.0040283203125
0.0135498046875
0.012451171875
-0.0029296875
0.00439453125
0.0054931640625
0.0062255859375
0.0
0.00146484375
0.0106201171875
0.0157470703125
0.0047607421875
0.019775390625
0.0867919921875
0.005126953125
0.05712890625
-0.0047607421875
-0.1175537109375
-0.0157470703125
-0.0948486328125
-0.010986328125
-0.0128173828125
-0.0032958984375
-0.009521484375
-0.005859375
-0.0172119140625
-0.0084228515625
-0.018310546875
-0.005859375
0.00439453125
0.0
0.0355224609375
0.005859375
0.0318603515625
0.0084228515625
0.0076904296875
0.0025634765625
-0.0032958984375
-0.0003662109375
-0.0164794921875
-0.0142822265625
-0.0018310546875
-0.0010986328125
0.018310546875
0.0150146484375
0.0113525390625
0.003662109375
0.0087890625
0.0
0.0062255859375
-0.000732421875
0.0146484375
0.0164794921875
-0.0010986328125
0.0274658203125
0.0545654296875
0.006591796875
0.08349609375
-0.012451171875
-0.0809326171875
-0.019775390625
-0.1094970703125
-0.0157470703125
-0.015380859375
-0.006591796875
-0.0087890625
-0.0084228515625
-0.0172119140625
-0.0098876953125
-0.0194091796875
-0.0087890625
0.0054931640625
0.0
0.037353515625
0.01171875
0.0318603515625
0.008056640625
0.0087890625
0.0069580078125
-0.016845703125
-0.000732421875
-0.0205078125
-0.009521484375
0.0087890625
0.0029296875
0.0245361328125
0.0047607421875
0.01318359375
0.0003662109375
0.0029296875
-0.0029296875
0.0113525390625
0.0010986328125
0.0172119140625
0.0194091796875
-0.0025634765625
0.02490234375
0.103271484375
0.0025634765625
0.0296630859375
-0.016845703125
-0.1409912109375
-0.01904296875
-0.060791015625
-0.0098876953125
-0.009521484375
-0.00439453125
-0.0069580078125
-0.0098876953125
-0.012451171875
-0.009521484375
-0.0113525390625
-0.0062255859375
0.0194091796875
0.0054931640625
0.035888671875
0.012451171875
0.024169921875
0.0106201171875
-0.000732421875
0.0047607421875
-0.013916015625
-0.0113525390625
0.0040283203125
-0.0010986328125
0.015380859375
0.0054931640625
0.0054931640625
-0.0032958984375
0.0084228515625
-0.0025634765625
0.0106201171875
-0.0032958984375
0.0084228515625
0.0135498046875
-0.0029296875
0.046142578125
0.021240234375
0.02490234375
0.053466796875
-0.0296630859375
-0.0421142578125
-0.0347900390625
-0.0728759765625
-0.0142822265625
-0.010986328125
-0.00439453125
-0.012451171875
-0.0087890625
-0.0120849609375
-0.0179443359375
-0.0003662109375
-0.009521484375
0.0113525390625
0.01318359375
0.018310546875
0.0208740234375
0.01025390625
0.0135498046875
-0.003662109375
0.0091552734375
-0.0135498046875
-0.01025390625
-0.002197265625
0.00439453125
0.016845703125
0.046875
-0.0003662109375
0.021240234375
0.060791015625
-0.0230712890625
0.0849609375
-0.019775390625
-0.0538330078125
-0.013916015625
-0.0853271484375
-0.01904296875
-0.0230712890625
-0.0098876953125
-0.013916015625
-0.0087890625
-0.017578125
-0.0084228515625
-0.013916015625
0.003662109375
0.005126953125
0.0128173828125
0.025634765625
0.0157470703125
0.0205078125
0.0087890625
0.0032958984375
0.0025634765625
-0.0018310546875
0.000732421875
0.0003662109375
0.0003662109375
0.00146484375
0.0076904296875
-0.002197265625
0.0164794921875
-0.0142822265625
-0.0150146484375
0.006591796875
-0.0238037109375
0.0142822265625
0.0040283203125
-0.0032958984375
-0.0003662109375
0.0003662109375
-0.0047607421875
0.00146484375
-0.017578125
0.015380859375
0.0673828125
-0.0025634765625
0.0618896484375
-0.021240234375
-0.052001953125
0.01611328125
-0.0421142578125
0.0087890625
-0.0238037109375
-0.010986328125
-0.0157470703125
0.0025634765625
-0.0150146484375
0.008056640625
-0.0274658203125
0.02197265625
-0.01171875
0.012451171875
0.02197265625
-0.0142822265625
0.031494140625
-0.0186767578125
0.0142822265625
-0.00439453125
0.0062255859375
-0.0054931640625
0.0047607421875
-0.0172119140625
-0.0179443359375
-0.000732421875
-0.010986328125
0.027099609375
0.0142822265625
0.0186767578125
0.0087890625
-0.005859375
0.00146484375
0.000732421875
-0.0029296875
0.0194091796875
0.0025634765625
0.0157470703125
0.013916015625
0.006591796875
-0.000732421875
0.131500244140625
0.0029296875
-0.0076904296875
0.002197265625
-0.174713134765625
-0.01171875
-0.0399169921875
-0.0040283203125
-0.0098876953125
-0.006591796875
-0.015380859375
-0.00732421875
-0.0201416015625
-0.0076904296875
-0.012451171875
-0.00439453125
0.0267333984375
0.0069580078125
0.0428466796875
0.012451171875
0.0172119140625
0.0113525390625
-0.0146484375
0.0010986328125
-0.019775390625
-0.0054931640625
0.0069580078125
0.0018310546875
0.022705078125
0.003662109375
0.0135498046875
-0.000732421875
0.006591796875
-0.002197265625
0.0084228515625
0.0
0.0142822265625
0.019775390625
-0.005859375
0.0252685546875
0.097412109375
0.003662109375
0.044677734375
-0.0098876953125
-0.1380615234375
-0.0172119140625
-0.076904296875
-0.0091552734375
-0.01171875
-0.003662109375
-0.01171875
-0.0098876953125
-0.018310546875
-0.0087890625
-0.0164794921875
-0.0054931640625
0.0142822265625
0.0047607421875
0.037353515625
0.0120849609375
0.0205078125
0.0106201171875
-0.0091552734375
-0.0098876953125
-0.005126953125
-0.0106201171875
0.0205078125
0.0087890625
0.013916015625
0.003662109375
0.0
-0.0025634765625
0.005126953125
-0.003662109375
0.0128173828125
0.003662109375
0.015380859375
0.015380859375
0.0087890625
0.0062255859375
0.123779296875
-0.00146484375
0.0076904296875
-0.003662109375
-0.1607666015625
-0.012451171875
-0.0501708984375
-0.0087890625
-0.0054931640625
-0.0054931640625
-0.0084228515625
-0.0084228515625
-0.0194091796875
-0.0069580078125
-0.0087890625
-0.00439453125
0.03076171875
0.005859375
0.03955078125
0.0120849609375
0.0146484375
0.0091552734375
-0.0150146484375
-0.0047607421875
-0.01318359375
-0.0091552734375
0.0223388671875
0.0062255859375
0.01904296875
0.00146484375
0.006591796875
-0.0025634765625
0.005859375
-0.000732421875
0.0062255859375
-0.0003662109375
0.0205078125
0.017578125
-0.002197265625
0.0142822265625
0.10986328125
-0.005859375
0.03515625
-0.005859375
-0.1519775390625
-0.005859375
-0.06591796875
-0.0069580078125
-0.0135498046875
-0.0040283203125
-0.0150146484375
-0.0062255859375
-0.018310546875
-0.00732421875
-0.0146484375
-0.0025634765625
0.02197265625
0.005859375
0.03955078125
0.0120849609375
0.0179443359375
0.0106201171875
-0.01318359375
-0.0003662109375
-0.021240234375
-0.0098876953125
0.01025390625
0.0032958984375
0.0252685546875
0.0087890625
0.0084228515625
0.0018310546875
0.0025634765625
0.0003662109375
0.0098876953125
0.00146484375
0.0157470703125
0.0208740234375
-0.00439453125
0.02197265625
0.1083984375
-0.0003662109375
0.034423828125
-0.0135498046875
-0.148681640625
-0.016845703125
-0.06591796875
-0.0087890625
-0.0113525390625
-0.006591796875
-0.01171875
-0.01025390625
-0.015380859375
-0.0091552734375
-0.0157470703125
-0.005126953125
0.0157470703125
0.0032958984375
0.0384521484375
0.0113525390625
0.016845703125
0.0087890625
-0.01171875
-0.0091552734375
-0.0087890625
-0.008056640625
0.022705078125
0.0087890625
0.016845703125
0.005126953125
0.0
-0.003662109375
0.00732421875
-0.0032958984375
0.0164794921875
0.0047607421875
0.015380859375
0.0164794921875
0.0054931640625
0.010986328125
0.1219482421875
0.0
0.003662109375
-0.009521484375
-0.158935546875
-0.0172119140625
-0.046875
-0.008056640625
-0.0106201171875
-0.0062255859375
-0.01171875
-0.0076904296875
-0.0164794921875
-0.008056640625
-0.0062255859375
-0.003662109375
0.0318603515625
0.008056640625
0.0428466796875
0.01171875
0.012451171875
0.0087890625
-0.01318359375
-0.0142822265625
-0.0032958984375
-0.0091552734375
0.016845703125
0.0142822265625
0.0135498046875
0.0054931640625
0.0047607421875
-0.000732421875
0.010986328125
-0.002197265625
0.0135498046875
0.0040283203125
0.0142822265625
0.01025390625
0.018310546875
-0.0018310546875
0.132965087890625
0.0018310546875
-0.0025634765625
0.0018310546875
-0.176177978515625
-0.0113525390625
-0.0498046875
-0.005859375
-0.0054931640625
-0.0040283203125
-0.016845703125
-0.0076904296875
-0.0194091796875
-0.0069580078125
-0.0087890625
-0.0040283203125
0.0296630859375
0.0069580078125
0.0443115234375
0.01171875
0.0106201171875
0.01025390625
-0.016845703125
-0.0003662109375
-0.0172119140625
-0.0084228515625
0.006591796875
0.0062255859375
0.0172119140625
0.0047607421875
0.01171875
-0.0018310546875
0.0069580078125
-0.0029296875
0.0120849609375
0.0003662109375
0.0205078125
0.019775390625
-0.00439453125
0.0208740234375
0.1029052734375
0.0032958984375
0.0325927734375
-0.00732421875
-0.1497802734375
-0.013916015625
-0.071044921875
-0.01171875
-0.01171875
-0.003662109375
-0.01318359375
-0.0069580078125
-0.018310546875
-0.0069580078125
-0.012451171875
-0.0018310546875
0.018310546875
0.0040283203125
0.041015625
0.01171875
0.0164794921875
0.010986328125
-0.013916015625
-0.0069580078125
-0.0076904296875
-0.008056640625
0.0194091796875
0.0098876953125
0.0179443359375
0.00439453125
0.0010986328125
-0.002197265625
0.0047607421875
-0.0025634765625
0.0150146484375
0.0003662109375
0.015380859375
0.0150146484375
-0.0003662109375
0.0113525390625
0.123046875
0.0003662109375
0.0150146484375
-0.0069580078125
-0.16552734375
-0.013916015625
-0.0560302734375
-0.0084228515625
-0.0084228515625
-0.0062255859375
-0.01171875
-0.0076904296875
-0.0186767578125
-0.0087890625
-0.00732421875
-0.0032958984375
0.022705078125
0.0047607421875
0.037353515625
0.0113525390625
0.01171875
0.008056640625
-0.013916015625
-0.012451171875
0.002197265625
-0.0069580078125
0.0208740234375
0.01318359375
0.009521484375
0.0084228515625
-0.0047607421875
-0.0047607421875
0.0091552734375
-0.0047607421875
0.0263671875
0.0091552734375
0.0106201171875
0.0157470703125
0.015380859375
-0.0040283203125
0.141387939453125
-0.0010986328125
-0.01025390625
-0.0018310546875
-0.172515869140625
-0.017578125
-0.0399169921875
-0.005859375
-0.0069580078125
-0.0047607421875
-0.016845703125
-0.0087890625
-0.0146484375
-0.01025390625
-0.000732421875
-0.003662109375
0.029296875
0.0084228515625
0.037353515625
0.0113525390625
0.0069580078125
0.0084228515625
-0.0157470703125
-0.012451171875
-0.00732421875
-0.0076904296875
0.0164794921875
0.0142822265625
0.0157470703125
0.0069580078125
0.006591796875
0.0
0.00732421875
-0.00146484375
0.0087890625
0.002197265625
0.016845703125
0.0113525390625
0.005859375
0.005859375
0.129669189453125
0.0029296875
0.0087890625
0.00146484375
-0.173980712890625
-0.0087890625
-0.0556640625
-0.00439453125
-0.013916015625
-0.0040283203125
-0.013916015625
-0.006591796875
-0.0208740234375
-0.0062255859375
-0.01171875
-0.005126953125
0.0281982421875
0.0054931640625
0.041015625
0.01171875
0.009521484375
0.010986328125
-0.015380859375
-0.0091552734375
-0.0062255859375
-0.0062255859375
0.0223388671875
0.015380859375
0.0157470703125
0.0040283203125
0.0003662109375
-0.0029296875
0.005859375
-0.0029296875
0.0113525390625
0.0032958984375
0.0098876953125
0.0150146484375
0.0018310546875
0.006591796875
0.134033203125
-0.000732421875
0.0135498046875
-0.00439453125
-0.1710205078125
-0.0128173828125
-0.0556640625
-0.0087890625
-0.010986328125
-0.0062255859375
-0.0113525390625
-0.0098876953125
-0.017578125
-0.009521484375
-0.0076904296875
-0.0040283203125
0.027099609375
0.00732421875
0.040283203125
0.0142822265625
0.0069580078125
0.00439453125
-0.015380859375
-0.0146484375
0.0047607421875
-0.0032958984375
0.0245361328125
0.0142822265625
0.0128173828125
-0.0003662109375
0.0062255859375
-0.005126953125
0.0120849609375
-0.0025634765625
0.0146484375
0.010986328125
0.002197265625
0.0281982421875
0.043212890625
0.0076904296875
0.106201171875
-0.005859375
-0.06591796875
-0.0164794921875
-0.1343994140625
-0.0186767578125
-0.017578125
-0.00439453125
-0.01025390625
-0.0062255859375
-0.0146484375
-0.008056640625
-0.021240234375
-0.0091552734375
0.000732421875
-0.00146484375
0.0384521484375
0.0091552734375
0.03369140625
0.01318359375
0.0018310546875
0.0054931640625
-0.0179443359375
-0.0146484375
0.0029296875
-0.0032958984375
0.0216064453125
0.0146484375
0.0062255859375
0.0040283203125
0.006591796875
-0.0003662109375
0.0091552734375
0.0
0.009521484375
0.0098876953125
0.0069580078125
0.0223388671875
0.027099609375
-0.00146484375
0.12744140625
0.0
-0.044677734375
-0.000732421875
-0.167724609375
-0.01611328125
-0.0281982421875
-0.0032958984375
-0.0106201171875
-0.0062255859375
-0.0172119140625
-0.00732421875
-0.0230712890625
-0.0087890625
0.000732421875
-0.0032958984375
0.0377197265625
0.008056640625
0.0347900390625
0.0150146484375
0.0018310546875
0.0069580078125
-0.01904296875
-0.0157470703125
0.0040283203125
-0.002197265625
0.0245361328125
0.0142822265625
0.00732421875
0.0025634765625
0.002197265625
-0.0018310546875
0.0087890625
0.0003662109375
0.0142822265625
0.01611328125
-0.0029296875
0.028564453125
0.052734375
0.005859375
0.08642578125
-0.0146484375
-0.076904296875
-0.018310546875
-0.1124267578125
-0.016845703125
-0.0194091796875
-0.0069580078125
-0.0128173828125
-0.0087890625
-0.017578125
-0.0098876953125
-0.01904296875
-0.0069580078125
0.006591796875
-0.0010986328125
0.038818359375
0.01025390625
0.0263671875
0.01318359375
-0.0091552734375
0.0010986328125
-0.01318359375
-0.008056640625
0.0084228515625
0.0029296875
0.021240234375
0.0040283203125
0.0135498046875
-0.0025634765625
0.00146484375
-0.0032958984375
0.0106201171875
-0.0003662109375
0.016845703125
0.0216064453125
0.000732421875
0.025634765625
0.09375
0.005859375
0.044677734375
-0.010986328125
-0.125244140625
-0.0205078125
-0.0758056640625
-0.0135498046875
-0.0076904296875
-0.005859375
-0.0062255859375
-0.0084228515625
-0.0186767578125
-0.0113525390625
-0.0113525390625
-0.008056640625
0.0164794921875
0.000732421875
0.0391845703125
0.0106201171875
0.0260009765625
0.012451171875
-0.01318359375
-0.000732421875
-0.0150146484375
-0.0106201171875
0.013916015625
0.002197265625
0.0252685546875
0.006591796875
0.009521484375
-0.000732421875
0.005126953125
-0.000732421875
0.012451171875
-0.0003662109375
0.0157470703125
0.0172119140625
-0.0054931640625
0.0205078125
0.1043701171875
0.0032958984375
0.0391845703125
-0.0047607421875
-0.150146484375
-0.0142822265625
-0.0743408203125
-0.0098876953125
-0.0120849609375
-0.002197265625
-0.017578125
-0.005126953125
-0.0186767578125
-0.0091552734375
-0.01025390625
-0.005859375
0.0194091796875
0.00439453125
0.0413818359375
0.0106201171875
0.0223388671875
0.012451171875
-0.015380859375
-0.00146484375
-0.0186767578125
-0.00732421875
0.0113525390625
0.005126953125
0.02197265625
0.0062255859375
0.012451171875
0.0010986328125
0.0040283203125
-0.0018310546875
0.0091552734375
0.0010986328125
0.01611328125
0.019775390625
-0.005859375
0.024169921875
0.1058349609375
0.0
0.03662109375
-0.0128173828125
-0.1446533203125
-0.0164794921875
-0.0684814453125
-0.012451171875
-0.01171875
-0.00732421875
-0.0098876953125
-0.009521484375
-0.0164794921875
-0.0076904296875
-0.0157470703125
-0.005859375
0.0164794921875
0.005126953125
0.037353515625
0.013916015625
0.013916015625
0.0091552734375
-0.01025390625
-0.0142822265625
0.0054931640625
-0.0091552734375
0.0223388671875
0.012451171875
0.0047607421875
0.002197265625
0.000732421875
-0.0029296875
0.01025390625
-0.002197265625
0.0142822265625
0.0245361328125
-0.017578125
0.0611572265625
-0.0091552734375
-0.0194091796875
0.1424560546875
-0.0509033203125
-0.000732421875
-0.0032958984375
-0.144287109375
-0.01025390625
-0.017578125
-0.0098876953125
-0.0003662109375
-0.0128173828125
-0.0029296875
-0.01171875
-0.006591796875
0.0018310546875
-0.0054931640625
0.01171875
0.012451171875
0.0087890625
0.0252685546875
0.00732421875
0.0054931640625
0.0029296875
-0.01904296875
-0.0146484375
0.0040283203125
-0.005859375
0.03076171875
0.0135498046875
0.01171875
0.0018310546875
0.009521484375
-0.0018310546875
0.0032958984375
-0.0018310546875
0.0032958984375
0.00732421875
0.006591796875
0.02490234375
0.0347900390625
0.003662109375
0.1171875
-0.000732421875
-0.0582275390625
-0.005126953125
-0.157470703125
-0.013916015625
-0.025634765625
-0.00146484375
-0.0128173828125
-0.006591796875
-0.0172119140625
-0.0087890625
-0.01611328125
-0.006591796875
0.0029296875
-0.0010986328125
0.03515625
0.0087890625
0.0347900390625
0.0157470703125
-0.000732421875
0.003662109375
-0.0216064453125
-0.0120849609375
0.0029296875
-0.0003662109375
0.02197265625
0.0113525390625
0.0113525390625
0.0025634765625
0.0040283203125
-0.0025634765625
0.008056640625
0.0
0.0150146484375
0.0172119140625
-0.0054931640625
0.0296630859375
0.052734375
0.0076904296875
0.082763671875
-0.010986328125
-0.081298828125
-0.017578125
-0.1083984375
-0.01611328125
-0.015380859375
-0.005859375
-0.01171875
-0.0098876953125
-0.0164794921875
-0.01025390625
-0.016845703125
-0.00732421875
0.003662109375
-0.000732421875
0.03662109375
0.0091552734375
0.025634765625
0.0113525390625
-0.008056640625
-0.0018310546875
-0.0098876953125
-0.008056640625
0.012451171875
0.00732421875
0.018310546875
0.00439453125
0.006591796875
-0.003662109375
0.00732421875
-0.0025634765625
0.01171875
0.002197265625
0.0157470703125
0.0179443359375
0.005859375
0.01611328125
0.1212158203125
0.0029296875
0.0135498046875
-0.010986328125
-0.1552734375
-0.0172119140625
-0.0457763671875
-0.009521484375
-0.00732421875
-0.006591796875
-0.01171875
-0.009521484375
-0.0164794921875
-0.009521484375
-0.005859375
-0.0029296875
0.0230712890625
0.0047607421875
0.03515625
0.01171875
0.015380859375
0.008056640625
-0.006591796875
-0.01318359375
-0.0025634765625
-0.008056640625
0.0205078125
0.013916015625
0.0179443359375
0.0087890625
-0.0084228515625
-0.002197265625
0.0025634765625
-0.0047607421875
0.0238037109375
0.005859375
0.0128173828125
0.015380859375
0.0106201171875
-0.003662109375
0.135894775390625
0.003662109375
-0.0142822265625
0.003662109375
-0.180572509765625
-0.0135498046875
-0.0413818359375
-0.0018310546875
-0.01025390625
-0.0025634765625
-0.0186767578125
-0.005126953125
-0.0208740234375
-0.006591796875
-0.0062255859375
-0.0018310546875
0.030029296875
0.00732421875
0.0377197265625
0.013916015625
0.0047607421875
0.006591796875
-0.0186767578125
-0.0135498046875
-0.0003662109375
-0.002197265625
0.019775390625
0.0135498046875
0.01025390625
0.0029296875
0.00732421875
-0.002197265625
0.0076904296875
0.0
0.010986328125
0.0120849609375
0.0029296875
0.02490234375
0.0274658203125
-0.00439453125
0.1329345703125
-0.005859375
-0.04248046875
-0.002197265625
-0.1658935546875
-0.0186767578125
-0.028564453125
-0.0062255859375
-0.0106201171875
-0.00732421875
-0.0146484375
-0.00732421875
-0.019775390625
-0.00732421875
-0.0029296875
-0.0029296875
0.0311279296875
0.008056640625
0.0322265625
0.0120849609375
-0.005859375
0.000732421875
-0.0146484375
-0.009521484375
0.0150146484375
0.0040283203125
0.022705078125
0.00439453125
0.0120849609375
-0.0029296875
0.006591796875
-0.0029296875
0.008056640625
-0.00146484375
0.01904296875
0.0194091796875
0.0025634765625
0.024169921875
0.1080322265625
0.00439453125
0.0260009765625
-0.013916015625
-0.14794921875
-0.0205078125
-0.05126953125
-0.01171875
-0.005859375
-0.005859375
-0.01171875
-0.0084228515625
-0.013916015625
-0.01025390625
-0.010986328125
-0.0062255859375
0.0260009765625
0.003662109375
0.0413818359375
0.0120849609375
0.0128173828125
0.0098876953125
-0.0120849609375
-0.0076904296875
-0.0091552734375
-0.008056640625
0.01611328125
0.0091552734375
0.0194091796875
0.0062255859375
0.0069580078125
-0.0018310546875
0.006591796875
-0.002197265625
0.0106201171875
0.0010986328125
0.013916015625
0.0142822265625
-0.000732421875
0.010986328125
0.122344970703125
0.0025634765625
0.018310546875
-0.0029296875
-0.164825439453125
-0.012451171875
-0.0560302734375
-0.005126953125
-0.0087890625
-0.003662109375
-0.0142822265625
-0.0054931640625
-0.0223388671875
-0.006591796875
-0.013916015625
-0.0032958984375
0.0238037109375
0.006591796875
0.037353515625
0.0135498046875
0.008056640625
0.010986328125
-0.0164794921875
-0.01318359375
-0.000732421875
-0.0062255859375
0.022705078125
0.0146484375
0.0106201171875
0.0084228515625
-0.0062255859375
-0.00146484375
0.006591796875
-0.003662109375
0.0234375
0.01171875
0.0047607421875
0.021240234375
0.0194091796875
-0.002197265625
0.13037109375
0.0
-0.0384521484375
-0.002197265625
-0.1636962890625
-0.019775390625
-0.027099609375
-0.0062255859375
-0.010986328125
-0.0062255859375
-0.016845703125
-0.0091552734375
-0.017578125
-0.0087890625
-0.002197265625
-0.0029296875
0.0333251953125
0.0098876953125
0.035888671875
0.0142822265625
-0.00732421875
0.0010986328125
-0.01171875
-0.010986328125
0.012451171875
0.0018310546875
0.019775390625
0.0076904296875
0.01171875
0.0
0.00439453125
-0.0018310546875
0.0128173828125
-0.00146484375
0.016845703125
0.0186767578125
-0.002197265625
0.0230712890625
0.09375
0.0029296875
0.0465087890625
-0.0146484375
-0.1241455078125
-0.0230712890625
-0.0703125
-0.0128173828125
-0.009521484375
-0.0069580078125
-0.010986328125
-0.008056640625
-0.013916015625
-0.0098876953125
-0.0172119140625
-0.006591796875
0.0142822265625
0.0025634765625
0.04541015625
0.01025390625
0.0234375
0.0106201171875
-0.01611328125
-0.0025634765625
-0.0172119140625
-0.008056640625
0.0179443359375
0.00439453125
0.0201416015625
0.0069580078125
0.0087890625
-0.000732421875
0.009521484375
-0.0018310546875
0.0069580078125
0.0010986328125
0.0142822265625
0.0186767578125
-0.0069580078125
0.0216064453125
0.1087646484375
0.003662109375
0.03369140625
-0.008056640625
-0.1512451171875
-0.015380859375
-0.066650390625
-0.0098876953125
-0.01025390625
-0.00439453125
-0.012451171875
-0.005859375
-0.019775390625
-0.0084228515625
-0.0142822265625
-0.00439453125
0.018310546875
0.0076904296875
0.038818359375
0.0146484375
0.0113525390625
0.010986328125
-0.0146484375
-0.0128173828125
-0.00146484375
-0.0069580078125
0.02197265625
0.0142822265625
0.0120849609375
0.0084228515625
-0.005859375
-0.00146484375
0.0069580078125
-0.00439453125
0.0208740234375
0.0098876953125
0.0087890625
0.0164794921875
0.012451171875
-0.0040283203125
0.13623046875
-0.00146484375
-0.013916015625
0.0
-0.1739501953125
-0.0146484375
-0.0406494140625
-0.005859375
-0.010986328125
-0.005859375
-0.0146484375
-0.009521484375
-0.0186767578125
-0.0076904296875
-0.0029296875
-0.003662109375
0.0322265625
0.0087890625
0.0325927734375
0.0150146484375
-0.0018310546875
0.0025634765625
-0.0150146484375
-0.0106201171875
0.009521484375
0.0018310546875
0.0245361328125
0.0087890625
0.01171875
-0.0029296875
0.0084228515625
-0.0032958984375
0.0113525390625
-0.00146484375
0.01318359375
0.0194091796875
0.00146484375
0.0267333984375
0.090087890625
0.0054931640625
0.050537109375
-0.012451171875
-0.119384765625
-0.024169921875
-0.0750732421875
-0.0150146484375
-0.0084228515625
-0.006591796875
-0.009521484375
-0.0076904296875
-0.0172119140625
-0.0098876953125
-0.013916015625
-0.0062255859375
0.0179443359375
0.0029296875
0.041015625
0.0087890625
0.0252685546875
0.0120849609375
-0.0135498046875
-0.0003662109375
-0.019775390625
-0.01025390625
0.01025390625
0.0010986328125
0.022705078125
0.006591796875
0.0135498046875
-0.000732421875
0.00732421875
-0.0025634765625
0.00732421875
0.0025634765625
0.0113525390625
0.0201416015625
-0.005126953125
0.0238037109375
0.1072998046875
0.0032958984375
0.034423828125
-0.009521484375
-0.1490478515625
-0.0157470703125
-0.0684814453125
-0.0084228515625
-0.01318359375
-0.0025634765625
-0.0164794921875
-0.006591796875
-0.0194091796875
-0.0084228515625
-0.0120849609375
-0.005859375
0.0186767578125
0.0062255859375
0.0384521484375
0.0142822265625
0.012451171875
0.0087890625
-0.012451171875
-0.0146484375
-0.0003662109375
-0.00732421875
0.0223388671875
0.0150146484375
0.012451171875
0.0087890625
-0.0054931640625
-0.0032958984375
0.0098876953125
-0.0047607421875
0.019775390625
0.01171875
0.003662109375
0.0194091796875
0.0252685546875
-0.0025634765625
0.12744140625
0.0
-0.0399169921875
-0.0032958984375
-0.16259765625
-0.017578125
-0.02783203125
-0.0054931640625
-0.0098876953125
-0.00732421875
-0.015380859375
-0.010986328125
-0.01611328125
-0.0076904296875
0.0025634765625
-0.0018310546875
0.03369140625
0.008056640625
0.0322265625
0.0157470703125
-0.005126953125
0.0025634765625
-0.0142822265625
-0.009521484375
0.01171875
0.00146484375
0.0205078125
0.00732421875
0.012451171875
-0.002197265625
0.01025390625
-0.0025634765625
0.00732421875
-0.0003662109375
0.01318359375
0.016845703125
0.002197265625
0.0216064453125
0.0867919921875
0.002197265625
0.05419921875
-0.0098876953125
-0.116455078125
-0.021240234375
-0.0809326171875
-0.0135498046875
-0.0098876953125
-0.0047607421875
-0.01171875
-0.0076904296875
-0.01611328125
-0.009521484375
-0.0135498046875
-0.00732421875
0.0142822265625
0.0032958984375
0.0428466796875
0.0106201171875
0.0208740234375
0.0120849609375
-0.0106201171875
-0.0010986328125
-0.01318359375
-0.0098876953125
0.006591796875
0.0032958984375
0.0201416015625
0.0069580078125
0.0135498046875
0.0
0.01025390625
-0.0003662109375
0.0069580078125
0.0025634765625
0.0120849609375
0.01904296875
-0.005126953125
0.02197265625
0.100341796875
0.0025634765625
0.0399169921875
-0.0091552734375
-0.1435546875
-0.0164794921875
-0.0706787109375
-0.0106201171875
-0.0091552734375
-0.003662109375
-0.0150146484375
-0.0062255859375
-0.0208740234375
-0.00732421875
-0.0142822265625
-0.005859375
0.015380859375
0.0054931640625
0.0384521484375
0.0128173828125
0.016845703125
0.01025390625
-0.01611328125
-0.01025390625
-0.00439453125
-0.0084228515625
0.02490234375
0.0142822265625
0.0128173828125
0.005126953125
0.0003662109375
0.000732421875
0.0062255859375
-0.0018310546875
0.01318359375
0.003662109375
0.0113525390625
0.0146484375
0.009521484375
0.0010986328125
0.134063720703125
0.0018310546875
-0.0029296875
-0.0018310546875
-0.173980712890625
-0.0120849609375
-0.047607421875
-0.00732421875
-0.0062255859375
-0.0069580078125
-0.0128173828125
-0.0087890625
-0.018310546875
-0.008056640625
-0.0062255859375
-0.003662109375
0.029296875
0.006591796875
0.0384521484375
0.01611328125
0.0029296875
0.0032958984375
-0.0150146484375
-0.0128173828125
0.0069580078125
-0.0018310546875
0.0223388671875
0.009521484375
0.012451171875
0.0010986328125
0.009521484375
-0.0025634765625
0.010986328125
-0.000732421875
0.0113525390625
0.0128173828125
-0.0003662109375
0.0267333984375
0.068115234375
0.008056640625
0.0662841796875
-0.0128173828125
-0.0926513671875
-0.0238037109375
-0.090087890625
-0.0164794921875
-0.0128173828125
-0.0040283203125
-0.0128173828125
-0.0076904296875
-0.0172119140625
-0.0106201171875
-0.0120849609375
-0.0098876953125
0.017578125
0.002197265625
0.0421142578125
0.01025390625
0.025634765625
0.0135498046875
-0.0087890625
0.00146484375
-0.016845703125
-0.0098876953125
0.0032958984375
0.0029296875
0.022705078125
0.006591796875
0.015380859375
0.000732421875
0.0032958984375
-0.0025634765625
0.0069580078125
-0.0003662109375
0.0120849609375
0.0186767578125
-0.003662109375
0.0230712890625
0.0933837890625
0.006591796875
0.04833984375
-0.0076904296875
-0.1292724609375
-0.017578125
-0.079833984375
-0.0106201171875
-0.01318359375
-0.0025634765625
-0.016845703125
-0.0076904296875
-0.0179443359375
-0.0084228515625
-0.01171875
-0.005126953125
0.013916015625
0.0062255859375
0.0362548828125
0.0146484375
0.0157470703125
0.0106201171875
-0.0120849609375
-0.0047607421875
-0.01171875
-0.0084228515625
0.0164794921875
0.009521484375
0.0179443359375
0.0062255859375
0.0018310546875
-0.0018310546875
0.005126953125
-0.0010986328125
0.0076904296875
0.0025634765625
0.0164794921875
0.0179443359375
0.00146484375
0.015380859375
0.1142578125
0.0032958984375
0.0172119140625
-0.0098876953125
-0.15673828125
-0.017578125
-0.052734375
-0.0087890625
-0.00732421875
-0.005126953125
-0.01318359375
-0.0069580078125
-0.0194091796875
-0.009521484375
-0.0084228515625
-0.0054931640625
0.024169921875
0.005126953125
0.0384521484375
0.0150146484375
0.006591796875
0.0076904296875
-0.0135498046875
-0.01171875
0.005126953125
-0.0054931640625
0.0205078125
0.01171875
0.0106201171875
0.0025634765625
0.0076904296875
-0.005126953125
0.0091552734375
-0.00146484375
0.010986328125
0.01171875
0.003662109375
0.029296875
0.0377197265625
0.0054931640625
0.1102294921875
-0.00732421875
-0.057861328125
-0.0150146484375
-0.1409912109375
-0.019775390625
-0.0194091796875
-0.0040283203125
-0.0091552734375
-0.008056640625
-0.01611328125
-0.009521484375
-0.0179443359375
-0.0087890625
0.0029296875
0.0003662109375
0.03955078125
0.0106201171875
0.03515625
0.0142822265625
-0.005859375
0.002197265625
-0.015380859375
-0.01171875
0.0087890625
0.0018310546875
0.0216064453125
0.0076904296875
0.01025390625
0.0
0.0047607421875
-0.0018310546875
0.01171875
0.0
0.013916015625
0.017578125
-0.005859375
0.022705078125
0.087890625
0.0069580078125
0.0531005859375
-0.01025390625
-0.123779296875
-0.0208740234375
-0.0816650390625
-0.01318359375
-0.009521484375
-0.0040283203125
-0.012451171875
-0.0076904296875
-0.0172119140625
-0.0091552734375
-0.0157470703125
-0.0062255859375
0.0150146484375
0.0025634765625
0.0413818359375
0.0113525390625
0.022705078125
0.0087890625
-0.006591796875
0.0091552734375
-0.0245361328125
0.0
-0.003662109375
0.02783203125
-0.00732421875
0.0673828125
-0.0787353515625
0.0794677734375
-0.0867919921875
-0.04248046875
0.0655517578125
-0.138427734375
0.1622314453125
-0.05419921875
0.0758056640625
-0.012451171875
0.012451171875
-0.019775390625
0.02490234375
-0.0267333984375
0.0325927734375
-0.012451171875
0.0087890625
0.0311279296875
-0.050537109375
0.0516357421875
-0.078369140625
0.029296875
-0.040283203125
0.0047607421875
-0.0047607421875
-0.0029296875
0.0029296875
-0.0040283203125
0.005126953125
0.0010986328125
-0.002197265625
0.0076904296875
-0.02197265625
0.0003662109375
-0.0186767578125
-0.0084228515625
0.012451171875
0.0
0.0245361328125
0.0047607421875
0.009521484375
-0.0003662109375
0.0032958984375
-0.0018310546875
0.009521484375
0.0003662109375
0.0150146484375
0.0172119140625
-0.0010986328125
0.0164794921875
0.112060546875
-0.00146484375
0.028564453125
-0.0106201171875
-0.1505126953125
-0.01611328125
-0.06298828125
-0.0087890625
-0.0098876953125
-0.00439453125
-0.01171875
-0.00732421875
-0.0172119140625
-0.008056640625
-0.0135498046875
-0.003662109375
0.0179443359375
0.002197265625
0.040283203125
0.009521484375
0.0106201171875
0.0069580078125
-0.006591796875
-0.0128173828125
0.0098876953125
-0.002197265625
0.0205078125
0.013916015625
0.01025390625
0.00146484375
0.0062255859375
-0.00439453125
0.009521484375
-0.0025634765625
0.0164794921875
0.01318359375
0.00439453125
0.031494140625
0.041015625
0.0157470703125
0.085693359375
-0.01025390625
-0.06884765625
-0.024169921875
-0.113525390625
-0.018310546875
-0.0150146484375
-0.0040283203125
-0.0106201171875
-0.0076904296875
-0.01318359375
-0.0106201171875
-0.0194091796875
-0.0084228515625
0.005859375
0.0
0.0421142578125
0.012451171875
0.030029296875
0.0142822265625
-0.0087890625
0.005859375
-0.0201416015625
-0.01318359375
0.0084228515625
-0.0040283203125
0.0245361328125
0.010986328125
0.01025390625
0.0010986328125
0.0054931640625
-0.000732421875
0.0084228515625
-0.0010986328125
0.0120849609375
0.01318359375
-0.002197265625
0.02783203125
0.0428466796875
0.01025390625
0.0999755859375
-0.0062255859375
-0.06884765625
-0.0172119140625
-0.1318359375
-0.0157470703125
-0.0234375
-0.0040283203125
-0.0128173828125
-0.005126953125
-0.0150146484375
-0.008056640625
-0.0164794921875
-0.00732421875
0.0047607421875
0.0010986328125
0.03515625
0.0106201171875
0.0281982421875
0.0146484375
-0.0084228515625
0.0029296875
-0.01611328125
-0.0098876953125
0.0087890625
0.00146484375
0.0216064453125
0.0091552734375
0.0113525390625
0.000732421875
0.0025634765625
-0.00146484375
0.0076904296875
-0.00146484375
0.01318359375
0.016845703125
-0.0018310546875
0.0245361328125
0.0853271484375
0.0062255859375
0.0498046875
-0.0076904296875
-0.1204833984375
-0.0201416015625
-0.08203125
-0.01318359375
-0.0113525390625
-0.003662109375
-0.012451171875
-0.0069580078125
-0.0186767578125
-0.009521484375
-0.013916015625
-0.0069580078125
0.0157470703125
0.005126953125
0.0384521484375
0.0113525390625
0.0208740234375
0.0106201171875
-0.01318359375
-0.0018310546875
-0.013916015625
-0.00732421875
0.0146484375
0.005126953125
0.0201416015625
0.005126953125
0.0084228515625
-0.0010986328125
0.0069580078125
-0.002197265625
0.010986328125
0.0029296875
0.0146484375
0.016845703125
0.0003662109375
0.0172119140625
0.1138916015625
0.0025634765625
0.0208740234375
-0.010986328125
-0.15234375
-0.018310546875
-0.0545654296875
-0.0098876953125
-0.0087890625
-0.003662109375
-0.013916015625
-0.0091552734375
-0.017578125
-0.01025390625
-0.0040283203125
-0.0054931640625
0.0296630859375
0.0069580078125
0.038818359375
0.0128173828125
0.0098876953125
0.0076904296875
-0.012451171875
-0.0120849609375
-0.0003662109375
-0.0091552734375
0.021240234375
0.012451171875
0.0113525390625
0.0087890625
-0.0069580078125
-0.000732421875
0.0087890625
-0.0054931640625
0.0230712890625
0.0069580078125
0.010986328125
0.0164794921875
0.01904296875
-0.0003662109375
0.128204345703125
0.002197265625
-0.02197265625
-0.006591796875
-0.162628173828125
-0.017578125
-0.0347900390625
-0.0040283203125
-0.009521484375
-0.0054931640625
-0.0128173828125
-0.0084228515625
-0.0194091796875
-0.008056640625
-0.003662109375
-0.0003662109375
0.0311279296875
0.0106201171875
0.0322265625
0.013916015625
0.00439453125
0.0069580078125
-0.0157470703125
-0.009521484375
-0.0062255859375
-0.006591796875
0.0194091796875
0.0120849609375
0.013916015625
0.0054931640625
0.002197265625
-0.0003662109375
0.005859375
-0.00146484375
0.0128173828125
0.00439453125
0.0113525390625
0.0150146484375
0.0098876953125
0.0032958984375
0.129302978515625
0.0040283203125
-0.0062255859375
-0.0032958984375
-0.169219970703125
-0.0142822265625
-0.0457763671875
-0.005126953125
-0.008056640625
-0.0054931640625
-0.0128173828125
-0.008056640625
-0.0208740234375
-0.009521484375
-0.0047607421875
-0.0018310546875
0.0311279296875
0.008056640625
0.0355224609375
0.013916015625
0.000732421875
0.005859375
-0.0146484375
-0.0135498046875
0.0076904296875
-0.0025634765625
0.021240234375
0.012451171875
0.0084228515625
0.0032958984375
0.003662109375
-0.0025634765625
0.0091552734375
-0.00146484375
0.0142822265625
0.0135498046875
-0.0029296875
0.027099609375
0.047607421875
0.0120849609375
0.08642578125
-0.00732421875
-0.0743408203125
-0.0208740234375
-0.1146240234375
-0.0172119140625
-0.0186767578125
-0.0040283203125
-0.0098876953125
-0.0069580078125
-0.0157470703125
-0.0084228515625
-0.0194091796875
-0.0084228515625
0.0069580078125
0.000732421875
0.037353515625
0.01171875
0.02783203125
0.0120849609375
-0.003662109375
0.0025634765625
-0.01318359375
-0.010986328125
0.003662109375
0.0
0.0205078125
0.008056640625
0.01318359375
-0.0003662109375
0.0040283203125
-0.0029296875
0.0113525390625
-0.0010986328125
0.0150146484375
0.0157470703125
-0.0025634765625
0.0289306640625
0.05859375
0.009521484375
0.0714111328125
-0.015380859375
-0.0849609375
-0.0234375
-0.09521484375
-0.0164794921875
-0.0146484375
-0.005126953125
-0.012451171875
-0.00732421875
-0.01318359375
-0.01171875
-0.010986328125
-0.0076904296875
0.010986328125
0.0029296875
0.0355224609375
0.012451171875
0.027099609375
0.01171875
-0.005859375
0.0010986328125
-0.0164794921875
-0.0113525390625
0.0084228515625
0.0
0.019775390625
0.0091552734375
0.009521484375
0.0
0.0069580078125
-0.0025634765625
0.01025390625
-0.0018310546875
0.01318359375
0.0172119140625
-0.0054931640625
0.025634765625
0.0732421875
0.0084228515625
0.0589599609375
-0.009521484375
-0.10693359375
-0.0216064453125
-0.0875244140625
-0.0128173828125
-0.012451171875
-0.0040283203125
-0.0128173828125
-0.00732421875
-0.0172119140625
-0.0098876953125
-0.013916015625
-0.00732421875
0.013916015625
0.0054931640625
0.03662109375
0.0142822265625
0.0205078125
0.012451171875
-0.010986328125
0.000732421875
-0.0164794921875
-0.008056640625
0.0062255859375
0.00146484375
0.0205078125
0.006591796875
0.0135498046875
0.0003662109375
0.003662109375
-0.0018310546875
0.0091552734375
0.0
0.0128173828125
0.0194091796875
-0.003662109375
0.02490234375
0.0933837890625
0.0047607421875
0.0435791015625
-0.01025390625
-0.128173828125
-0.0208740234375
-0.07470703125
-0.0135498046875
-0.010986328125
-0.0047607421875
-0.01171875
-0.0076904296875
-0.01611328125
-0.01025390625
-0.0128173828125
-0.0069580078125
0.017578125
0.0069580078125
0.0384521484375
0.0128173828125
0.0194091796875
0.0106201171875
-0.01171875
-0.0025634765625
-0.0135498046875
-0.0087890625
0.0091552734375
0.0054931640625
0.017578125
0.0054931640625
0.0113525390625
-0.00146484375
0.006591796875
-0.0025634765625
0.009521484375
0.002197265625
0.0135498046875
0.0179443359375
-0.0018310546875
0.02197265625
0.10693359375
0.0040283203125
0.027099609375
-0.013916015625
-0.1435546875
-0.019775390625
-0.059326171875
-0.0098876953125
-0.0098876953125
-0.003662109375
-0.0128173828125
-0.009521484375
-0.0194091796875
-0.009521484375
-0.0087890625
-0.0054931640625
0.0245361328125
0.006591796875
0.0377197265625
0.0128173828125
0.015380859375
0.01025390625
-0.0135498046875
-0.002197265625
-0.01171875
-0.0087890625
0.015380859375
0.0062255859375
0.0179443359375
0.00439453125
0.008056640625
-0.0018310546875
0.0069580078125
-0.00146484375
0.009521484375
0.0025634765625
0.0142822265625
0.015380859375
0.005126953125
0.0146484375
0.1182861328125
0.005126953125
0.01025390625
-0.01025390625
-0.154541015625
-0.017578125
-0.049072265625
-0.0087890625
-0.0106201171875
-0.005859375
-0.01318359375
-0.0098876953125
-0.01904296875
-0.0113525390625
-0.0032958984375
-0.003662109375
0.0303955078125
0.01025390625
0.0333251953125
0.0135498046875
0.010986328125
0.005859375
-0.0106201171875
-0.0054931640625
-0.01171875
-0.00732421875
0.0128173828125
0.006591796875
0.01904296875
0.005126953125
0.0069580078125
-0.0010986328125
0.0062255859375
-0.000732421875
0.0113525390625
0.002197265625
0.0142822265625
0.0157470703125
0.005126953125
0.0135498046875
0.1171875
0.0029296875
0.008056640625
-0.0098876953125
-0.15673828125
-0.0164794921875
-0.04833984375
-0.0062255859375
-0.0087890625
-0.0047607421875
-0.0142822265625
-0.0084228515625
-0.017578125
-0.010986328125
-0.005859375
-0.00439453125
0.028564453125
0.008056640625
0.0347900390625
0.01318359375
0.0084228515625
0.0091552734375
-0.0128173828125
-0.005859375
-0.0098876953125
-0.0069580078125
0.0157470703125
0.006591796875
0.0172119140625
0.0054931640625
0.00732421875
-0.00146484375
0.0062255859375
-0.0010986328125
0.0091552734375
0.0029296875
0.01318359375
0.0146484375
0.0025634765625
0.0146484375
0.1190185546875
0.0032958984375
0.0128173828125
-0.0098876953125
-0.157470703125
-0.0179443359375
-0.0516357421875
-0.0069580078125
-0.0098876953125
-0.005126953125
-0.013916015625
-0.0098876953125
-0.017578125
-0.009521484375
-0.00439453125
-0.0025634765625
0.02783203125
0.009521484375
0.03515625
0.0120849609375
0.009521484375
0.0091552734375
-0.012451171875
-0.0076904296875
-0.00732421875
-0.0084228515625
0.016845703125
0.0087890625
0.01611328125
0.005126953125
0.005859375
-0.0018310546875
0.0091552734375
-0.0025634765625
0.012451171875
0.0054931640625
0.0113525390625
0.012451171875
0.0076904296875
0.0076904296875
0.1241455078125
0.0047607421875
-0.0010986328125
-0.0062255859375
-0.1629638671875
-0.01611328125
-0.0450439453125
-0.00732421875
-0.0087890625
-0.0047607421875
-0.0135498046875
-0.01025390625
-0.018310546875
-0.0087890625
-0.0040283203125
-0.0029296875
0.030029296875
0.0091552734375
0.03369140625
0.0128173828125
0.0084228515625
0.008056640625
-0.01171875
-0.0047607421875
-0.009521484375
-0.008056640625
0.0150146484375
0.00732421875
0.0194091796875
0.00439453125
0.006591796875
-0.0018310546875
0.003662109375
-0.002197265625
0.0106201171875
0.00439453125
0.0135498046875
0.01318359375
0.0069580078125
0.0084228515625
0.1241455078125
0.005126953125
0.0029296875
-0.00732421875
-0.163330078125
-0.0157470703125
-0.046875
-0.00732421875
-0.009521484375
-0.0054931640625
-0.01318359375
-0.009521484375
-0.0179443359375
-0.01025390625
-0.0032958984375
-0.002197265625
0.0318603515625
0.0098876953125
0.0355224609375
0.01318359375
0.0087890625
0.00732421875
-0.0142822265625
-0.0054931640625
-0.010986328125
-0.0084228515625
0.0150146484375
0.0069580078125
0.018310546875
0.005859375
0.0062255859375
-0.00146484375
0.0076904296875
-0.00146484375
0.0113525390625
0.0025634765625
0.013916015625
0.015380859375
0.0029296875
0.013916015625
0.1168212890625
0.00439453125
0.0087890625
-0.01025390625
-0.15673828125
-0.0172119140625
-0.047607421875
-0.00732421875
-0.009521484375
-0.0054931640625
-0.0128173828125
-0.0084228515625
-0.017578125
-0.0098876953125
-0.0054931640625
-0.0029296875
0.028564453125
0.0087890625
0.0347900390625
0.01318359375
0.0106201171875
0.0091552734375
-0.013916015625
-0.002197265625
-0.01318359375
-0.006591796875
0.01171875
0.003662109375
0.0208740234375
0.005126953125
0.0106201171875
-0.00146484375
0.0032958984375
-0.0018310546875
0.01025390625
0.0018310546875
0.0157470703125
0.017578125
-0.00146484375
0.0205078125
0.1102294921875
0.0040283203125
0.019775390625
-0.0128173828125
-0.1494140625
-0.019775390625
-0.0516357421875
-0.009521484375
-0.0084228515625
-0.0062255859375
-0.0146484375
-0.0091552734375
-0.018310546875
-0.0091552734375
-0.00732421875
-0.00439453125
0.027099609375
0.008056640625
0.0355224609375
0.012451171875
0.0146484375
0.009521484375
-0.0113525390625
-0.002197265625
-0.0150146484375
-0.0084228515625
0.0076904296875
0.0032958984375
0.018310546875
0.0047607421875
0.012451171875
-0.000732421875
0.006591796875
-0.002197265625
0.01171875
0.00146484375
0.0135498046875
0.019775390625
-0.005859375
0.0252685546875
0.0977783203125
0.00439453125
0.034423828125
-0.015380859375
-0.1336669921875
-0.0230712890625
-0.06298828125
-0.0120849609375
-0.0087890625
-0.0047607421875
-0.0120849609375
-0.0091552734375
-0.0172119140625
-0.0098876953125
-0.0091552734375
-0.0054931640625
0.0201416015625
0.0084228515625
0.0355224609375
0.0120849609375
0.0194091796875
0.0098876953125
-0.0098876953125
0.0025634765625
-0.0164794921875
-0.009521484375
0.0047607421875
0.000732421875
0.0208740234375
0.0076904296875
0.01318359375
-0.0003662109375
0.0040283203125
-0.0029296875
0.0076904296875
-0.000732421875
0.01318359375
0.0146484375
-0.0010986328125
0.0274658203125
0.0703125
0.0091552734375
0.06005859375
-0.012451171875
-0.10107421875
-0.0216064453125
-0.0882568359375
-0.0146484375
-0.01318359375
-0.003662109375
-0.01171875
-0.0076904296875
-0.016845703125
-0.01025390625
-0.0128173828125
-0.0069580078125
0.0142822265625
0.0047607421875
0.03662109375
0.0128173828125
0.024169921875
0.0113525390625
-0.005859375
0.003662109375
-0.0146484375
-0.01318359375
0.00439453125
-0.0025634765625
0.021240234375
0.0106201171875
0.0106201171875
0.00146484375
0.0054931640625
-0.0018310546875
0.0084228515625
-0.00146484375
0.0128173828125
0.0146484375
-0.0010986328125
0.029296875
0.044677734375
0.01318359375
0.0831298828125
-0.0106201171875
-0.0728759765625
-0.0234375
-0.11279296875
-0.016845703125
-0.017578125
-0.00439453125
-0.0098876953125
-0.00732421875
-0.01611328125
-0.0106201171875
-0.0172119140625
-0.0087890625
0.009521484375
0.0018310546875
0.0377197265625
0.0128173828125
0.0274658203125
0.010986328125
0.0
0.005859375
-0.0142822265625
-0.010986328125
-0.0018310546875
-0.006591796875
0.0179443359375
0.012451171875
0.0135498046875
0.00732421875
-0.0032958984375
-0.003662109375
0.00732421875
-0.0047607421875
0.0201416015625
0.01171875
0.0054931640625
0.021240234375
0.0234375
0.00146484375
0.122314453125
0.0
-0.0347900390625
-0.00732421875
-0.15673828125
-0.0186767578125
-0.030029296875
-0.005859375
-0.0087890625
-0.0069580078125
-0.0135498046875
-0.0106201171875
-0.0164794921875
-0.0076904296875
0.00146484375
0.000732421875
0.032958984375
0.0098876953125
0.0325927734375
0.01171875
0.0062255859375
0.006591796875
-0.0142822265625
-0.0032958984375
-0.0128173828125
-0.0076904296875
0.01171875
0.0047607421875
0.0179443359375
0.0054931640625
0.0098876953125
-0.0003662109375
0.0084228515625
-0.002197265625
0.009521484375
0.00146484375
0.01171875
0.0194091796875
-0.00439453125
0.0234375
0.1051025390625
0.0047607421875
0.0267333984375
-0.015380859375
-0.1424560546875
-0.019775390625
-0.05712890625
-0.0106201171875
-0.0084228515625
-0.006591796875
-0.01171875
-0.009521484375
-0.016845703125
-0.010986328125
-0.01025390625
-0.0040283203125
0.024169921875
0.008056640625
0.0369873046875
0.01318359375
0.0157470703125
0.0098876953125
-0.0084228515625
0.0010986328125
-0.013916015625
-0.0106201171875
0.0040283203125
-0.0003662109375
0.01904296875
0.0084228515625
0.012451171875
-0.0010986328125
0.00439453125
-0.0018310546875
0.0084228515625
0.0
0.01318359375
0.0164794921875
-0.0003662109375
0.027099609375
0.068115234375
0.008056640625
0.0596923828125
-0.0120849609375
-0.100341796875
-0.022705078125
-0.0889892578125
-0.013916015625
-0.0120849609375
-0.00439453125
-0.0128173828125
-0.0087890625
-0.0150146484375
-0.01025390625
-0.01171875
-0.006591796875
0.0146484375
0.005859375
0.0369873046875
0.0135498046875
0.02197265625
0.0087890625
-0.0029296875
0.0032958984375
-0.013916015625
-0.01171875
0.0
-0.0062255859375
0.0194091796875
0.012451171875
0.012451171875
0.0069580078125
-0.0025634765625
-0.003662109375
0.00732421875
-0.0040283203125
0.0186767578125
0.01025390625
0.005859375
0.0208740234375
0.0245361328125
0.0025634765625
0.1190185546875
0.000732421875
-0.035888671875
-0.009521484375
-0.1534423828125
-0.019775390625
-0.028564453125
-0.0032958984375
-0.009521484375
-0.0062255859375
-0.013916015625
-0.010986328125
-0.0164794921875
-0.0106201171875
0.000732421875
0.000732421875
0.0347900390625
0.0098876953125
0.0340576171875
0.01904296875
0.0010986328125
0.0194091796875
-0.0260009765625
0.029296875
-0.052734375
0.04833984375
-0.0780029296875
0.085693359375
-0.069580078125
-0.050537109375
0.098876953125
-0.147216796875
0.1754150390625
-0.04248046875
0.0604248046875
-0.01611328125
0.0208740234375
-0.0208740234375
0.0274658203125
-0.027099609375
0.032958984375
-0.0010986328125
-0.0040283203125
0.0498046875
-0.0728759765625
0.052734375
-0.0787353515625
0.0201416015625
-0.0281982421875
0.0
-0.00146484375
-0.0032958984375
0.005126953125
-0.0003662109375
0.0010986328125
0.0029296875
-0.00732421875
0.0025634765625
-0.00439453125
0.0003662109375
-0.0003662109375
0.0029296875
-0.008056640625
0.0040283203125
-0.01611328125
-0.0087890625
-0.0018310546875
-0.0087890625
0.0234375
0.008056640625
0.0150146484375
0.0076904296875
-0.0069580078125
-0.002197265625
0.005126953125
-0.0032958984375
0.0186767578125
0.0087890625
0.0069580078125
0.0194091796875
0.0234375
0.002197265625
0.1204833984375
-0.0003662109375
-0.031494140625
-0.0084228515625
-0.1549072265625
-0.018310546875
-0.03076171875
-0.0047607421875
-0.0076904296875
-0.0069580078125
-0.0128173828125
-0.0087890625
-0.0146484375
-0.0084228515625
-0.0010986328125
-0.0010986328125
0.0234375
0.008056640625
0.03076171875
0.01171875
0.01171875
0.0076904296875
-0.010986328125
-0.0054931640625
-0.009521484375
-0.0062255859375
0.010986328125
0.008056640625
0.0142822265625
0.0062255859375
0.008056640625
-0.0032958984375
0.01025390625
-0.00146484375
0.0128173828125
0.0040283203125
0.0135498046875
0.013916015625
0.005859375
0.017578125
0.112060546875
0.005126953125
0.0025634765625
-0.01318359375
-0.15087890625
-0.0179443359375
-0.0443115234375
-0.0069580078125
-0.01025390625
-0.0047607421875
-0.0135498046875
-0.0091552734375
-0.0157470703125
-0.0106201171875
-0.003662109375
-0.003662109375
0.029296875
0.0106201171875
0.034423828125
0.012451171875
0.01171875
0.0084228515625
-0.009521484375
0.0029296875
-0.0164794921875
-0.0098876953125
0.0025634765625
-0.003662109375
0.0216064453125
0.0084228515625
0.0135498046875
0.0010986328125
0.00439453125
-0.0032958984375
0.0084228515625
-0.0010986328125
0.0142822265625
0.013916015625
-0.0025634765625
0.030029296875
0.047607421875
0.0146484375
0.0802001953125
-0.0113525390625
-0.0736083984375
-0.0263671875
-0.1072998046875
-0.016845703125
-0.0186767578125
-0.00439453125
-0.010986328125
-0.0084228515625
-0.0146484375
-0.01025390625
-0.0142822265625
-0.0084228515625
0.0098876953125
0.0029296875
0.0369873046875
0.0120849609375
0.025634765625
0.0106201171875
0.0003662109375
0.005859375
-0.01318359375
-0.0091552734375
-0.0069580078125
-0.006591796875
0.016845703125
0.009521484375
0.0150146484375
0.0062255859375
0.0032958984375
-0.000732421875
0.00732421875
-0.0018310546875
0.013916015625
0.0047607421875
0.0113525390625
0.0120849609375
0.0128173828125
0.0069580078125
0.1204833984375
0.0062255859375
-0.0128173828125
-0.0076904296875
-0.15966796875
-0.018310546875
-0.038818359375
-0.005126953125
-0.0076904296875
-0.005859375
-0.0128173828125
-0.0098876953125
-0.017578125
-0.01025390625
-0.0018310546875
-0.002197265625
0.0318603515625
0.010986328125
0.0318603515625
0.01171875
0.0106201171875
0.0091552734375
-0.0098876953125
0.000732421875
-0.0146484375
-0.0084228515625
0.0032958984375
0.0003662109375
0.0186767578125
0.006591796875
0.0142822265625
0.0003662109375
0.005126953125
-0.0025634765625
0.0076904296875
0.0
0.0135498046875
0.0179443359375
-0.0018310546875
0.0267333984375
0.076904296875
0.0069580078125
0.052001953125
-0.01171875
-0.1094970703125
-0.0234375
-0.079833984375
-0.0146484375
-0.0135498046875
-0.0040283203125
-0.012451171875
-0.009521484375
-0.013916015625
-0.0106201171875
-0.012451171875
-0.0069580078125
0.0157470703125
0.0062255859375
0.0380859375
0.01318359375
0.0223388671875
0.0087890625
-0.002197265625
0.0040283203125
-0.0146484375
-0.0128173828125
-0.0029296875
-0.005859375
0.018310546875
0.0120849609375
0.0120849609375
0.0084228515625
-0.003662109375
-0.002197265625
0.0069580078125
-0.0047607421875
0.0205078125
0.01025390625
0.0076904296875
0.021240234375
0.025634765625
0.003662109375
0.1168212890625
0.0
-0.0380859375
-0.009521484375
-0.15087890625
-0.0205078125
-0.0281982421875
-0.003662109375
-0.0098876953125
-0.006591796875
-0.0142822265625
-0.010986328125
-0.0157470703125
-0.0098876953125
0.0025634765625
-0.000732421875
0.0333251953125
0.0120849609375
0.0311279296875
0.0106201171875
0.0084228515625
0.008056640625
-0.0128173828125
0.0003662109375
-0.0157470703125
-0.0076904296875
0.0069580078125
0.0018310546875
0.018310546875
0.005126953125
0.0128173828125
-0.000732421875
0.0054931640625
-0.0029296875
0.008056640625
0.00146484375
0.0135498046875
0.0208740234375
-0.0040283203125
0.025634765625
0.0948486328125
0.00439453125
0.0377197265625
-0.0146484375
-0.1300048828125
-0.022705078125
-0.0655517578125
-0.0120849609375
-0.01025390625
-0.003662109375
-0.012451171875
-0.0098876953125
-0.0157470703125
-0.0106201171875
-0.0106201171875
-0.0047607421875
0.0201416015625
0.0076904296875
0.0377197265625
0.0120849609375
0.0205078125
0.0087890625
-0.006591796875
0.0040283203125
-0.015380859375
-0.0135498046875
0.0029296875
-0.00439453125
0.0194091796875
0.010986328125
0.0135498046875
0.01025390625
0.002197265625
0.0223388671875
-0.0010986328125
0.0377197265625
-0.0208740234375
0.013916015625
0.0977783203125
-0.04541015625
0.050537109375
-0.038818359375
-0.1065673828125
-0.0069580078125
-0.0435791015625
-0.0091552734375
-0.0054931640625
-0.012451171875
-0.0040283203125
-0.0146484375
-0.0069580078125
-0.00439453125
-0.0029296875
0.0150146484375
0.0091552734375
0.021240234375
0.0120849609375
0.01025390625
0.005859375
0.0025634765625
0.0010986328125
0.000732421875
-0.0018310546875
0.005126953125
-0.0157470703125
-0.00146484375
-0.01318359375
-0.0076904296875
0.010986328125
0.000732421875
0.0205078125
0.002197265625
0.0135498046875
0.0
0.005859375
-0.000732421875
0.0135498046875
0.0120849609375
0.002197265625
0.029296875
0.041748046875
0.0128173828125
0.0948486328125
-0.009521484375
-0.0655517578125
-0.0205078125
-0.1248779296875
-0.017578125
-0.0201416015625
-0.00439453125
-0.01171875
-0.00732421875
-0.0150146484375
-0.010986328125
-0.01611328125
-0.00732421875
0.0069580078125
0.0018310546875
0.035888671875
0.0120849609375
0.0281982421875
0.0076904296875
0.008056640625
0.0040283203125
-0.008056640625
0.0029296875
-0.0128173828125
-0.012451171875
0.000732421875
-0.00439453125
0.0186767578125
0.0106201171875
0.0142822265625
0.00439453125
0.0018310546875
-0.00146484375
0.01025390625
0.002197265625
0.0172119140625
0.013916015625
0.005859375
0.015380859375
0.1146240234375
0.0076904296875
0.005859375
-0.009521484375
-0.1556396484375
-0.017578125
-0.046875
-0.0087890625
-0.008056640625
-0.005859375
-0.013916015625
-0.010986328125
-0.01904296875
-0.01171875
-0.003662109375
0.0194091796875
0.0487060546875
0.0230712890625
0.0421142578125
