0.008056640625
0.389312744140625
0.008056640625
0.395538330078125
0.0
0.0128173828125
-0.00146484375
0.009521484375
-0.0018310546875
0.0032958984375
-0.0047607421875
0.01318359375
0.0029296875
0.02197265625
0.0076904296875
0.016143798828125
0.0018310546875
0.012847900390625
0.0025634765625
0.0084228515625
-0.0421142578125
0.134033203125
-0.0084228515625
0.1131591796875
0.047607421875
-0.103271484375
0.0150146484375
-0.0970458984375
-0.000732421875
-0.0025634765625
-0.0029296875
0.0142822265625
0.0
0.003662109375
0.0
-0.0084228515625
0.0
-0.0120849609375
-0.006591796875
0.01025390625
-0.0091552734375
0.0487060546875
-0.0010986328125
0.0626220703125
0.006591796875
0.0377197265625
0.0040283203125
0.01611328125
-0.0010986328125
0.013916015625
-0.0069580078125
-0.0135498046875
-0.0157470703125
-0.0567626953125
-0.02490234375
-0.08935546875
0.0260009765625
-0.084259033203125
0.0347900390625
0.166259765625
-0.005126953125
0.227447509765625
0.006591796875
0.0435791015625
0.005126953125
0.0303955078125
0.0
0.0377197265625
0.00439453125
0.037353515625
0.012451171875
0.020538330078125
0.01171875
-0.0098876953125
0.00146484375
-0.053497314453125
0.0025634765625
-0.0640869140625
0.0018310546875
-0.0179443359375
-0.0047607421875
0.0146484375
-0.0018310546875
0.0194091796875
-0.0025634765625
0.0208740234375
-0.00146484375
0.015380859375
-0.0040283203125
0.0106201171875
-0.0040283203125
0.0069580078125
-0.0029296875
0.005859375
-0.0032958984375
0.0087890625
-0.0018310546875
0.012451171875
-0.0029296875
0.0135498046875
-0.0010986328125
0.0054931640625
-0.005126953125
-0.0025634765625
-0.0054931640625
-0.0069580078125
-0.0087890625
-0.002197265625
-0.0062255859375
0.0076904296875
0.00146484375
0.012481689453125
0.0003662109375
0.011016845703125
-0.000732421875
0.0029296875
-0.0029296875
-0.025665283203125
-0.0362548828125
0.0234375
-0.010986328125
0.049102783203125
0.032958984375
-0.00146484375
0.0018310546875
-0.009521484375
-0.0069580078125
-0.0106201171875
-0.0029296875
-0.003662109375
-0.0040283203125
-0.0084228515625
-0.0018310546875
-0.0157470703125
0.00146484375
-0.015777587890625
-0.00146484375
0.016845703125
-0.0135498046875
0.035919189453125
-0.0069580078125
0.01171875
-0.00146484375
0.0
-0.005126953125
0.0
-0.0029296875
0.0003662109375
-0.00732421875
0.0003662109375
-0.0113525390625
-0.0003662109375
-0.0267333984375
-0.053863525390625
0.0142822265625
-0.035919189453125
0.027099609375
0.053497314453125
-0.0025634765625
0.036285400390625
0.005126953125
0.0003662109375
-0.0010986328125
-0.0003662109375
0.000732421875
-0.0003662109375
0.0025634765625
0.0
0.00439453125
0.0003662109375
0.000732421875
0.0003662109375
-0.0194091796875
-0.0003662109375
-0.0465087890625
0.0
0.0
0.0
0.0322265625
0.0
0.0
0.0
0.0010986328125
-0.0003662109375
0.002197265625
0.0003662109375
0.0010986328125
0.0003662109375
0.000732421875
-0.0003662109375
-0.0029296875
0.0
-0.003662109375
0.0003662109375
-0.00439453125
0.0
-0.0018310546875
0.0
-0.003662109375
0.0
-0.005126953125
0.0
-0.003662109375
0.0
0.00146484375
0.0
0.0018310546875
-0.0003662109375
-0.0029296875
0.0
0.002197265625
0.0
0.006591796875
0.0
0.0087890625
0.0003662109375
0.0047607421875
0.0
0.0087890625
0.0
-0.03369140625
0.0
-0.00732421875
0.0
0.046142578125
0.0
0.0084228515625
0.0
-0.00146484375
-0.0003662109375
-0.0003662109375
-0.0003662109375
0.0010986328125
0.0003662109375
0.002197265625
0.0003662109375
0.0040283203125
-0.0003662109375
0.0003662109375
-0.0003662109375
-0.00439453125
0.0003662109375
0.00439453125
0.0003662109375
0.0087890625
0.0
0.0076904296875
0.0
0.0040283203125
0.0
-0.0040283203125
-0.0003662109375
-0.0091552734375
-0.0003662109375
-0.0113525390625
-0.046905517578125
0.031494140625
-0.0267333984375
0.0322265625
0.047271728515625
0.0010986328125
0.0267333984375
0.01171875
0.0
0.0098876953125
0.0003662109375
0.0029296875
0.0
0.0025634765625
-0.0003662109375
0.0062255859375
-0.0003662109375
0.0047607421875
0.0003662109375
0.005126953125
0.0
0.0040283203125
0.0
0.0047607421875
0.0
0.0032958984375
0.0
0.0032958984375
0.0003662109375
0.002197265625
-0.0003662109375
0.0029296875
0.0
0.0029296875
0.0003662109375
-0.000732421875
0.0
0.00146484375
0.0
0.002197265625
0.0
0.00439453125
0.0
0.0029296875
0.0
0.000732421875
0.0
0.00146484375
0.0
0.003662109375
0.0
0.006591796875
-0.0003662109375
0.005126953125
0.0
0.003662109375
0.0003662109375
-0.000732421875
-0.0003662109375
0.0040283203125
0.0
0.0047607421875
0.0003662109375
0.0003662109375
0.0
0.002197265625
0.0
-0.0355224609375
0.0
-0.0142822265625
0.0
0.037353515625
0.0
0.01611328125
0.0
-0.0025634765625
0.0
-0.0025634765625
-0.0003662109375
-0.006591796875
0.0
-0.0084228515625
0.0003662109375
-0.000732421875
0.0
-0.005126953125
0.0
-0.0128173828125
0.0
-0.00732421875
0.0
0.005126953125
0.0
0.00732421875
0.0
0.003662109375
0.0
-0.002197265625
0.0
-0.0142822265625
-0.0003662109375
-0.0267333984375
-0.0087890625
0.0322265625
-0.062652587890625
0.0303955078125
0.0087890625
-0.01904296875
0.062652587890625
0.00439453125
0.0
0.003662109375
0.0003662109375
-0.0029296875
-0.0003662109375
-0.002197265625
0.0
0.0
0.0003662109375
0.0018310546875
0.0
0.0003662109375
0.0
0.009521484375
-0.0003662109375
0.01171875
0.0
0.0069580078125
0.0
0.0054931640625
0.0
0.0003662109375
0.0003662109375
0.000732421875
0.0
0.0003662109375
0.0
0.000732421875
0.0
-0.00146484375
0.0
-0.000732421875
0.0
0.0003662109375
-0.0003662109375
-0.0003662109375
0.0
-0.002197265625
0.0003662109375
-0.008056640625
0.0
-0.0062255859375
0.0
-0.00439453125
-0.0003662109375
-0.00146484375
0.0
-0.0040283203125
0.0003662109375
-0.006591796875
-0.0003662109375
0.0
-0.0003662109375
-0.000732421875
0.0003662109375
-0.0054931640625
0.0
-0.005126953125
0.0
-0.0369873046875
0.0003662109375
-0.00732421875
0.0
0.037353515625
0.0
0.005126953125
0.0
-0.00439453125
0.0
0.0003662109375
-0.0003662109375
0.000732421875
0.0
0.0010986328125
0.0
-0.000732421875
-0.002197265625
-0.0029296875
0.0
-0.003662109375
0.0018310546875
0.003662109375
0.0
0.0087890625
0.0003662109375
0.0025634765625
0.0003662109375
-0.0029296875
0.0
-0.01611328125
-0.00146484375
-0.0201416015625
-0.041412353515625
-0.0113525390625
-0.134063720703125
0.017578125
-0.0040283203125
0.019775390625
0.135162353515625
0.00146484375
0.045440673828125
0.0040283203125
0.0003662109375
-0.0018310546875
-0.0003662109375
-0.0040283203125
0.0
-0.002197265625
0.0003662109375
0.002197265625
0.0
0.0010986328125
0.0
0.0003662109375
-0.0003662109375
0.00146484375
-0.0003662109375
-0.0010986328125
0.0
0.0010986328125
0.0
0.00146484375
0.0
0.000732421875
0.0003662109375
-0.000732421875
0.0
0.000732421875
-0.0003662109375
0.0010986328125
0.0
0.000732421875
0.0
0.0010986328125
0.0
-0.000732421875
0.0003662109375
0.00146484375
0.0003662109375
0.0010986328125
0.0
0.000732421875
-0.0003662109375
0.0003662109375
-0.0003662109375
-0.002197265625
0.0
-0.003662109375
0.0003662109375
0.002197265625
0.0
0.0062255859375
0.0
0.00146484375
0.0
0.0018310546875
-0.0003662109375
-0.025634765625
0.0003662109375
-0.012451171875
0.0003662109375
0.03076171875
-0.0003662109375
0.0172119140625
-0.000732421875
0.000732421875
-0.00146484375
-0.0010986328125
-0.0069580078125
0.000732421875
-0.0146484375
0.000732421875
-0.026031494140625
0.0025634765625
-0.023101806640625
-0.0040283203125
-0.005126953125
-0.012451171875
0.021270751953125
-0.0047607421875
0.038116455078125
0.005859375
0.0179443359375
0.00732421875
0.0003662109375
0.0025634765625
0.0
-0.0040283203125
-0.010986328125
-0.01171875
-0.057159423828125
-0.0194091796875
-0.098907470703125
0.0289306640625
-0.1182861328125
0.0223388671875
0.105865478515625
-0.015380859375
0.175445556640625
0.006591796875
0.00439453125
0.0032958984375
0.0
-0.0040283203125
0.0
-0.00439453125
0.0003662109375
-0.0032958984375
0.0
-0.000732421875
0.0
-0.000732421875
-0.0003662109375
-0.002197265625
-0.002197265625
-0.0003662109375
-0.0069580078125
-0.0018310546875
-0.0047607421875
-0.000732421875
0.00146484375
-0.002197265625
0.0010986328125
-0.002197265625
0.0
-0.0018310546875
0.0010986328125
-0.00146484375
0.0003662109375
-0.0003662109375
-0.000732421875
-0.0029296875
-0.0003662109375
-0.0018310546875
-0.000732421875
-0.00146484375
-0.0003662109375
-0.00146484375
0.0018310546875
-0.0029296875
0.002197265625
-0.0029296875
0.0018310546875
-0.0025634765625
0.0003662109375
-0.005859375
-0.0040283203125
-0.0010986328125
0.000732421875
0.0069580078125
0.003662109375
0.0076904296875
0.0003662109375
0.0025634765625
0.0010986328125
0.003662109375
-0.0164794921875
-0.047607421875
0.00146484375
-0.0135498046875
0.01904296875
0.053466796875
-0.0069580078125
0.0128173828125
-0.0084228515625
-0.005126953125
-0.0029296875
-0.005859375
-0.0040283203125
-0.00146484375
-0.0098876953125
-0.002197265625
-0.0179443359375
-0.0025634765625
-0.020538330078125
-0.0018310546875
-0.003692626953125
-0.00732421875
0.032989501953125
-0.0047607421875
0.033721923828125
-0.0018310546875
0.00732421875
-0.005859375
0.0
-0.0234375
0.0
-0.029296875
-0.0010986328125
-0.0194091796875
-0.034454345703125
-0.0194091796875
-0.106964111328125
0.035888671875
-0.1036376953125
0.030029296875
0.108062744140625
-0.0106201171875
0.138092041015625
0.0047607421875
0.0003662109375
0.0003662109375
0.0003662109375
-0.0025634765625
0.0
0.006591796875
0.0
0.0186767578125
0.0
0.0025634765625
0.0
-0.00732421875
-0.0003662109375
-0.0018310546875
-0.000732421875
0.00439453125
-0.0032958984375
0.0047607421875
-0.0018310546875
0.002197265625
0.0
0.0029296875
-0.0018310546875
-0.0003662109375
0.000732421875
0.000732421875
0.0018310546875
0.005126953125
0.0
0.0032958984375
0.0003662109375
-0.000732421875
0.0003662109375
-0.0040283203125
0.00146484375
-0.0054931640625
0.002197265625
-0.00732421875
0.0003662109375
-0.0146484375
0.0
-0.01171875
0.0
-0.0062255859375
0.0
-0.0069580078125
0.0
0.0003662109375
0.0003662109375
0.0054931640625
0.0
0.006591796875
-0.0003662109375
0.005126953125
0.0
-0.0362548828125
0.0003662109375
-0.0106201171875
0.0
0.0325927734375
0.0
0.0029296875
0.0
-0.0084228515625
-0.0003662109375
-0.0098876953125
0.0
-0.010986328125
0.0
-0.005859375
0.0
0.000732421875
-0.0029296875
-0.0084228515625
0.0
-0.0172119140625
0.0029296875
-0.0084228515625
0.0
0.00146484375
0.0
-0.005859375
0.0003662109375
-0.0098876953125
0.0
-0.01611328125
-0.0003662109375
-0.0311279296875
0.0
-0.0303955078125
-0.054595947265625
0.0186767578125
-0.070709228515625
0.0091552734375
0.054962158203125
-0.021240234375
0.071075439453125
0.0062255859375
0.0
0.008056640625
-0.0003662109375
0.0216064453125
0.0
-0.00146484375
0.0003662109375
-0.0311279296875
0.0
-0.0201416015625
-0.0003662109375
-0.0216064453125
-0.0003662109375
-0.0281982421875
0.0
-0.0252685546875
0.0
-0.005859375
0.0003662109375
0.0010986328125
0.0003662109375
-0.00439453125
0.0
-0.0062255859375
-0.0003662109375
-0.01171875
0.0
-0.0087890625
0.0003662109375
-0.0076904296875
-0.0003662109375
-0.0120849609375
-0.0003662109375
-0.007720947265625
0.0
0.00146484375
0.0003662109375
0.006622314453125
0.0
0.008056640625
-0.0003662109375
0.0040283203125
0.0
-0.0062255859375
0.0
-0.00439453125
0.0
-0.0003662109375
0.0003662109375
0.0003662109375
0.0003662109375
0.002197265625
0.0
-0.009918212890625
0.0
-0.023834228515625
0.0
0.014312744140625
-0.0003662109375
0.032623291015625
-0.0003662109375
0.0047607421875
0.0003662109375
0.0025634765625
0.0003662109375
0.003662109375
-0.0003662109375
0.0029296875
-0.0003662109375
0.0025634765625
0.0
-0.0025634765625
0.0003662109375
-0.0076904296875
0.0
0.002197265625
0.0
0.0179443359375
0.0003662109375
0.0106201171875
0.0
0.000732421875
-0.0003662109375
-0.0018310546875
0.0
-0.0069580078125
0.0
-0.0087890625
-0.0003662109375
0.01611328125
0.0
0.029296875
0.0003662109375
0.0157470703125
0.0003662109375
0.0135498046875
-0.0003662109375
0.0062255859375
0.0
0.0032958984375
0.0
0.0029296875
0.0
0.0040283203125
0.0003662109375
0.0076904296875
0.0
0.0040283203125
0.0
0.00439453125
0.0
0.0029296875
0.0
0.000732421875
0.0
0.002197265625
0.0
0.0025634765625
0.0
0.003662109375
0.0
0.003662109375
0.0
0.0047607421875
-0.0003662109375
0.003662109375
0.0
0.0047607421875
0.0
0.0040283203125
0.0
0.00732421875
0.0003662109375
0.01025390625
0.0
0.006591796875
0.0
0.0054931640625
0.0
-0.0010986328125
0.0
-0.0025634765625
0.0
0.0047607421875
0.0
0.01025390625
0.0
0.008056640625
0.0
0.0054931640625
-0.0003662109375
-0.0263671875
0.0
-0.017578125
0.0
0.0325927734375
0.0
0.0245361328125
0.0
0.0054931640625
0.0
0.0018310546875
0.0003662109375
0.0032958984375
0.0
0.00439453125
-0.0003662109375
0.0040283203125
0.0
-0.0025634765625
0.0
-0.010986328125
0.0
-0.0029296875
0.0003662109375
0.0076904296875
0.0
0.0091552734375
0.0
0.005859375
0.0
0.0003662109375
0.0
-0.0098876953125
0.0
-0.016845703125
0.0
0.02197265625
-0.0003662109375
0.0234375
0.0
0.003662109375
0.0
0.0106201171875
0.0
0.0040283203125
0.0
0.0018310546875
0.0
0.0010986328125
0.0003662109375
0.0040283203125
0.0
0.002197265625
0.0
0.0010986328125
0.0
0.0003662109375
0.0
0.003662109375
-0.0003662109375
0.0032958984375
0.0
0.0040283203125
0.0003662109375
0.00439453125
0.0
0.0025634765625
0.0
0.002197265625
0.0
0.000732421875
0.0
0.0029296875
0.0
0.0018310546875
0.0
0.0040283203125
0.0
0.0040283203125
0.0
0.0010986328125
0.0
0.000732421875
0.0
0.000732421875
-0.0003662109375
-0.0003662109375
0.0
-0.000732421875
0.0
0.00732421875
-0.0003662109375
0.0076904296875
0.0003662109375
0.0032958984375
0.0003662109375
0.0069580078125
0.0
-0.0384521484375
0.0
-0.00439453125
0.0
0.04833984375
0.0
0.0076904296875
-0.0003662109375
-0.0047607421875
-0.0003662109375
-0.002197265625
0.0003662109375
0.0
0.0003662109375
0.0003662109375
0.0
0.0003662109375
-0.0003662109375
-0.00732421875
-0.0003662109375
-0.0062255859375
0.0
0.0032958984375
0.0003662109375
0.0062255859375
0.0003662109375
0.0010986328125
-0.0003662109375
-0.0029296875
-0.0003662109375
-0.0106201171875
0.0
-0.013916015625
-0.0263671875
-0.0164794921875
-0.115386962890625
0.0186767578125
-0.048736572265625
0.0333251953125
0.115753173828125
0.0040283203125
0.075469970703125
0.0029296875
0.0
-0.0003662109375
0.0
-0.0018310546875
0.0
0.000732421875
0.0
0.0018310546875
0.0
0.0010986328125
0.0
0.0003662109375
0.0
0.0040283203125
-0.0003662109375
0.0003662109375
-0.0003662109375
-0.003662109375
0.0
-0.0025634765625
0.0
-0.002197265625
0.0
0.00146484375
0.0003662109375
0.0018310546875
0.0
0.0018310546875
-0.0003662109375
0.0
0.0
-0.0018310546875
0.0
-0.0040283203125
0.0
-0.0029296875
0.0
-0.0010986328125
0.0
-0.0003662109375
-0.0025634765625
0.0010986328125
-0.0113525390625
-0.000732421875
-0.0062255859375
0.0047607421875
0.0
0.0029296875
-0.005859375
-0.0018310546875
-0.006591796875
0.0040283203125
-0.031524658203125
-0.0435791015625
0.0179443359375
-0.0091552734375
0.046173095703125
0.0498046875
-0.046173095703125
0.010986328125
-0.059722900390625
-0.0029296875
-0.0208740234375
-0.0018310546875
-0.0179443359375
-0.0010986328125
-0.028564453125
0.0003662109375
-0.0384521484375
-0.0025634765625
-0.031494140625
-0.012451171875
0.0018310546875
-0.0098876953125
0.0391845703125
0.0018310546875
0.0355224609375
0.008056640625
0.0062255859375
0.003662109375
-0.0087890625
-0.0003662109375
-0.0113525390625
-0.009521484375
-0.0413818359375
-0.0164794921875
-0.07763671875
-0.019775390625
-0.128173828125
0.02490234375
-0.087890625
0.0303955078125
0.1776123046875
-0.00439453125
0.1915283203125
0.005859375
0.01611328125
0.0010986328125
0.010986328125
-0.0018310546875
0.019775390625
-0.0018310546875
0.0234375
0.0
0.0087890625
0.0018310546875
-0.0311279296875
-0.000732421875
-0.079833984375
0.000732421875
-0.0780029296875
-0.0003662109375
-0.0322265625
-0.0010986328125
-0.008056640625
0.0
-0.005859375
-0.0003662109375
-0.0054931640625
0.0
-0.00439453125
-0.0010986328125
-0.003662109375
0.00146484375
-0.005859375
0.000732421875
-0.0069580078125
0.0
-0.0062255859375
-0.0003662109375
-0.0069580078125
0.00146484375
-0.005859375
0.0025634765625
-0.00146484375
0.0018310546875
0.00146484375
0.00439453125
0.0010986328125
-0.005126953125
-0.0040283203125
-0.00732421875
-0.0032958984375
-0.0010986328125
-0.000732421875
0.0003662109375
-0.0076904296875
0.0
-0.0098876953125
0.0032958984375
-0.0296630859375
-0.049072265625
0.175079345703125
-0.01171875
0.0977783203125
0.0604248046875
-0.187530517578125
0.015380859375
-0.0999755859375
-0.0018310546875
-0.0208740234375
-0.000732421875
-0.0120849609375
0.0
-0.0179443359375
0.00146484375
-0.0281982421875
-0.0032958984375
-0.0281982421875
-0.006591796875
-0.00439453125
-0.01025390625
0.03515625
-0.0010986328125
0.044677734375
0.00732421875
0.0186767578125
0.00439453125
0.0018310546875
0.00146484375
-0.000732421875
-0.00732421875
-0.0260009765625
-0.0142822265625
-0.06591796875
-0.0238037109375
-0.098907470703125
0.032958984375
-0.100006103515625
0.0311279296875
0.143585205078125
-0.0120849609375
0.208404541015625
0.002197265625
0.031494140625
-0.0025634765625
0.0179443359375
-0.000732421875
0.0252685546875
-0.0003662109375
0.028564453125
0.002197265625
0.01611328125
-0.00146484375
-0.0172119140625
-0.0032958984375
-0.0714111328125
-0.0025634765625
-0.0838623046875
-0.00146484375
-0.0384521484375
-0.002197265625
-0.0069580078125
-0.0018310546875
-0.0025634765625
0.0018310546875
-0.0054931640625
0.000732421875
-0.0062255859375
0.0003662109375
-0.005126953125
0.0
-0.008056640625
-0.0003662109375
-0.0062255859375
-0.000732421875
-0.0032958984375
0.0003662109375
-0.0047607421875
0.0003662109375
-0.0029296875
-0.0010986328125
-0.0032958984375
0.00146484375
-0.0076904296875
-0.0003662109375
-0.009521484375
-0.0040283203125
-0.0098876953125
-0.0018310546875
0.000732421875
0.0032958984375
0.0062255859375
0.0025634765625
-0.0029296875
0.000732421875
-0.0040283203125
0.000732421875
-0.005859375
-0.0322265625
0.169921875
-0.00146484375
0.028564453125
0.034423828125
-0.1900634765625
0.003662109375
-0.050537109375
-0.0029296875
-0.01025390625
-0.0003662109375
-0.009521484375
0.002197265625
-0.020172119140625
0.0003662109375
-0.030059814453125
-0.0047607421875
-0.019775390625
-0.0150146484375
0.0146484375
-0.010986328125
0.043243408203125
0.000732421875
0.032989501953125
0.005126953125
0.00439453125
0.0040283203125
-0.005859375
-0.00146484375
-0.0047607421875
-0.01025390625
-0.047637939453125
-0.0150146484375
-0.090484619140625
-0.0146484375
-0.145751953125
0.0146484375
-0.0069580078125
0.0296630859375
0.230010986328125
0.0047607421875
0.147247314453125
-0.00146484375
0.0186767578125
-0.003662109375
0.0216064453125
-0.0062255859375
0.0263671875
-0.0018310546875
0.021240234375
-0.00146484375
0.0
-0.0010986328125
-0.0443115234375
-0.0025634765625
-0.0845947265625
-0.0010986328125
-0.068145751953125
-0.0010986328125
-0.022369384765625
-0.0025634765625
-0.0047607421875
-0.0003662109375
-0.0032958984375
-0.0003662109375
-0.0040283203125
0.000732421875
-0.00439453125
-0.0010986328125
-0.0018310546875
0.0
-0.00146484375
-0.0010986328125
-0.003662109375
-0.000732421875
-0.005126953125
0.0
-0.0047607421875
-0.0032958984375
-0.0040283203125
-0.000732421875
-0.0032958984375
-0.0010986328125
-0.0069580078125
-0.0010986328125
-0.0120849609375
-0.0069580078125
-0.00732421875
-0.0025634765625
0.0010986328125
0.0062255859375
0.00146484375
0.002197265625
-0.002197265625
0.0003662109375
-0.0029296875
-0.0062255859375
0.0084228515625
-0.034423828125
0.169586181640625
0.002197265625
0.008056640625
0.0380859375
-0.193023681640625
0.0047607421875
-0.049072265625
-0.0032958984375
-0.0128173828125
-0.0018310546875
-0.0128173828125
0.0
-0.0223388671875
0.0018310546875
-0.030029296875
-0.0032958984375
-0.0201416015625
-0.0120849609375
0.0157470703125
-0.0113525390625
0.0479736328125
0.0018310546875
0.0340576171875
0.0054931640625
0.0054931640625
0.000732421875
-0.002197265625
-0.00146484375
-0.0069580078125
-0.0142822265625
-0.04541015625
-0.018310546875
-0.0750732421875
-0.0135498046875
-0.131103515625
0.0157470703125
-0.0289306640625
0.0234375
0.2069091796875
0.00439453125
0.1527099609375
0.005859375
0.01904296875
0.0003662109375
0.0179443359375
0.0
0.026031494140625
-0.0010986328125
0.025299072265625
0.0003662109375
0.008056640625
-0.0003662109375
-0.038848876953125
-0.00146484375
-0.086090087890625
0.0
-0.0684814453125
-0.0018310546875
-0.0223388671875
0.0003662109375
-0.0062255859375
0.0010986328125
-0.005859375
0.0010986328125
-0.0047607421875
-0.000732421875
-0.0032958984375
0.0010986328125
-0.0040283203125
-0.0003662109375
-0.0040283203125
-0.00146484375
-0.003662109375
0.0
-0.0047607421875
-0.0025634765625
-0.005126953125
0.0003662109375
-0.005126953125
0.0010986328125
-0.0040283203125
0.0010986328125
-0.0018310546875
0.0018310546875
-0.0076904296875
-0.0025634765625
-0.01025390625
-0.0032958984375
0.0
0.0054931640625
0.0040283203125
0.0069580078125
-0.0010986328125
0.00146484375
-0.00439453125
0.0047607421875
-0.0238037109375
-0.04833984375
0.157867431640625
-0.01025390625
0.091552734375
0.052734375
-0.169952392578125
0.0087890625
-0.099609375
-0.00439453125
-0.0223388671875
-0.0047607421875
-0.010986328125
0.0
-0.018310546875
0.000732421875
-0.0296630859375
-0.000732421875
-0.0303955078125
-0.0076904296875
-0.0025634765625
-0.01025390625
0.037353515625
0.002197265625
0.0428466796875
0.009521484375
0.018310546875
0.0062255859375
0.0
0.0003662109375
-0.0032958984375
-0.006591796875
-0.029296875
-0.0135498046875
-0.0706787109375
-0.0216064453125
-0.106964111328125
0.0281982421875
-0.101470947265625
0.0322265625
0.149810791015625
-0.0040283203125
0.204010009765625
0.008056640625
0.02197265625
0.0032958984375
0.013916015625
-0.00146484375
0.021240234375
-0.0018310546875
0.0234375
0.0003662109375
0.0142822265625
-0.0003662109375
-0.0186767578125
-0.0018310546875
-0.07177734375
-0.0029296875
-0.079833984375
-0.00146484375
-0.03515625
-0.0025634765625
-0.0069580078125
-0.000732421875
-0.0029296875
-0.002197265625
-0.00146484375
0.002197265625
-0.0054931640625
0.003662109375
-0.00732421875
-0.002197265625
-0.0025634765625
-0.0018310546875
-0.002197265625
-0.0025634765625
-0.000732421875
-0.00146484375
0.000732421875
-0.002197265625
0.0003662109375
0.0003662109375
0.0003662109375
-0.000732421875
0.0018310546875
-0.0003662109375
-0.002197265625
-0.003662109375
-0.0040283203125
-0.0040283203125
0.005859375
0.0040283203125
0.010986328125
0.00146484375
0.0076904296875
-0.0003662109375
0.003662109375
0.00146484375
-0.017578125
-0.0472412109375
0.1787109375
-0.015380859375
0.10986328125
0.050537109375
-0.1783447265625
0.015380859375
-0.107666015625
-0.0040283203125
-0.019775390625
-0.0018310546875
-0.0076904296875
-0.0018310546875
-0.015380859375
0.000732421875
-0.0260009765625
-0.00146484375
-0.0274658203125
-0.0091552734375
-0.00146484375
-0.01318359375
0.0413818359375
-0.005126953125
0.0498046875
0.00732421875
0.0208740234375
0.0047607421875
-0.000732421875
-0.0003662109375
-0.000732421875
-0.01025390625
-0.018310546875
-0.015380859375
-0.0618896484375
-0.0238037109375
-0.097808837890625
0.0303955078125
-0.117218017578125
0.02783203125
0.123443603515625
-0.0157470703125
0.221588134765625
0.0069580078125
0.046875
0.0003662109375
0.0194091796875
-0.0010986328125
0.0245361328125
-0.0032958984375
0.028564453125
-0.00146484375
0.0201416015625
0.0003662109375
-0.005126953125
-0.002197265625
-0.05712890625
0.000732421875
-0.081298828125
0.000732421875
-0.0443115234375
0.002197265625
-0.009521484375
-0.0003662109375
-0.0010986328125
-0.0010986328125
-0.000732421875
0.0003662109375
-0.002197265625
0.0003662109375
-0.0029296875
0.0003662109375
-0.002197265625
-0.0010986328125
-0.00146484375
0.00146484375
-0.0018310546875
-0.00146484375
0.0
-0.002197265625
0.0010986328125
-0.006591796875
-0.00146484375
-0.0076904296875
-0.003662109375
-0.0010986328125
-0.00732421875
-0.0018310546875
-0.0091552734375
-0.005859375
-0.005859375
-0.0032958984375
0.0025634765625
0.0040283203125
0.00439453125
0.0018310546875
-0.00146484375
0.000732421875
-0.005126953125
0.0029296875
-0.0157470703125
-0.0380859375
0.1805419921875
-0.00439453125
0.032958984375
0.0435791015625
-0.2080078125
0.0069580078125
-0.0567626953125
-0.00439453125
-0.0142822265625
-0.0010986328125
-0.016845703125
0.00146484375
-0.027099609375
0.0003662109375
-0.032623291015625
-0.0047607421875
-0.024932861328125
-0.012451171875
0.0084228515625
-0.0091552734375
0.042510986328125
0.00146484375
0.033355712890625
0.0069580078125
0.0062255859375
0.003662109375
-0.0054931640625
0.0
-0.0076904296875
-0.012451171875
-0.042144775390625
-0.0179443359375
-0.071075439453125
-0.016845703125
-0.1201171875
0.01904296875
-0.0626220703125
0.029296875
0.180206298828125
0.0029296875
0.164093017578125
0.0062255859375
0.01171875
0.0
0.0128173828125
-0.0025634765625
0.0223388671875
-0.0025634765625
0.0230712890625
-0.0018310546875
0.005126953125
-0.0003662109375
-0.0391845703125
-0.002197265625
-0.085723876953125
-0.000732421875
-0.074005126953125
0.0
-0.0281982421875
-0.0003662109375
-0.009521484375
-0.0003662109375
-0.0087890625
0.0003662109375
-0.009521484375
0.0010986328125
-0.0087890625
0.0010986328125
-0.0076904296875
0.0025634765625
-0.0062255859375
0.00146484375
-0.0076904296875
0.00146484375
-0.0069580078125
0.000732421875
-0.005859375
0.0010986328125
-0.0076904296875
0.0010986328125
-0.006591796875
-0.0003662109375
-0.0047607421875
0.0018310546875
-0.0106201171875
-0.00439453125
-0.0135498046875
-0.003662109375
-0.0032958984375
0.0047607421875
0.000732421875
0.0062255859375
-0.00439453125
0.0032958984375
-0.00732421875
0.003662109375
-0.0205078125
-0.0439453125
0.139190673828125
-0.010986328125
0.09228515625
0.052734375
-0.157135009765625
0.015380859375
-0.1153564453125
0.0
-0.030029296875
0.0
-0.01904296875
0.0003662109375
-0.0245361328125
0.0
-0.03369140625
-0.0018310546875
-0.03515625
-0.00732421875
-0.01171875
-0.0128173828125
0.0267333984375
0.0003662109375
0.03515625
0.0084228515625
0.0106201171875
0.003662109375
-0.005859375
-0.0003662109375
-0.0084228515625
-0.0084228515625
-0.029296875
-0.0150146484375
-0.073974609375
-0.0223388671875
-0.104034423828125
0.03076171875
-0.125640869140625
0.0281982421875
0.102935791015625
-0.008056640625
0.200714111328125
0.008056640625
0.027099609375
0.0018310546875
0.00146484375
-0.0003662109375
0.00732421875
-0.0003662109375
0.010986328125
0.0029296875
0.0018310546875
0.0
-0.028564453125
-0.0025634765625
-0.08056640625
-0.0018310546875
-0.100372314453125
0.0029296875
-0.062286376953125
0.00146484375
-0.028564453125
-0.000732421875
-0.0208740234375
0.000732421875
-0.0179443359375
-0.000732421875
-0.018310546875
0.0003662109375
-0.0179443359375
-0.0003662109375
-0.0172119140625
0.0003662109375
-0.018310546875
-0.0003662109375
-0.018310546875
-0.0003662109375
-0.019775390625
-0.0003662109375
-0.01904296875
-0.0003662109375
-0.0194091796875
0.0018310546875
-0.021240234375
-0.0010986328125
-0.0238037109375
-0.0040283203125
-0.0260009765625
-0.0025634765625
-0.0157470703125
0.0047607421875
-0.0091552734375
0.0029296875
-0.0120849609375
-0.000732421875
-0.0120849609375
0.0018310546875
-0.034423828125
-0.049072265625
0.1651611328125
-0.01025390625
0.088623046875
0.0523681640625
-0.191162109375
0.0135498046875
-0.1058349609375
-0.0032958984375
-0.0267333984375
-0.003662109375
-0.0157470703125
-0.0018310546875
-0.0230712890625
-0.00146484375
-0.03369140625
-0.0003662109375
-0.031890869140625
-0.0069580078125
-0.003326416015625
-0.009521484375
0.035552978515625
-0.000732421875
0.041778564453125
0.006591796875
0.0164794921875
0.0032958984375
-0.0018310546875
-0.0003662109375
-0.00439453125
-0.008056640625
-0.02490234375
-0.0164794921875
-0.065948486328125
-0.0245361328125
-0.109893798828125
0.0274658203125
-0.1142578125
0.0296630859375
0.150177001953125
-0.0113525390625
0.224151611328125
0.005126953125
0.03515625
0.0
0.0201416015625
-0.003662109375
0.0274658203125
-0.00146484375
0.029296875
0.0
0.0186767578125
0.0
-0.0113525390625
-0.0032958984375
-0.0618896484375
-0.0003662109375
-0.07763671875
0.00146484375
-0.037353515625
-0.0003662109375
-0.00439453125
0.0
0.0018310546875
-0.0003662109375
0.002197265625
0.0010986328125
0.0025634765625
-0.000732421875
0.0029296875
-0.0003662109375
0.0040283203125
-0.0010986328125
0.003662109375
0.0
0.0029296875
0.000732421875
0.0029296875
-0.00146484375
0.003662109375
-0.0003662109375
0.005126953125
-0.000732421875
0.005126953125
0.0010986328125
0.00146484375
-0.0032958984375
-0.000732421875
-0.005859375
0.0010986328125
0.000732421875
0.0106201171875
0.00439453125
0.0142822265625
0.0025634765625
0.0054931640625
0.0
0.0018310546875
-0.0208740234375
0.059326171875
-0.0263671875
0.1446533203125
0.022705078125
-0.03662109375
0.0289306640625
-0.150146484375
-0.0003662109375
-0.0274658203125
-0.0025634765625
-0.0018310546875
-0.00146484375
-0.0062255859375
0.000732421875
-0.0172119140625
0.0
-0.0223388671875
-0.0040283203125
-0.006591796875
-0.010986328125
0.0296630859375
-0.005859375
0.054931640625
0.005126953125
0.0380859375
0.005859375
0.0128173828125
0.0025634765625
0.005859375
-0.003662109375
-0.0003662109375
-0.01318359375
-0.0406494140625
-0.01904296875
-0.06884765625
-0.002197265625
-0.120513916015625
0.0186767578125
0.0106201171875
0.0205078125
0.214630126953125
0.009521484375
0.12890625
0.0010986328125
0.025634765625
-0.000732421875
0.0274658203125
-0.0025634765625
0.03515625
0.00146484375
0.0318603515625
0.000732421875
0.01171875
-0.00146484375
-0.035888671875
-0.000732421875
-0.0772705078125
0.00146484375
-0.0545654296875
0.0010986328125
-0.0091552734375
-0.0010986328125
0.0047607421875
0.00146484375
0.003662109375
-0.0003662109375
0.0054931640625
0.0
0.005126953125
0.0
0.0047607421875
-0.0003662109375
0.0062255859375
0.0003662109375
0.005126953125
-0.000732421875
0.0054931640625
0.000732421875
0.005859375
0.0003662109375
0.0054931640625
0.0025634765625
0.003662109375
0.0029296875
-0.0018310546875
0.0018310546875
-0.003662109375
-0.002197265625
0.000732421875
0.000732421875
0.0135498046875
0.005126953125
0.01611328125
0.0
0.0087890625
0.000732421875
0.0062255859375
-0.017578125
0.0443115234375
-0.0186767578125
0.137725830078125
0.01904296875
-0.021240234375
0.0208740234375
-0.141387939453125
-0.0003662109375
-0.02783203125
-0.002197265625
-0.005126953125
0.0
-0.0084228515625
-0.0018310546875
-0.0194091796875
-0.0010986328125
-0.02490234375
-0.0047607421875
-0.0084228515625
-0.0106201171875
0.029296875
-0.002197265625
0.0523681640625
0.006591796875
0.03515625
0.005859375
0.0091552734375
0.00146484375
0.0032958984375
-0.0029296875
-0.002197265625
-0.012451171875
-0.047607421875
-0.0186767578125
-0.0838623046875
-0.0025634765625
-0.1395263671875
0.0146484375
0.0399169921875
0.0142822265625
0.2431640625
0.0582275390625
0.0677490234375
0.0574951171875
-0.0318603515625
-0.0032958984375
0.0274658203125
-0.0106201171875
0.043243408203125
-0.006591796875
0.033355712890625
-0.005859375
0.0084228515625
-0.006591796875
-0.037750244140625
-0.008056640625
-0.074737548828125
-0.0054931640625
-0.0498046875
-0.005859375
-0.0076904296875
-0.0040283203125
0.0032958984375
-0.003662109375
0.002197265625
-0.003662109375
0.0040283203125
-0.003662109375
0.00732421875
-0.0032958984375
0.0069580078125
0.0
0.0054931640625
-0.000732421875
0.0040283203125
-0.000732421875
0.003662109375
0.0
0.0040283203125
0.00439453125
-0.0010986328125
0.002197265625
-0.00146484375
-0.0003662109375
0.0003662109375
-0.0003662109375
-0.0054931640625
-0.0062255859375
-0.0054931640625
-0.0047607421875
0.0069580078125
0.002197265625
0.0106201171875
0.00439453125
0.0040283203125
0.0
0.0047607421875
0.0047607421875
-0.027099609375
-0.05126953125
0.204742431640625
-0.0150146484375
0.099273681640625
0.0556640625
-0.209869384765625
0.0113525390625
-0.083160400390625
-0.003662109375
-0.0076904296875
-0.0054931640625
0.00146484375
-0.002197265625
-0.00732421875
0.0029296875
-0.0238037109375
-0.00146484375
-0.024169921875
-0.01171875
0.008056640625
-0.013916015625
0.0479736328125
-0.003662109375
0.047607421875
0.003662109375
0.017578125
0.0047607421875
0.000732421875
0.0003662109375
-0.0003662109375
-0.0098876953125
-0.0201416015625
-0.0201416015625
-0.054931640625
-0.0303955078125
-0.088623046875
0.030029296875
-0.1087646484375
0.0296630859375
0.132232666015625
-0.01318359375
0.214996337890625
0.0040283203125
0.038818359375
0.0
0.0234375
-0.002197265625
0.0289306640625
-0.0029296875
0.0322265625
0.000732421875
0.0223388671875
-0.0010986328125
-0.005859375
-0.00146484375
-0.0574951171875
-0.00146484375
-0.0743408203125
-0.0003662109375
-0.0318603515625
-0.0010986328125
0.0003662109375
-0.00146484375
0.0062255859375
0.0
0.003662109375
0.0
0.0029296875
0.0
-0.0010986328125
-0.0010986328125
-0.0018310546875
-0.0003662109375
0.0018310546875
-0.002197265625
0.0029296875
-0.0018310546875
0.005126953125
-0.003662109375
0.005126953125
-0.0032958984375
0.002197265625
-0.0018310546875
0.0069580078125
-0.0029296875
0.008056640625
-0.000732421875
0.0018310546875
-0.003662109375
-0.0029296875
0.0010986328125
0.000732421875
0.00439453125
0.0029296875
0.002197265625
-0.0029296875
-0.0003662109375
0.00146484375
-0.0069580078125
0.010986328125
-0.0274658203125
0.158203125
0.002197265625
0.018310546875
0.029296875
-0.1640625
0.000732421875
-0.0347900390625
-0.0025634765625
-0.0025634765625
-0.00146484375
-0.0047607421875
-0.00146484375
-0.01611328125
-0.0010986328125
-0.024566650390625
-0.0047607421875
-0.013580322265625
-0.0091552734375
0.022735595703125
-0.0062255859375
0.051300048828125
0.005859375
0.038818359375
0.005126953125
0.01318359375
0.000732421875
0.00439453125
-0.002197265625
-0.00146484375
-0.01318359375
-0.046875
-0.01611328125
-0.080963134765625
-0.01318359375
-0.124176025390625
0.017578125
-0.0084228515625
0.02783203125
0.213165283203125
0.008056640625
0.146514892578125
0.003662109375
0.0205078125
-0.0003662109375
0.0234375
-0.0018310546875
0.03076171875
-0.0018310546875
0.0281982421875
0.0010986328125
0.0087890625
-0.00146484375
-0.0333251953125
-0.00146484375
-0.073974609375
0.0
-0.05859375
-0.000732421875
-0.013916015625
-0.00146484375
0.0010986328125
-0.0010986328125
0.0025634765625
0.0003662109375
0.0040283203125
-0.00146484375
0.0054931640625
0.0
0.005859375
0.0010986328125
0.0029296875
0.0025634765625
0.0
0.00146484375
0.0
-0.0010986328125
0.00439453125
-0.0010986328125
0.0040283203125
-0.00146484375
0.00146484375
0.0010986328125
0.0018310546875
-0.002197265625
-0.0003662109375
-0.006591796875
-0.000732421875
-0.003662109375
0.00732421875
0.0047607421875
0.0113525390625
0.0062255859375
0.005859375
0.0018310546875
0.0040283203125
0.0040283203125
-0.0252685546875
-0.050537109375
0.194122314453125
-0.0142822265625
0.110595703125
0.053466796875
-0.193756103515625
0.01318359375
-0.09521484375
-0.0040283203125
-0.0120849609375
-0.002197265625
-0.003662109375
0.00146484375
-0.0135498046875
0.0025634765625
-0.0263671875
0.00146484375
-0.0274658203125
-0.00732421875
0.0025634765625
-0.0106201171875
0.043212890625
-0.0010986328125
0.0479736328125
0.008056640625
0.0201416015625
0.0047607421875
0.0029296875
0.00146484375
0.000732421875
-0.0040283203125
-0.0157470703125
-0.015380859375
-0.0556640625
-0.0223388671875
-0.0926513671875
0.02783203125
-0.123443603515625
0.02490234375
0.1124267578125
-0.0106201171875
0.227081298828125
0.0062255859375
0.0552978515625
0.0003662109375
0.0216064453125
-0.0029296875
0.0274658203125
-0.0029296875
0.0325927734375
-0.000732421875
0.0216064453125
0.000732421875
-0.009521484375
-0.00146484375
-0.0604248046875
-0.0003662109375
-0.0823974609375
0.0003662109375
-0.0450439453125
-0.0003662109375
-0.0098876953125
-0.000732421875
-0.0018310546875
-0.0029296875
0.0003662109375
-0.000732421875
-0.000732421875
-0.0010986328125
-0.0010986328125
0.000732421875
-0.00146484375
-0.0003662109375
-0.0003662109375
-0.0018310546875
0.0
0.0010986328125
-0.0025634765625
0.000732421875
-0.00146484375
0.0032958984375
-0.005126953125
0.000732421875
-0.0113525390625
-0.00146484375
-0.0091552734375
-0.000732421875
-0.01171875
-0.0040283203125
-0.0135498046875
-0.01904296875
0.01318359375
-0.0164794921875
0.022705078125
-0.00146484375
0.005859375
-0.0040283203125
0.0032958984375
0.0032958984375
-0.0245361328125
-0.05126953125
0.187530517578125
-0.0120849609375
0.0992431640625
0.0567626953125
-0.187164306640625
0.010986328125
-0.085693359375
-0.002197265625
-0.017578125
-0.00146484375
-0.009521484375
0.0018310546875
-0.0146484375
0.0010986328125
-0.025634765625
0.0
-0.0263671875
-0.0062255859375
0.0003662109375
-0.0084228515625
0.0406494140625
0.0029296875
0.0457763671875
0.008056640625
0.0179443359375
0.0054931640625
0.0018310546875
0.002197265625
0.0010986328125
-0.005126953125
-0.0186767578125
-0.0150146484375
-0.0582275390625
-0.0223388671875
-0.0809326171875
0.029296875
-0.102569580078125
0.0296630859375
0.1116943359375
-0.0069580078125
0.206573486328125
0.0062255859375
0.0435791015625
0.0029296875
0.01904296875
0.000732421875
0.0260009765625
0.0003662109375
0.03076171875
0.00146484375
0.02197265625
0.0010986328125
-0.00732421875
-0.002197265625
-0.0556640625
-0.002197265625
-0.0743408203125
0.0025634765625
-0.03662109375
0.00146484375
-0.0025634765625
0.000732421875
0.0047607421875
0.0003662109375
0.0054931640625
0.0018310546875
0.002197265625
0.0003662109375
0.0029296875
0.0003662109375
0.00439453125
0.003662109375
0.0032958984375
0.009521484375
0.0087890625
0.0164794921875
0.0146484375
0.0128173828125
0.015380859375
0.0025634765625
0.0098876953125
-0.01025390625
-0.00146484375
-0.015380859375
-0.0150146484375
-0.019775390625
-0.0216064453125
-0.017578125
-0.0113525390625
-0.0032958984375
-0.00439453125
0.002197265625
-0.008056640625
0.0062255859375
-0.0069580078125
0.0069580078125
-0.0084228515625
-0.02783203125
0.1153564453125
-0.005859375
0.103271484375
0.0369873046875
-0.112060546875
0.0128173828125
-0.1153564453125
-0.0029296875
-0.0296630859375
-0.0025634765625
-0.0179443359375
0.0018310546875
-0.0252685546875
0.0054931640625
-0.038818359375
0.002197265625
-0.0435791015625
-0.0054931640625
-0.017578125
-0.010986328125
0.0252685546875
-0.0040283203125
0.03662109375
0.0084228515625
0.0069580078125
0.005859375
-0.0201416015625
0.0025634765625
-0.028564453125
-0.003662109375
-0.046875
-0.01171875
-0.095611572265625
-0.0194091796875
-0.132598876953125
0.01171875
-0.172119140625
0.0252685546875
0.0655517578125
0.005859375
0.21826171875
0.008056640625
0.046875
0.0018310546875
-0.0025634765625
-0.00146484375
0.0054931640625
-0.0018310546875
0.01025390625
0.000732421875
0.0040283203125
0.0
-0.01904296875
-0.00146484375
-0.06591796875
0.002197265625
-0.0941162109375
0.0025634765625
-0.0618896484375
-0.0003662109375
-0.01611328125
-0.0025634765625
-0.003662109375
-0.0010986328125
-0.006591796875
0.0003662109375
-0.0076904296875
0.000732421875
-0.0087890625
0.0010986328125
-0.0087890625
-0.00146484375
-0.005859375
0.0
-0.0054931640625
0.0
-0.005126953125
0.0
-0.0047607421875
0.0003662109375
-0.005859375
-0.0003662109375
-0.005859375
-0.0032958984375
-0.005859375
-0.005126953125
-0.0054931640625
-0.0076904296875
-0.0018310546875
-0.003662109375
0.0054931640625
0.005859375
0.0062255859375
0.0010986328125
0.0018310546875
0.0
-0.00146484375
-0.005126953125
0.0084228515625
-0.032958984375
0.1651611328125
0.0040283203125
0.0084228515625
0.0347900390625
-0.186767578125
0.003662109375
-0.047607421875
-0.0040283203125
-0.01025390625
-0.000732421875
-0.0106201171875
0.0
-0.0208740234375
0.0003662109375
-0.03076171875
-0.0029296875
-0.019775390625
-0.010986328125
0.0234375
-0.006591796875
0.05712890625
0.0025634765625
0.0421142578125
0.0076904296875
0.0128173828125
0.0040283203125
0.0018310546875
0.0
0.0025634765625
-0.01171875
-0.0303955078125
-0.015380859375
-0.05859375
-0.0128173828125
-0.107330322265625
0.0267333984375
-0.065582275390625
0.03955078125
0.183135986328125
0.01025390625
0.186065673828125
0.0201416015625
0.035888671875
0.0615234375
0.0699462890625
0.069580078125
0.116485595703125
-0.017578125
0.073272705078125
-0.066650390625
-0.0062255859375
-0.0406494140625
-0.050933837890625
-0.029296875
-0.091217041015625
-0.05419921875
-0.10546875
-0.08642578125
-0.0875244140625
-0.0377197265625
-0.0531005859375
0.0172119140625
-0.0098876953125
0.0179443359375
0.005859375
0.0194091796875
0.002197265625
0.0146484375
0.0018310546875
0.012451171875
0.0040283203125
0.0062255859375
0.0106201171875
0.006591796875
0.0113525390625
0.008056640625
0.008056640625
0.0076904296875
0.005859375
0.017578125
0.005126953125
0.0362548828125
0.017578125
0.0281982421875
0.015380859375
-0.0025634765625
-0.00439453125
-0.005859375
-0.003662109375
-0.000732421875
0.005126953125
0.00146484375
0.006591796875
0.0040283203125
0.0120849609375
0.005859375
-0.00146484375
-0.041748046875
0.165924072265625
-0.01611328125
0.1014404296875
0.0322265625
-0.154205322265625
-0.0113525390625
-0.0985107421875
-0.0234375
-0.028564453125
-0.0157470703125
-0.0164794921875
-0.008056640625
-0.0179443359375
-0.0098876953125
-0.0322265625
-0.030029296875
-0.04541015625
-0.0179443359375
-0.0172119140625
0.00732421875
0.0380859375
0.0146484375
0.0494384765625
0.018310546875
0.02197265625
0.0135498046875
0.0047607421875
0.008056640625
0.0047607421875
-0.0018310546875
-0.0164794921875
-0.0084228515625
-0.064453125
-0.0186767578125
-0.0948486328125
0.0245361328125
-0.105133056640625
0.0274658203125
0.135498046875
-0.0040283203125
0.224884033203125
0.006591796875
0.041748046875
0.0025634765625
0.0172119140625
0.000732421875
0.0267333984375
-0.002197265625
0.0325927734375
-0.000732421875
0.0223388671875
-0.0029296875
-0.0062255859375
-0.00146484375
-0.0556640625
0.0010986328125
-0.0787353515625
0.0029296875
-0.0450439453125
0.0010986328125
-0.0087890625
-0.002197265625
0.002197265625
-0.002197265625
0.005126953125
-0.003662109375
0.00732421875
0.0
0.002197265625
0.0
0.000732421875
-0.0003662109375
0.0040283203125
-0.0010986328125
0.0025634765625
-0.0010986328125
0.002197265625
0.000732421875
0.002197265625
0.00146484375
0.0010986328125
0.0010986328125
0.00146484375
-0.00146484375
0.0
0.0
-0.0029296875
-0.002197265625
-0.0010986328125
0.00146484375
0.00732421875
0.0062255859375
0.0040283203125
0.0047607421875
-0.00439453125
0.0018310546875
-0.00146484375
-0.0142822265625
0.0362548828125
-0.024169921875
0.147979736328125
0.0172119140625
-0.0234375
0.0355224609375
-0.172882080078125
0.006591796875
-0.043212890625
0.0029296875
-0.012451171875
0.0054931640625
-0.0179443359375
0.0069580078125
-0.03076171875
0.0076904296875
-0.037353515625
0.00146484375
-0.0201416015625
-0.003662109375
0.018310546875
0.0
0.046142578125
0.0128173828125
0.0296630859375
0.01318359375
0.006591796875
0.003662109375
0.0069580078125
-0.002197265625
0.0032958984375
-0.0135498046875
-0.0399169921875
-0.0179443359375
-0.07177734375
-0.0194091796875
-0.128204345703125
0.013916015625
-0.037353515625
0.0260009765625
0.210601806640625
0.00146484375
0.1702880859375
-0.0003662109375
0.02783203125
-0.0040283203125
0.0245361328125
-0.0047607421875
0.03076171875
-0.0040283203125
0.02783203125
-0.0003662109375
0.0076904296875
-0.0010986328125
-0.030029296875
0.000732421875
-0.0750732421875
0.0029296875
-0.068115234375
0.002197265625
-0.0208740234375
0.0010986328125
0.000732421875
-0.00146484375
0.0032958984375
0.0010986328125
0.0029296875
-0.000732421875
0.0029296875
-0.0018310546875
0.0018310546875
-0.000732421875
0.002197265625
-0.002197265625
0.0040283203125
-0.0025634765625
0.0062255859375
-0.00146484375
0.006591796875
-0.0003662109375
0.0047607421875
-0.0003662109375
0.002197265625
0.0010986328125
0.0010986328125
-0.00146484375
0.000732421875
-0.0025634765625
-0.0010986328125
-0.0054931640625
-0.0003662109375
-0.00146484375
0.006591796875
0.005859375
0.00732421875
0.0029296875
0.0032958984375
0.0010986328125
0.0029296875
-0.0069580078125
0.005126953125
-0.0340576171875
0.164459228515625
0.0018310546875
0.0245361328125
0.0340576171875
-0.172149658203125
0.0010986328125
-0.038818359375
-0.005859375
-0.0040283203125
-0.0018310546875
-0.006591796875
-0.0010986328125
-0.0164794921875
-0.002197265625
-0.0230712890625
-0.005859375
-0.012451171875
-0.0106201171875
0.0208740234375
-0.006591796875
0.0509033203125
0.0018310546875
0.0406494140625
0.003662109375
0.0128173828125
-0.000732421875
0.003662109375
-0.0040283203125
0.0025634765625
-0.015380859375
-0.0347900390625
-0.01904296875
-0.0640869140625
-0.0164794921875
-0.1036376953125
0.0186767578125
-0.04541015625
0.0274658203125
0.1787109375
0.00146484375
0.1651611328125
0.005126953125
0.024169921875
0.0010986328125
0.021270751953125
-0.000732421875
0.026763916015625
-0.0025634765625
0.0274658203125
-0.000732421875
0.0113525390625
-0.00146484375
-0.0274658203125
-0.0032958984375
-0.069976806640625
0.0003662109375
-0.063385009765625
0.0
-0.02197265625
-0.000732421875
-0.00146484375
-0.0032958984375
0.003662109375
-0.0010986328125
0.0018310546875
0.000732421875
0.0003662109375
-0.0003662109375
0.0025634765625
0.0010986328125
0.000732421875
0.0032958984375
-0.00439453125
0.0062255859375
-0.00732421875
0.00439453125
-0.0054931640625
0.0032958984375
-0.002197265625
0.002197265625
-0.00146484375
0.0018310546875
-0.0025634765625
0.0018310546875
-0.0091552734375
-0.003662109375
-0.01318359375
-0.0047607421875
-0.0040283203125
0.000732421875
0.0084228515625
0.0025634765625
0.0069580078125
-0.0003662109375
0.0003662109375
-0.0003662109375
-0.00439453125
-0.03369140625
0.109161376953125
-0.0172119140625
0.116851806640625
0.031494140625
-0.099639892578125
0.0146484375
-0.125640869140625
0.0003662109375
-0.02783203125
-0.000732421875
-0.010986328125
-0.005126953125
-0.0091552734375
-0.01025390625
-0.013916015625
-0.006591796875
-0.022705078125
-0.0084228515625
-0.0032958984375
-0.012451171875
0.0362548828125
-0.0025634765625
0.05126953125
0.005859375
0.028564453125
0.005126953125
0.0047607421875
0.0003662109375
0.000732421875
-0.0040283203125
-0.01025390625
-0.0120849609375
-0.0556640625
-0.019775390625
-0.088623046875
0.005126953125
-0.14794921875
0.018310546875
0.052734375
0.0098876953125
0.243896484375
0.008056640625
0.0977783203125
0.0025634765625
0.019439697265625
-0.00146484375
0.022369384765625
-0.0029296875
0.02783203125
-0.000732421875
0.0230712890625
0.00146484375
-0.00146484375
0.0003662109375
-0.046173095703125
-0.0010986328125
-0.078399658203125
0.003662109375
-0.0560302734375
0.0003662109375
-0.0128173828125
0.0
0.000732421875
-0.0003662109375
0.0
-0.0018310546875
0.00146484375
0.0025634765625
0.0003662109375
0.0003662109375
0.0
0.0
0.0003662109375
-0.000732421875
0.000732421875
0.0
0.000732421875
-0.0003662109375
0.0010986328125
-0.00146484375
0.0032958984375
0.0003662109375
0.0029296875
0.00146484375
0.0010986328125
0.0032958984375
-0.0062255859375
-0.0032958984375
-0.00732421875
-0.0040283203125
0.0029296875
0.0032958984375
0.01025390625
0.00439453125
0.0076904296875
0.0018310546875
0.0032958984375
0.0025634765625
-0.003662109375
-0.03515625
0.119781494140625
-0.0157470703125
0.116851806640625
0.0413818359375
-0.111724853515625
0.0205078125
-0.126007080078125
0.0003662109375
-0.0260009765625
-0.0025634765625
-0.006591796875
-0.0025634765625
-0.0091552734375
-0.0003662109375
-0.0186767578125
0.0
-0.0234375
-0.00732421875
-0.0029296875
-0.0172119140625
0.0391845703125
-0.0076904296875
0.0545654296875
0.003662109375
0.0296630859375
0.0040283203125
0.006591796875
0.000732421875
0.0018310546875
-0.0062255859375
-0.005859375
-0.0146484375
-0.046142578125
-0.0201416015625
-0.0673828125
0.01171875
-0.11572265625
0.0230712890625
0.03369140625
0.00732421875
0.204376220703125
0.0054931640625
0.095611572265625
0.0025634765625
0.0208740234375
-0.000732421875
0.0230712890625
-0.0029296875
0.029296875
0.0003662109375
0.0260009765625
-0.0003662109375
0.0054931640625
-0.0010986328125
-0.0413818359375
-0.0018310546875
-0.077667236328125
0.00146484375
-0.052398681640625
0.002197265625
-0.0113525390625
-0.000732421875
0.00146484375
0.0
0.0018310546875
0.0003662109375
-0.0003662109375
0.0
0.000732421875
-0.000732421875
0.002197265625
0.0003662109375
0.00146484375
0.000732421875
0.0003662109375
-0.0003662109375
0.000732421875
0.0003662109375
-0.0010986328125
0.0
-0.00146484375
0.0003662109375
-0.000732421875
0.0
-0.0003662109375
0.0025634765625
-0.0040283203125
-0.0025634765625
-0.0084228515625
-0.0054931640625
0.0029296875
0.00146484375
0.0098876953125
0.0032958984375
0.003662109375
0.0025634765625
0.00146484375
0.0029296875
-0.0216064453125
-0.041748046875
0.156402587890625
-0.0084228515625
0.092315673828125
0.0479736328125
-0.162261962890625
0.0091552734375
-0.088653564453125
-0.00439453125
-0.0172119140625
-0.0032958984375
-0.0087890625
-0.0003662109375
-0.01611328125
0.0
-0.027099609375
-0.003662109375
-0.0263671875
-0.0054931640625
0.0
-0.0091552734375
0.0384521484375
-0.0003662109375
0.0450439453125
0.0069580078125
0.0201416015625
0.0025634765625
0.000732421875
-0.0003662109375
-0.0003662109375
-0.008056640625
-0.0216064453125
-0.01318359375
-0.0673828125
-0.02197265625
-0.1058349609375
0.0252685546875
-0.1138916015625
0.0263671875
0.142822265625
-0.0087890625
0.228546142578125
0.0062255859375
0.041778564453125
0.00146484375
0.018310546875
-0.00146484375
0.0238037109375
-0.003662109375
0.02783203125
0.0010986328125
0.018310546875
0.0
-0.01025390625
-0.002197265625
-0.05859375
-0.000732421875
-0.079132080078125
0.0010986328125
-0.042510986328125
0.000732421875
-0.00732421875
-0.000732421875
0.0010986328125
0.0003662109375
0.000732421875
-0.000732421875
0.0003662109375
0.000732421875
0.0010986328125
-0.0003662109375
0.0003662109375
-0.0003662109375
-0.0003662109375
0.000732421875
-0.0003662109375
-0.00146484375
0.0
-0.000732421875
0.00146484375
-0.0010986328125
0.00146484375
0.0003662109375
0.0003662109375
0.0010986328125
0.0
0.000732421875
-0.005126953125
-0.00439453125
-0.006591796875
-0.0040283203125
0.005859375
0.00439453125
0.009521484375
0.003662109375
0.0018310546875
0.000732421875
0.000732421875
0.005859375
-0.029296875
-0.046142578125
0.203643798828125
-0.0135498046875
0.087188720703125
0.052734375
-0.212066650390625
0.0128173828125
-0.076202392578125
-0.0029296875
-0.0142822265625
-0.00146484375
-0.0098876953125
0.0
-0.01611328125
0.00146484375
-0.0245361328125
-0.0032958984375
-0.0234375
-0.009521484375
0.0047607421875
-0.0091552734375
0.0450439453125
0.0018310546875
0.0450439453125
0.008056640625
0.0150146484375
0.0032958984375
0.0018310546875
0.002197265625
0.00146484375
-0.00732421875
-0.0205078125
-0.015380859375
-0.0567626953125
-0.0234375
-0.0897216796875
0.0340576171875
-0.107666015625
0.029296875
0.1270751953125
-0.0150146484375
0.209136962890625
0.0069580078125
0.038848876953125
0.0018310546875
0.0201416015625
0.0
0.0252685546875
-0.0018310546875
0.0311279296875
0.000732421875
0.0238037109375
0.0
-0.0069580078125
-0.0018310546875
-0.05859375
0.0003662109375
-0.078033447265625
0.0
-0.039215087890625
-0.0003662109375
-0.005126953125
0.0
0.0
0.000732421875
0.0010986328125
0.0
0.00146484375
0.0
0.0003662109375
0.0
0.00146484375
-0.000732421875
0.002197265625
0.0003662109375
0.00146484375
0.0
0.002197265625
-0.0003662109375
0.003662109375
-0.00146484375
0.0032958984375
0.00146484375
0.00146484375
0.00146484375
0.0003662109375
-0.000732421875
-0.003662109375
-0.00439453125
-0.0084228515625
-0.0032958984375
0.0029296875
0.005126953125
0.009521484375
0.0032958984375
0.00146484375
0.000732421875
0.001495361328125
0.002197265625
-0.01904296875
-0.0355224609375
0.173583984375
-0.0054931640625
0.061553955078125
0.0399169921875
-0.182769775390625
0.005859375
-0.056427001953125
-0.0040283203125
-0.009521484375
-0.0018310546875
-0.00732421875
-0.000732421875
-0.0157470703125
0.0010986328125
-0.029296875
-0.0010986328125
-0.0274658203125
-0.0091552734375
0.009521484375
-0.0084228515625
0.0479736328125
0.002197265625
0.04248046875
0.0069580078125
0.013946533203125
0.0025634765625
0.001129150390625
-0.0010986328125
0.0
-0.0098876953125
-0.036651611328125
-0.0135498046875
-0.076202392578125
-0.0194091796875
-0.1197509765625
0.022705078125
-0.0750732421875
0.0325927734375
0.178009033203125
-0.0010986328125
0.187530517578125
0.0054931640625
0.019775390625
-0.0018310546875
0.0179443359375
-0.0047607421875
0.028564453125
-0.003662109375
0.0311279296875
-0.0010986328125
0.0150146484375
0.0
-0.022705078125
-0.0010986328125
-0.0684814453125
0.0025634765625
-0.073272705078125
0.0018310546875
-0.030059814453125
-0.000732421875
-0.0018310546875
-0.00146484375
0.00146484375
-0.00146484375
0.0018310546875
0.0
-0.0010986328125
-0.0003662109375
-0.0025634765625
-0.0003662109375
-0.000732421875
0.0
-0.0003662109375
-0.00146484375
-0.0003662109375
-0.0025634765625
0.0
-0.0010986328125
0.000732421875
-0.00146484375
0.000732421875
-0.000732421875
0.000732421875
-0.000732421875
-0.0029296875
-0.00146484375
-0.0084228515625
-0.0032958984375
-0.0040283203125
-0.000732421875
0.0087890625
0.0054931640625
0.009521484375
0.0029296875
0.0025634765625
0.00146484375
-0.0010986328125
-0.0201416015625
0.058624267578125
-0.0234375
0.133331298828125
0.0230712890625
-0.04833984375
0.0267333984375
-0.149444580078125
0.0010986328125
-0.033355712890625
-0.002197265625
-0.008056640625
0.000732421875
-0.0113525390625
0.000732421875
-0.0205078125
0.0003662109375
-0.0274658203125
-0.00439453125
-0.01171875
-0.01318359375
0.0267333984375
-0.006591796875
0.04833984375
0.0040283203125
0.0303955078125
0.005126953125
0.00732421875
0.0025634765625
0.0003662109375
-0.0003662109375
-0.0062255859375
-0.012451171875
-0.041015625
-0.0179443359375
-0.0662841796875
-0.0069580078125
-0.12451171875
0.017578125
-0.017578125
0.0208740234375
0.207305908203125
0.006591796875
0.143218994140625
0.0047607421875
0.021240234375
0.0
0.0194091796875
-0.0010986328125
0.0252685546875
0.0003662109375
0.027099609375
0.0010986328125
0.01025390625
-0.0003662109375
-0.032958984375
-0.002197265625
-0.0750732421875
0.000732421875
-0.063385009765625
0.000732421875
-0.019073486328125
0.0003662109375
-0.0003662109375
0.000732421875
-0.0010986328125
0.0003662109375
0.0
-0.0003662109375
0.0010986328125
-0.0003662109375
0.0
0.0010986328125
0.000732421875
-0.0003662109375
0.0018310546875
0.0003662109375
0.000732421875
0.0
0.0003662109375
0.0003662109375
0.002197265625
0.0003662109375
0.003662109375
-0.000732421875
0.002197265625
0.0010986328125
-0.0040283203125
-0.0047607421875
-0.00732421875
-0.00439453125
0.0054931640625
0.0040283203125
0.013214111328125
0.0047607421875
0.005523681640625
0.00146484375
0.0029296875
0.0040283203125
-0.021270751953125
-0.044677734375
0.158203125
-0.0106201171875
0.092681884765625
0.050537109375
-0.1611328125
0.0091552734375
-0.084259033203125
-0.0018310546875
-0.015045166015625
-0.0025634765625
-0.005126953125
-0.0025634765625
-0.010986328125
0.00146484375
-0.02490234375
-0.0025634765625
-0.0263671875
-0.0084228515625
0.0010986328125
-0.0106201171875
0.0406494140625
0.0003662109375
0.046539306640625
0.00732421875
0.019805908203125
0.0040283203125
0.0003662109375
0.00146484375
-0.0003662109375
-0.006591796875
-0.022735595703125
-0.0146484375
-0.063385009765625
-0.02490234375
-0.098876953125
0.027099609375
-0.1083984375
0.028564453125
0.143585205078125
-0.0087890625
0.218292236328125
0.005126953125
0.0362548828125
-0.0010986328125
0.02197265625
-0.0018310546875
0.027099609375
-0.0025634765625
0.029296875
0.0
0.017578125
0.0
-0.01171875
0.0
-0.060791015625
0.0032958984375
-0.0831298828125
0.0032958984375
-0.0439453125
-0.000732421875
-0.0054931640625
-0.0018310546875
0.0018310546875
-0.0010986328125
0.002197265625
-0.0003662109375
0.0018310546875
0.00146484375
-0.0003662109375
0.0010986328125
-0.0018310546875
0.0010986328125
0.0003662109375
-0.00146484375
0.0025634765625
-0.00146484375
0.0025634765625
0.000732421875
0.00146484375
-0.0018310546875
0.0025634765625
-0.0010986328125
0.0018310546875
0.0010986328125
-0.005126953125
-0.0029296875
-0.00732421875
-0.00439453125
0.00146484375
0.0029296875
0.0076904296875
0.0025634765625
0.005126953125
0.0003662109375
0.0025634765625
0.00146484375
-0.0087890625
-0.0439453125
0.1431884765625
-0.01318359375
0.106201171875
0.0472412109375
-0.1417236328125
0.0179443359375
-0.114654541015625
-0.002197265625
-0.024566650390625
-0.0040283203125
-0.0084228515625
-0.00146484375
-0.0120849609375
0.000732421875
-0.0223388671875
0.000732421875
-0.0263671875
-0.0062255859375
-0.005126953125
-0.0106201171875
0.0362548828125
-0.003662109375
0.050933837890625
0.0062255859375
0.024932861328125
0.0047607421875
0.0029296875
0.0
0.000732421875
-0.006591796875
-0.0098876953125
-0.016845703125
-0.049835205078125
-0.0194091796875
-0.076202392578125
0.0157470703125
-0.1270751953125
0.0223388671875
0.05712890625
0.0032958984375
0.216094970703125
0.008056640625
0.078765869140625
0.0010986328125
0.0186767578125
-0.0018310546875
0.0234375
-0.0010986328125
0.028564453125
0.000732421875
0.024169921875
0.002197265625
0.002197265625
-0.0010986328125
-0.0450439453125
-0.00146484375
-0.0780029296875
0.0
-0.05126953125
-0.000732421875
-0.01025390625
0.0003662109375
-0.0003662109375
0.0
0.000732421875
-0.0003662109375
0.00146484375
0.0
0.0
0.000732421875
-0.0010986328125
0.0
-0.0003662109375
0.0
0.0003662109375
0.000732421875
0.0
0.0
-0.000732421875
0.0003662109375
-0.0003662109375
0.0003662109375
0.00146484375
0.0
-0.000732421875
-0.000732421875
-0.0040283203125
-0.0029296875
-0.0018310546875
0.0003662109375
0.0054931640625
0.005126953125
0.005859375
0.0018310546875
0.002197265625
-0.000732421875
0.0018310546875
-0.0025634765625
0.0
-0.0311279296875
0.1585693359375
0.0025634765625
0.0245361328125
0.03515625
-0.1724853515625
0.002197265625
-0.043212890625
-0.0025634765625
-0.011016845703125
-0.0032958984375
-0.011016845703125
-0.002197265625
-0.017578125
-0.0003662109375
-0.0274658203125
-0.0032958984375
-0.0179443359375
-0.0098876953125
0.016845703125
-0.006591796875
0.047637939453125
0.0032958984375
0.037384033203125
0.0062255859375
0.009521484375
0.0025634765625
0.0
-0.0018310546875
-0.00146484375
-0.010986328125
-0.038116455078125
-0.016845703125
-0.070709228515625
-0.01611328125
-0.1241455078125
0.017578125
-0.0450439453125
0.03076171875
0.198883056640625
0.005126953125
0.168487548828125
0.00146484375
0.0230712890625
-0.002197265625
0.0216064453125
-0.0047607421875
0.0296630859375
0.0
0.02783203125
0.0025634765625
0.01025390625
0.0
-0.0311279296875
-0.0029296875
-0.076904296875
0.0
-0.0670166015625
0.00146484375
-0.02197265625
-0.0010986328125
-0.0018310546875
0.0018310546875
-0.0003662109375
-0.000732421875
0.000732421875
-0.0003662109375
0.0010986328125
0.0
0.00146484375
0.0
0.000732421875
-0.0003662109375
0.0
-0.002197265625
0.0
-0.000732421875
-0.000732421875
-0.0003662109375
0.0
0.0029296875
-0.000732421875
0.0
-0.000732421875
0.0
-0.005859375
-0.0040283203125
-0.006591796875
-0.005126953125
0.00439453125
0.003662109375
0.0076904296875
0.002197265625
0.0029296875
0.0010986328125
0.0003662109375
0.0062255859375
-0.030426025390625
-0.050537109375
0.1893310546875
-0.01318359375
0.095611572265625
0.0560302734375
-0.1959228515625
0.0106201171875
-0.08349609375
-0.003662109375
-0.0150146484375
0.0
-0.009918212890625
0.0010986328125
-0.016510009765625
0.0018310546875
-0.0223388671875
-0.003662109375
-0.019775390625
-0.01025390625
0.003662109375
-0.0106201171875
0.041778564453125
0.000732421875
0.046173095703125
0.0091552734375
0.01611328125
0.00439453125
-0.00146484375
0.0018310546875
-0.0029296875
-0.0076904296875
-0.018310546875
-0.01611328125
-0.051666259765625
-0.0245361328125
-0.078765869140625
0.034423828125
-0.112060546875
0.0318603515625
0.108428955078125
-0.0135498046875
0.209503173828125
0.006591796875
0.041015625
0.000732421875
0.0172119140625
-0.0003662109375
0.0252685546875
-0.0018310546875
0.03369140625
0.000732421875
0.02490234375
0.002197265625
-0.008056640625
-0.0025634765625
-0.0582275390625
-0.0018310546875
-0.0791015625
0.00146484375
-0.04248046875
0.0025634765625
-0.009521484375
0.0003662109375
-0.002197265625
0.0003662109375
0.000732421875
-0.0003662109375
0.0010986328125
-0.0018310546875
0.002197265625
-0.0003662109375
0.0010986328125
0.0
0.0003662109375
0.0003662109375
0.0003662109375
-0.00146484375
0.00146484375
-0.00146484375
0.00146484375
-0.000732421875
0.00146484375
0.0003662109375
0.0018310546875
0.0
-0.0003662109375
-0.0018310546875
-0.0029296875
-0.0040283203125
-0.0029296875
0.0003662109375
0.006591796875
0.0047607421875
0.0087890625
0.0018310546875
0.0025634765625
0.0010986328125
0.0018310546875
-0.008056640625
0.0128173828125
-0.025634765625
0.1494140625
0.006591796875
0.0098876953125
0.02783203125
-0.1614990234375
0.0025634765625
-0.0380859375
-0.0025634765625
-0.0084228515625
-0.00146484375
-0.01025390625
-0.000732421875
-0.020904541015625
-0.0003662109375
-0.029693603515625
-0.005126953125
-0.01611328125
-0.01025390625
0.0186767578125
-0.005126953125
0.046905517578125
0.0047607421875
0.034454345703125
0.0087890625
0.0069580078125
0.00146484375
0.0
-0.0040283203125
-0.0018310546875
-0.0098876953125
-0.041412353515625
-0.0157470703125
-0.073638916015625
-0.01318359375
-0.1314697265625
0.0179443359375
-0.0216064453125
0.025634765625
0.212432861328125
0.0029296875
0.150543212890625
0.0010986328125
0.0238037109375
-0.0025634765625
0.0230712890625
-0.0029296875
0.0289306640625
-0.0010986328125
0.0267333984375
0.0003662109375
0.0087890625
-0.0003662109375
-0.0333251953125
-0.00146484375
-0.0772705078125
0.0029296875
-0.062255859375
0.0029296875
-0.017578125
0.00146484375
-0.0018310546875
0.0010986328125
0.0010986328125
0.0003662109375
0.0018310546875
-0.0003662109375
0.0
0.0
0.0003662109375
0.0029296875
0.0
0.002197265625
-0.0003662109375
0.0018310546875
-0.00146484375
0.0018310546875
-0.0029296875
0.002197265625
-0.0032958984375
0.00146484375
-0.00146484375
0.0003662109375
-0.0003662109375
0.005859375
-0.0084228515625
0.0025634765625
-0.01025390625
-0.005126953125
-0.000732421875
-0.0003662109375
0.009521484375
0.00439453125
0.01025390625
0.00146484375
0.003662109375
-0.000732421875
0.0003662109375
-0.02197265625
0.05859375
-0.0230712890625
0.132568359375
0.024169921875
-0.0465087890625
0.0260009765625
-0.14794921875
0.0
-0.032958984375
0.0018310546875
-0.0120849609375
0.00439453125
-0.017974853515625
0.0025634765625
-0.026763916015625
0.002197265625
-0.0333251953125
-0.00439453125
-0.015380859375
-0.015380859375
0.0274658203125
-0.0084228515625
0.049835205078125
0.003662109375
0.030792236328125
0.0040283203125
0.0076904296875
0.000732421875
0.00146484375
-0.0029296875
-0.00439453125
-0.013916015625
-0.042510986328125
-0.0216064453125
-0.064849853515625
-0.0054931640625
-0.11572265625
0.01904296875
-0.0113525390625
0.0186767578125
0.198150634765625
0.005859375
0.133697509765625
0.003662109375
0.0230712890625
-0.0003662109375
0.025634765625
-0.0029296875
0.0311279296875
-0.00146484375
0.03076171875
-0.000732421875
0.012451171875
-0.000732421875
-0.03369140625
-0.00146484375
-0.076904296875
0.00146484375
-0.062255859375
0.0
-0.016845703125
-0.002197265625
0.00146484375
-0.00146484375
0.0018310546875
-0.002197265625
0.0
-0.00146484375
0.0010986328125
-0.0018310546875
0.00146484375
-0.000732421875
0.0
-0.000732421875
0.0003662109375
-0.000732421875
0.00146484375
-0.0003662109375
0.0010986328125
-0.000732421875
0.000732421875
0.000732421875
-0.000732421875
-0.000732421875
0.0
-0.0010986328125
0.0
0.0003662109375
-0.00439453125
-0.0018310546875
-0.0069580078125
-0.003662109375
0.0069580078125
0.0025634765625
0.0113525390625
0.00439453125
0.0018310546875
-0.000732421875
0.0003662109375
0.0040283203125
-0.0289306640625
-0.0406494140625
0.1827392578125
-0.008056640625
0.076904296875
0.044677734375
-0.191162109375
0.005126953125
-0.0655517578125
-0.00439453125
-0.0113525390625
-0.002197265625
-0.009521484375
-0.0010986328125
-0.017578125
-0.0010986328125
-0.027496337890625
-0.0003662109375
-0.026763916015625
-0.0087890625
0.0047607421875
-0.01025390625
0.043975830078125
0.00146484375
0.044342041015625
0.0069580078125
0.0146484375
0.002197265625
-0.0003662109375
-0.0018310546875
0.00146484375
-0.0076904296875
-0.0311279296875
-0.01611328125
-0.070343017578125
-0.0238037109375
-0.108428955078125
0.02490234375
-0.08203125
0.0303955078125
0.165924072265625
-0.008056640625
0.200347900390625
0.0029296875
0.0325927734375
0.00146484375
0.0205078125
-0.000732421875
0.0245361328125
0.0
0.0263671875
-0.0003662109375
0.0157470703125
0.000732421875
-0.0172119140625
-0.0003662109375
-0.065185546875
-0.0003662109375
-0.07470703125
0.0025634765625
-0.035888671875
0.0010986328125
-0.0054931640625
0.0018310546875
0.0003662109375
-0.000732421875
0.0
0.0
-0.00146484375
-0.0003662109375
-0.00146484375
-0.00146484375
0.0010986328125
0.0010986328125
-0.0003662109375
0.0
0.0
0.00146484375
0.0
-0.0010986328125
0.0003662109375
0.0
0.00146484375
-0.000732421875
0.0
-0.00146484375
0.000732421875
0.0003662109375
0.0010986328125
0.0
-0.00439453125
-0.0029296875
-0.00732421875
-0.00439453125
0.0040283203125
0.003662109375
0.0098876953125
0.003662109375
0.0047607421875
0.0025634765625
0.0003662109375
0.0062255859375
-0.0296630859375
-0.0457763671875
0.1922607421875
-0.012451171875
0.0985107421875
0.050537109375
-0.1981201171875
0.0113525390625
-0.087158203125
-0.003662109375
-0.0150146484375
-0.000732421875
-0.008056640625
-0.0003662109375
-0.0150146484375
0.002197265625
-0.027130126953125
-0.0003662109375
-0.024932861328125
-0.0087890625
0.0029296875
-0.009521484375
0.040313720703125
0.0003662109375
0.046905517578125
0.0087890625
0.0201416015625
0.0040283203125
0.003662109375
0.0010986328125
0.0018310546875
-0.008056640625
-0.019775390625
-0.0157470703125
-0.059722900390625
-0.0223388671875
-0.090118408203125
0.0318603515625
-0.10546875
0.031494140625
0.122344970703125
-0.01904296875
0.206207275390625
0.0018310546875
0.041748046875
0.0047607421875
0.0245361328125
-0.0003662109375
0.0260009765625
-0.002197265625
0.030029296875
-0.0010986328125
0.0245361328125
0.0010986328125
-0.006591796875
-0.0003662109375
-0.0596923828125
0.000732421875
-0.08056640625
0.0010986328125
-0.0435791015625
0.000732421875
-0.008056640625
-0.0003662109375
-0.0003662109375
0.0
0.0
0.0003662109375
0.0003662109375
-0.0003662109375
0.0
0.000732421875
-0.0003662109375
-0.0010986328125
0.0003662109375
-0.0003662109375
0.0
0.0
0.000732421875
0.000732421875
0.0003662109375
-0.00146484375
0.0003662109375
-0.0010986328125
0.0
0.0010986328125
0.0003662109375
-0.0010986328125
0.0010986328125
0.0003662109375
-0.00146484375
0.0
-0.0054931640625
-0.003662109375
-0.005859375
-0.0029296875
0.0062255859375
0.00439453125
0.0087890625
0.0047607421875
0.0003662109375
0.0003662109375
0.0
0.003662109375
-0.0164794921875
-0.0380859375
0.1904296875
-0.006591796875
0.056396484375
0.041748046875
-0.2017822265625
0.0062255859375
-0.056396484375
-0.0025634765625
-0.0087890625
-0.00146484375
-0.0084228515625
0.000732421875
-0.01611328125
0.0003662109375
-0.026031494140625
-0.0025634765625
-0.021636962890625
-0.01025390625
0.008819580078125
-0.0091552734375
0.043243408203125
0.0010986328125
0.041015625
0.0069580078125
0.01318359375
0.0040283203125
0.0003662109375
0.0
0.0003662109375
-0.01025390625
-0.028564453125
-0.0186767578125
-0.060455322265625
-0.02197265625
-0.093048095703125
0.0303955078125
-0.0823974609375
0.032958984375
0.145416259765625
-0.010986328125
0.185699462890625
0.003662109375
0.0289306640625
0.0029296875
0.0205078125
-0.00146484375
0.025634765625
-0.0010986328125
0.03076171875
-0.0003662109375
0.0201416015625
0.0003662109375
-0.016845703125
-0.0010986328125
-0.0692138671875
-0.0003662109375
-0.0765380859375
0.0010986328125
-0.03076171875
-0.0010986328125
-0.0010986328125
0.0003662109375
0.002197265625
0.000732421875
0.0
0.0003662109375
-0.002197265625
-0.0003662109375
-0.000732421875
-0.0010986328125
0.000732421875
0.0
-0.0010986328125
0.0
-0.00146484375
0.0018310546875
-0.0025634765625
0.0010986328125
-0.0025634765625
0.000732421875
-0.00146484375
-0.0003662109375
0.000732421875
-0.000732421875
0.0025634765625
-0.000732421875
0.002197265625
-0.000732421875
-0.0018310546875
-0.00439453125
-0.005126953125
-0.005859375
0.0069580078125
0.0029296875
0.0135498046875
0.003662109375
0.0054931640625
0.000732421875
0.0018310546875
0.0025634765625
-0.021240234375
-0.0450439453125
0.1724853515625
-0.0098876953125
0.097412109375
0.0509033203125
-0.179443359375
0.01171875
-0.0955810546875
-0.0040283203125
-0.016845703125
-0.0018310546875
-0.0076904296875
0.0003662109375
-0.0146484375
0.0025634765625
-0.027130126953125
0.0003662109375
-0.028228759765625
-0.005859375
-0.002197265625
-0.0120849609375
0.038482666015625
-0.005126953125
0.048736572265625
0.008056640625
0.021240234375
0.005859375
0.0
0.00146484375
-0.000732421875
-0.0076904296875
-0.0172119140625
-0.0157470703125
-0.056793212890625
-0.0234375
-0.088287353515625
0.0296630859375
-0.114990234375
0.0303955078125
0.112823486328125
-0.016845703125
0.210235595703125
0.002197265625
0.046875
0.003662109375
0.0260009765625
0.000732421875
0.024169921875
-0.00146484375
0.029296875
-0.00146484375
0.0245361328125
-0.000732421875
-0.0040283203125
-0.00146484375
-0.0552978515625
0.002197265625
-0.0816650390625
0.0010986328125
-0.044677734375
-0.000732421875
-0.0062255859375
-0.0003662109375
0.0018310546875
0.0
0.0010986328125
0.000732421875
-0.000732421875
0.0003662109375
-0.00146484375
-0.0003662109375
0.0
-0.0018310546875
0.0025634765625
-0.0003662109375
0.0010986328125
0.0
-0.0010986328125
-0.000732421875
-0.0003662109375
-0.00146484375
0.0010986328125
0.0
0.0010986328125
0.00146484375
0.0018310546875
0.0
0.0010986328125
0.0
-0.0029296875
-0.002197265625
-0.005859375
-0.0047607421875
-0.00146484375
-0.0003662109375
0.0069580078125
0.005126953125
0.00732421875
0.0025634765625
0.0025634765625
0.0003662109375
0.0010986328125
-0.0040283203125
0.0069580078125
-0.02783203125
0.1571044921875
0.005859375
0.01318359375
0.031494140625
-0.17138671875
0.0018310546875
-0.0384521484375
-0.002197265625
-0.0091552734375
-0.000732421875
-0.01171875
0.0010986328125
-0.0208740234375
-0.0003662109375
-0.028228759765625
-0.0032958984375
-0.018341064453125
-0.0098876953125
0.014678955078125
-0.0062255859375
0.045806884765625
0.005126953125
0.03515625
0.0076904296875
0.008056640625
0.0029296875
0.0003662109375
-0.00146484375
-0.000732421875
-0.0120849609375
-0.0391845703125
-0.0186767578125
-0.069976806640625
-0.01611328125
-0.109161376953125
0.0205078125
-0.0347900390625
0.0296630859375
0.179473876953125
0.0025634765625
0.154937744140625
0.00439453125
0.0289306640625
0.00146484375
0.0234375
-0.002197265625
0.02783203125
-0.000732421875
0.0289306640625
0.0003662109375
0.0142822265625
0.000732421875
-0.027099609375
0.0
-0.07470703125
0.0003662109375
-0.0677490234375
0.0
-0.0208740234375
-0.0003662109375
0.0
0.00146484375
-0.000732421875
0.0
-0.000732421875
0.0003662109375
0.000732421875
-0.000732421875
0.00146484375
0.0003662109375
0.0010986328125
0.000732421875
0.0003662109375
-0.000732421875
-0.00146484375
0.0
-0.0003662109375
-0.00146484375
0.00146484375
0.0
0.0003662109375
-0.000732421875
0.0010986328125
-0.000732421875
0.0010986328125
0.0
-0.002197265625
-0.0010986328125
-0.00439453125
-0.0040283203125
-0.0029296875
-0.002197265625
0.0054931640625
0.002197265625
0.009521484375
0.0
0.0040283203125
0.0
0.0010986328125
-0.0018310546875
-0.002197265625
-0.025634765625
0.1669921875
0.00146484375
0.0263671875
0.03076171875
-0.182373046875
0.0025634765625
-0.04248046875
-0.005126953125
-0.006591796875
-0.000732421875
-0.0106201171875
0.0018310546875
-0.021240234375
0.0025634765625
-0.0303955078125
-0.0032958984375
-0.020538330078125
-0.0113525390625
0.01318359375
-0.0087890625
0.046539306640625
0.0018310546875
0.0413818359375
0.006591796875
0.012451171875
0.00146484375
-0.0003662109375
-0.0010986328125
-0.000732421875
-0.0106201171875
-0.0380859375
-0.0150146484375
-0.075469970703125
-0.0179443359375
-0.130401611328125
0.0208740234375
-0.046875
0.0289306640625
0.198883056640625
-0.00146484375
0.171417236328125
0.0054931640625
0.02783203125
-0.0003662109375
0.0216064453125
-0.0029296875
0.0281982421875
-0.0029296875
0.0274658203125
0.0
0.012451171875
0.00146484375
-0.0234375
-0.000732421875
-0.0728759765625
0.00146484375
-0.0732421875
0.0003662109375
-0.0263671875
-0.000732421875
-0.0018310546875
-0.0003662109375
0.00146484375
0.000732421875
0.0003662109375
0.0
0.0
-0.0010986328125
0.0010986328125
0.0
0.0003662109375
-0.002197265625
0.000732421875
0.0
0.0
-0.000732421875
0.000732421875
-0.00146484375
0.00146484375
-0.000732421875
0.0018310546875
-0.000732421875
-0.0003662109375
0.0003662109375
-0.00146484375
-0.000732421875
-0.0003662109375
0.0
-0.00439453125
-0.0032958984375
-0.005859375
-0.00146484375
0.0047607421875
0.003662109375
0.0091552734375
0.00439453125
0.0018310546875
0.0025634765625
0.0
0.0032958984375
-0.0172119140625
-0.038818359375
0.1951904296875
-0.0084228515625
0.0574951171875
0.0439453125
-0.2098388671875
0.00732421875
-0.0611572265625
-0.002197265625
-0.0113525390625
-0.0010986328125
-0.0091552734375
-0.000732421875
-0.016845703125
0.0003662109375
-0.0274658203125
-0.002197265625
-0.021270751953125
-0.008056640625
0.008056640625
-0.01025390625
0.043609619140625
0.0018310546875
0.0428466796875
0.0069580078125
0.01611328125
0.0047607421875
0.002197265625
0.0010986328125
-0.0010986328125
-0.01025390625
-0.027099609375
-0.0157470703125
-0.057525634765625
-0.022705078125
-0.095977783203125
0.03369140625
-0.0948486328125
0.0311279296875
0.149078369140625
-0.0146484375
0.198883056640625
0.0054931640625
0.029296875
0.003662109375
0.0201416015625
-0.00146484375
0.0252685546875
-0.003662109375
0.0303955078125
0.0
0.02197265625
-0.000732421875
-0.0106201171875
0.000732421875
-0.06591796875
0.0032958984375
-0.079833984375
0.0018310546875
-0.0355224609375
0.000732421875
-0.003662109375
-0.000732421875
0.0025634765625
-0.0003662109375
0.00146484375
0.0003662109375
0.000732421875
0.000732421875
0.000732421875
0.0
0.000732421875
0.000732421875
0.0003662109375
0.0
0.000732421875
-0.0010986328125
0.000732421875
0.0
0.0
-0.0010986328125
0.0018310546875
-0.0003662109375
0.00146484375
-0.0003662109375
0.0
-0.000732421875
-0.0010986328125
0.0
-0.0047607421875
-0.0032958984375
-0.0054931640625
-0.0029296875
0.005859375
0.0032958984375
0.008056640625
0.0032958984375
0.00146484375
0.0
0.0018310546875
0.003662109375
-0.0201416015625
-0.0355224609375
0.1820068359375
-0.005859375
0.0611572265625
0.0391845703125
-0.19189453125
0.0054931640625
-0.0574951171875
-0.0025634765625
-0.0106201171875
-0.002197265625
-0.0087890625
0.0
-0.0164794921875
-0.000732421875
-0.0263671875
-0.0010986328125
-0.0245361328125
-0.0076904296875
0.005859375
-0.008056640625
0.0428466796875
0.0040283203125
0.040283203125
0.0069580078125
0.013916015625
0.0029296875
0.0010986328125
0.0
-0.000732421875
-0.0087890625
-0.03369140625
-0.015380859375
-0.069976806640625
-0.02197265625
-0.105499267578125
0.02490234375
-0.07177734375
0.031494140625
0.165191650390625
-0.006591796875
0.188995361328125
0.003662109375
0.03076171875
0.00146484375
0.0201416015625
-0.002197265625
0.02490234375
-0.0003662109375
0.02783203125
0.000732421875
0.016845703125
-0.0010986328125
-0.0164794921875
-0.0029296875
-0.065185546875
-0.0003662109375
-0.075439453125
0.002197265625
-0.0340576171875
-0.0010986328125
-0.003662109375
-0.0010986328125
0.0010986328125
-0.0018310546875
0.0025634765625
-0.0003662109375
0.0010986328125
-0.0003662109375
0.0
-0.000732421875
0.0003662109375
0.0003662109375
0.0
-0.0010986328125
-0.0003662109375
0.0003662109375
0.0
-0.000732421875
0.0
-0.0003662109375
0.0003662109375
0.0
0.00146484375
0.00146484375
0.0
0.0003662109375
-0.0047607421875
-0.0032958984375
-0.0076904296875
-0.0032958984375
-0.0010986328125
0.0029296875
0.0062255859375
0.0054931640625
0.0054931640625
0.0003662109375
0.002197265625
-0.0003662109375
-0.003662109375
-0.0340576171875
0.11279296875
-0.013916015625
0.1124267578125
0.035888671875
-0.1080322265625
0.015380859375
-0.1248779296875
-0.000732421875
-0.0267333984375
-0.0018310546875
-0.009521484375
0.0
-0.0128173828125
0.00146484375
-0.02490234375
0.0003662109375
-0.028564453125
-0.0062255859375
-0.008056640625
-0.012451171875
0.029296875
-0.0047607421875
0.04833984375
0.0054931640625
0.0281982421875
0.006591796875
0.005859375
0.0003662109375
0.0010986328125
-0.0029296875
-0.0106201171875
-0.0120849609375
-0.05126953125
-0.0205078125
-0.075836181640625
0.005859375
-0.130401611328125
0.0234375
0.035552978515625
0.008056640625
0.214630126953125
0.0018310546875
0.0999755859375
0.003662109375
0.0263671875
0.0
0.0234375
-0.002197265625
0.0289306640625
-0.0018310546875
0.0274658203125
-0.000732421875
0.0062255859375
0.0
-0.0406494140625
0.0
-0.0794677734375
0.0010986328125
-0.057861328125
-0.000732421875
-0.0146484375
0.0
-0.000732421875
0.0
0.0010986328125
-0.0010986328125
0.000732421875
-0.00146484375
0.0010986328125
0.0
0.0010986328125
0.00146484375
-0.0003662109375
0.0
-0.000732421875
0.0
-0.000732421875
-0.0025634765625
0.0
0.0
0.000732421875
0.0
0.0
-0.00146484375
0.0
0.0025634765625
0.0
-0.0010986328125
-0.003662109375
-0.005859375
-0.0062255859375
-0.0047607421875
0.002197265625
0.003662109375
0.0087890625
0.0047607421875
0.005126953125
0.0025634765625
0.00146484375
0.0025634765625
-0.0106201171875
-0.0428466796875
0.140625
-0.0128173828125
0.1021728515625
0.04541015625
-0.140625
0.015380859375
-0.1083984375
-0.00146484375
-0.02197265625
-0.00146484375
-0.008056640625
0.0
-0.01171875
0.0018310546875
-0.0234375
0.000732421875
-0.0267333984375
-0.005859375
-0.0062255859375
-0.0113525390625
0.0318603515625
-0.00439453125
0.0487060546875
0.0076904296875
0.0245361328125
0.005126953125
0.0032958984375
0.00146484375
0.002197265625
-0.005126953125
-0.0106201171875
-0.016845703125
-0.0523681640625
-0.0205078125
-0.072540283203125
0.016845703125
-0.117218017578125
0.02490234375
0.052032470703125
0.0
0.208038330078125
0.006591796875
0.08056640625
0.003662109375
0.0186767578125
-0.0010986328125
0.0223388671875
-0.002197265625
0.0289306640625
-0.0003662109375
0.025634765625
0.000732421875
0.0040283203125
-0.0018310546875
-0.0450439453125
-0.0010986328125
-0.081298828125
0.0003662109375
-0.05419921875
0.0003662109375
-0.0113525390625
0.000732421875
0.0003662109375
0.000732421875
0.0
0.000732421875
-0.000732421875
0.0
-0.0003662109375
0.0003662109375
0.0010986328125
-0.0003662109375
0.00146484375
0.000732421875
-0.000732421875
0.00146484375
-0.002197265625
-0.0003662109375
0.0003662109375
0.0
0.0018310546875
0.0003662109375
0.000732421875
0.0
0.000732421875
0.0003662109375
-0.0025634765625
0.0
-0.0047607421875
-0.003662109375
-0.0029296875
0.0003662109375
0.006591796875
0.0040283203125
0.009521484375
0.00146484375
0.002197265625
0.000732421875
0.0010986328125
-0.016845703125
0.0399169921875
-0.013916015625
0.1278076171875
0.0179443359375
-0.02490234375
0.017578125
-0.139892578125
-0.0003662109375
-0.03076171875
-0.0032958984375
-0.00732421875
0.0
-0.010986328125
0.0003662109375
-0.021240234375
-0.000732421875
-0.0267333984375
-0.0047607421875
-0.0135498046875
-0.0091552734375
0.0208740234375
-0.005126953125
0.0465087890625
0.0054931640625
0.0318603515625
0.00732421875
0.0062255859375
0.00146484375
0.0
-0.0029296875
-0.0040283203125
-0.013916015625
-0.046142578125
-0.017578125
-0.080596923828125
-0.006591796875
-0.137725830078125
0.017578125
0.008056640625
0.01904296875
0.223052978515625
0.005859375
0.129669189453125
0.00439453125
0.0223388671875
-0.0010986328125
0.0208740234375
-0.002197265625
0.02783203125
-0.0025634765625
0.0260009765625
-0.0003662109375
0.0069580078125
-0.0010986328125
-0.0347900390625
-0.0010986328125
-0.0772705078125
0.0003662109375
-0.0626220703125
-0.000732421875
-0.0179443359375
-0.0003662109375
-0.00146484375
-0.000732421875
0.0003662109375
0.0
0.000732421875
-0.0003662109375
0.0003662109375
0.0
0.0
-0.0003662109375
0.0
-0.000732421875
-0.0010986328125
0.0003662109375
-0.00146484375
-0.0003662109375
0.0003662109375
0.0
0.000732421875
0.0
0.0
-0.0003662109375
-0.0003662109375
0.0
-0.00146484375
0.0
-0.0054931640625
-0.003662109375
-0.0069580078125
-0.0029296875
0.00439453125
0.005126953125
0.008056640625
0.003662109375
0.00146484375
0.0018310546875
-0.0003662109375
0.005126953125
-0.0179443359375
-0.0377197265625
0.1904296875
-0.0076904296875
0.0574951171875
0.043212890625
-0.2039794921875
0.008056640625
-0.0604248046875
-0.003662109375
-0.0106201171875
-0.0010986328125
-0.0098876953125
-0.0003662109375
-0.01611328125
0.0018310546875
-0.02490234375
-0.0003662109375
-0.022705078125
-0.009521484375
0.0087890625
-0.01025390625
0.04541015625
0.000732421875
0.0413818359375
0.0069580078125
0.0150146484375
0.0025634765625
0.0025634765625
0.0018310546875
0.0003662109375
-0.006591796875
-0.02490234375
-0.0146484375
-0.05712890625
-0.02197265625
-0.095245361328125
0.0325927734375
-0.101470947265625
0.031494140625
0.142120361328125
-0.0142822265625
0.201812744140625
0.005859375
0.0296630859375
0.0010986328125
0.019775390625
-0.002197265625
0.0260009765625
-0.0025634765625
0.0296630859375
-0.0010986328125
0.0194091796875
0.0010986328125
-0.0128173828125
-0.000732421875
-0.0626220703125
0.0003662109375
-0.07763671875
-0.0003662109375
-0.0377197265625
-0.0003662109375
-0.0062255859375
-0.000732421875
-0.000732421875
-0.0003662109375
0.0003662109375
-0.0003662109375
0.0003662109375
-0.0018310546875
0.0
0.0
0.000732421875
-0.0010986328125
0.000732421875
-0.0003662109375
0.0010986328125
-0.0010986328125
0.00146484375
-0.0003662109375
0.0003662109375
0.0
-0.000732421875
-0.0003662109375
0.0
0.000732421875
0.000732421875
0.0
-0.00439453125
-0.0047607421875
-0.005859375
-0.005126953125
0.00439453125
0.005126953125
0.0076904296875
0.0054931640625
0.0029296875
0.0018310546875
0.0010986328125
0.0025634765625
-0.0146484375
-0.044677734375
0.1435546875
-0.0084228515625
0.094482421875
0.0487060546875
-0.1435546875
0.0106201171875
-0.0933837890625
-0.0029296875
-0.016845703125
-0.0018310546875
-0.0076904296875
-0.0010986328125
-0.01171875
-0.0003662109375
-0.021240234375
-0.0018310546875
-0.0238037109375
-0.005859375
-0.0029296875
-0.008056640625
0.0333251953125
0.0
0.044677734375
0.0091552734375
0.0205078125
0.0032958984375
0.0025634765625
0.0003662109375
0.00146484375
-0.0062255859375
-0.0146484375
-0.015380859375
-0.057861328125
-0.0216064453125
-0.080963134765625
0.02197265625
-0.110260009765625
0.0260009765625
0.093780517578125
-0.0047607421875
0.211334228515625
0.0062255859375
0.056396484375
0.0003662109375
0.0201416015625
-0.0018310546875
0.0234375
-0.0018310546875
0.0281982421875
-0.000732421875
0.0234375
0.0003662109375
-0.000732421875
-0.002197265625
-0.0479736328125
-0.000732421875
-0.076171875
0.0003662109375
-0.046875
0.0003662109375
-0.0106201171875
0.0003662109375
-0.00146484375
-0.00146484375
0.00146484375
-0.0003662109375
0.0032958984375
-0.0010986328125
0.0025634765625
-0.0003662109375
0.00146484375
0.0003662109375
0.0
0.000732421875
-0.00146484375
0.0
-0.0003662109375
-0.000732421875
0.00146484375
0.0
0.0010986328125
-0.0010986328125
0.0
-0.0003662109375
-0.0010986328125
-0.0003662109375
-0.005126953125
-0.00439453125
-0.0062255859375
-0.00439453125
0.0054931640625
0.0040283203125
0.01025390625
0.0047607421875
0.0025634765625
0.0010986328125
0.0003662109375
0.00439453125
-0.02783203125
-0.0487060546875
0.185302734375
-0.0120849609375
0.095947265625
0.0516357421875
-0.189697265625
0.01171875
-0.0853271484375
-0.0029296875
-0.01611328125
-0.002197265625
-0.0098876953125
0.0003662109375
-0.0164794921875
0.0
-0.024169921875
-0.000732421875
-0.02490234375
-0.00732421875
0.0
-0.0106201171875
0.0384521484375
-0.0010986328125
0.0450439453125
0.008056640625
0.0186767578125
0.0032958984375
0.00146484375
0.0
0.000732421875
-0.005859375
-0.015380859375
-0.01611328125
-0.0567626953125
-0.022705078125
-0.082427978515625
0.0260009765625
-0.119415283203125
0.0267333984375
0.092681884765625
-0.0076904296875
0.215728759765625
0.006591796875
0.0556640625
0.0003662109375
0.019775390625
-0.002197265625
0.024169921875
-0.0010986328125
0.0274658203125
-0.0003662109375
0.0216064453125
0.0
-0.003662109375
-0.000732421875
-0.052001953125
-0.000732421875
-0.0794677734375
0.00146484375
-0.0501708984375
0.0010986328125
-0.0106201171875
0.0003662109375
0.0010986328125
-0.000732421875
0.0018310546875
0.0010986328125
0.000732421875
0.0010986328125
0.0
0.00146484375
0.0
0.000732421875
0.0
0.0
-0.0010986328125
0.0003662109375
0.0
-0.00146484375
0.002197265625
-0.0003662109375
0.0010986328125
-0.0010986328125
0.0003662109375
0.0003662109375
-0.0010986328125
-0.0018310546875
-0.0032958984375
-0.006591796875
-0.00146484375
-0.002197265625
0.0069580078125
0.003662109375
0.00732421875
0.003662109375
0.000732421875
-0.0003662109375
0.0003662109375
0.0025634765625
-0.0150146484375
-0.03955078125
0.1856689453125
-0.006591796875
0.0501708984375
0.04541015625
-0.199951171875
0.0069580078125
-0.05419921875
-0.0032958984375
-0.0091552734375
-0.0025634765625
-0.01025390625
0.0010986328125
-0.016845703125
0.0018310546875
-0.02490234375
-0.002197265625
-0.0201416015625
-0.0098876953125
0.0091552734375
-0.0087890625
0.043212890625
0.0025634765625
0.03955078125
0.00732421875
0.0128173828125
0.003662109375
0.0018310546875
-0.00146484375
0.0003662109375
-0.009521484375
-0.022705078125
-0.0179443359375
-0.052734375
-0.02490234375
-0.084625244140625
0.0318603515625
-0.105133056640625
0.03515625
0.130035400390625
-0.008056640625
0.198150634765625
0.005859375
0.025634765625
0.002197265625
0.0164794921875
-0.0029296875
0.0230712890625
-0.00146484375
0.02783203125
0.0010986328125
0.021240234375
-0.000732421875
-0.008056640625
-0.0029296875
-0.0596923828125
-0.00146484375
-0.0772705078125
0.0010986328125
-0.0391845703125
-0.0010986328125
-0.0054931640625
0.0003662109375
-0.0010986328125
0.0
-0.000732421875
0.0
0.00146484375
0.0
0.0010986328125
-0.00146484375
0.000732421875
-0.000732421875
0.00146484375
-0.0003662109375
0.000732421875
0.0003662109375
0.0010986328125
-0.000732421875
0.002197265625
0.0
0.00146484375
-0.000732421875
0.000732421875
-0.0003662109375
-0.0025634765625
0.0
-0.005126953125
-0.005126953125
-0.0025634765625
0.0
0.0069580078125
0.0047607421875
0.0098876953125
0.002197265625
0.003662109375
0.0
-0.002197265625
-0.021240234375
0.0457763671875
-0.0120849609375
0.1153564453125
0.024169921875
-0.0391845703125
0.0157470703125
-0.1292724609375
-0.002197265625
-0.0281982421875
-0.00146484375
-0.0076904296875
-0.0010986328125
-0.0106201171875
-0.000732421875
-0.0205078125
-0.0018310546875
-0.0267333984375
-0.005859375
-0.0120849609375
-0.010986328125
0.025634765625
-0.00439453125
0.0472412109375
0.006591796875
0.03076171875
0.00439453125
0.0084228515625
0.000732421875
0.002197265625
-0.0040283203125
-0.0029296875
-0.0120849609375
-0.047607421875
-0.017578125
-0.076568603515625
-0.0113525390625
-0.126739501953125
0.017578125
-0.0010986328125
0.0252685546875
0.212432861328125
0.0087890625
0.132598876953125
0.002197265625
0.0205078125
-0.0010986328125
0.0208740234375
-0.0025634765625
0.02783203125
0.0208740234375
0.0047607421875
0.025634765625
-0.01611328125
0.0
-0.0340576171875
-0.00439453125
-0.0732421875
-0.0018310546875
-0.06298828125
-0.000732421875
-0.017578125
-0.003662109375
0.002197265625
-0.0025634765625
0.0029296875
-0.0010986328125
0.00146484375
-0.002197265625
0.000732421875
-0.0018310546875
0.0025634765625
-0.0018310546875
0.002197265625
-0.000732421875
0.000732421875
-0.00146484375
0.0003662109375
-0.0010986328125
-0.0003662109375
-0.00146484375
0.0010986328125
-0.0010986328125
0.0
-0.000732421875
-0.0003662109375
-0.002197265625
-0.0018310546875
-0.002197265625
-0.0062255859375
-0.0040283203125
-0.0025634765625
0.0010986328125
0.005859375
0.0032958984375
0.005126953125
0.0018310546875
0.000732421875
0.00146484375
-0.002197265625
-0.03076171875
0.09228515625
-0.015380859375
0.1153564453125
0.03369140625
-0.0831298828125
0.0201416015625
-0.12744140625
-0.0018310546875
-0.0267333984375
-0.0029296875
-0.00732421875
-0.0010986328125
-0.0113525390625
0.0010986328125
-0.0201416015625
0.0003662109375
-0.0252685546875
-0.006591796875
-0.008056640625
-0.010986328125
0.028564453125
-0.00439453125
0.047607421875
0.005859375
0.027099609375
0.00439453125
0.0054931640625
0.0018310546875
0.0018310546875
-0.002197265625
-0.0040283203125
-0.010986328125
-0.0428466796875
-0.015380859375
-0.067779541015625
-0.009521484375
-0.121246337890625
0.018310546875
-0.024169921875
0.0230712890625
0.197052001953125
0.006591796875
0.140655517578125
0.002197265625
0.0201416015625
-0.0018310546875
0.0216064453125
-0.0032958984375
0.028564453125
-0.002197265625
0.0274658203125
0.00146484375
0.0106201171875
-0.0018310546875
-0.0281982421875
-0.00146484375
-0.0750732421875
0.0
-0.0662841796875
0.0
-0.01904296875
0.0
-0.000732421875
-0.000732421875
-0.000732421875
0.0
0.0003662109375
-0.000732421875
0.00146484375
0.0
0.0
-0.00146484375
0.0
0.0
0.0003662109375
-0.0003662109375
0.0
-0.0010986328125
0.00146484375
0.0
0.0025634765625
-0.0003662109375
0.000732421875
0.0010986328125
-0.0010986328125
-0.000732421875
-0.0029296875
-0.0018310546875
-0.0047607421875
-0.003662109375
-0.00146484375
0.000732421875
0.00732421875
0.003662109375
0.00732421875
0.0018310546875
0.0018310546875
0.0025634765625
0.0
-0.0223388671875
0.0501708984375
-0.0172119140625
0.1201171875
0.0245361328125
-0.0380859375
0.0205078125
-0.1329345703125
-0.0003662109375
-0.0296630859375
-0.00146484375
-0.00732421875
-0.000732421875
-0.01025390625
-0.00146484375
-0.0205078125
-0.000732421875
-0.0267333984375
-0.0047607421875
-0.0120849609375
-0.0098876953125
0.0230712890625
-0.00439453125
0.046142578125
0.006591796875
0.029296875
0.0054931640625
0.006591796875
0.00146484375
0.0
-0.00146484375
-0.00439453125
-0.0150146484375
-0.03955078125
-0.01904296875
-0.06591796875
-0.0128173828125
-0.108062744140625
0.019775390625
-0.027496337890625
0.028564453125
0.184967041015625
0.006591796875
0.146514892578125
0.0032958984375
0.0205078125
-0.0018310546875
0.0216064453125
-0.0025634765625
0.028564453125
-0.0010986328125
0.0267333984375
0.000732421875
0.010986328125
-0.0029296875
-0.0267333984375
-0.003662109375
-0.069580078125
-0.000732421875
-0.0618896484375
0.0003662109375
-0.018310546875
-0.000732421875
-0.0010986328125
-0.00146484375
-0.0003662109375
0.0003662109375
0.000732421875
-0.000732421875
0.000732421875
-0.000732421875
0.000732421875
-0.0010986328125
0.0010986328125
-0.0003662109375
0.0003662109375
0.0003662109375
-0.000732421875
-0.000732421875
-0.000732421875
0.0
-0.0018310546875
0.0
0.0003662109375
-0.0003662109375
-0.0003662109375
-0.002197265625
-0.0054931640625
-0.0029296875
-0.0054931640625
-0.000732421875
0.005859375
0.0040283203125
0.008056640625
0.0047607421875
0.0
0.0010986328125
0.0003662109375
0.0040283203125
-0.02197265625
-0.038818359375
0.1904296875
-0.009521484375
0.0673828125
0.0413818359375
-0.199951171875
0.005859375
-0.0047607421875
-0.00732421875
0.052001953125
-0.005126953125
-0.0029296875
-0.0003662109375
-0.0194091796875
0.000732421875
-0.0322265625
-0.000732421875
-0.02783203125
-0.009521484375
0.003662109375
-0.009521484375
0.0399169921875
0.0025634765625
0.0377197265625
0.00732421875
0.0098876953125
0.0032958984375
-0.0040283203125
0.0
-0.003662109375
-0.005859375
-0.0245361328125
-0.0146484375
-0.0615234375
-0.0245361328125
-0.095947265625
0.0274658203125
-0.115386962890625
0.0296630859375
0.129638671875
-0.0098876953125
0.213531494140625
0.005126953125
0.032958984375
0.00146484375
0.0150146484375
-0.0029296875
0.0216064453125
-0.002197265625
0.02490234375
0.0
0.0172119140625
0.0003662109375
-0.0084228515625
-0.000732421875
-0.05712890625
-0.000732421875
-0.0809326171875
0.0018310546875
-0.0465087890625
0.0003662109375
-0.009521484375
0.0
-0.0010986328125
-0.000732421875
-0.0003662109375
0.000732421875
-0.0018310546875
0.0003662109375
-0.0025634765625
-0.0003662109375
-0.0010986328125
0.000732421875
-0.0010986328125
-0.0003662109375
-0.000732421875
0.0003662109375
-0.0025634765625
0.0
-0.0029296875
0.0010986328125
-0.0010986328125
0.0003662109375
-0.0025634765625
0.0
-0.0047607421875
0.0003662109375
-0.00732421875
-0.0040283203125
-0.0040283203125
-0.0010986328125
0.005126953125
0.00439453125
0.0054931640625
0.003662109375
0.0
0.00146484375
-0.0010986328125
-0.002197265625
-0.003662109375
-0.0369873046875
0.1732177734375
0.0
0.0281982421875
0.041748046875
-0.189697265625
0.005859375
-0.046142578125
-0.002197265625
-0.0087890625
-0.0025634765625
-0.0106201171875
0.0003662109375
-0.01904296875
0.0018310546875
-0.0274658203125
-0.0029296875
-0.0186767578125
-0.012451171875
0.0164794921875
-0.0087890625
0.0494384765625
0.0040283203125
0.0380859375
0.0047607421875
0.01025390625
0.0029296875
0.0
0.0
-0.0010986328125
-0.0087890625
-0.027099609375
-0.0172119140625
-0.0560302734375
-0.0238037109375
-0.088653564453125
0.0296630859375
-0.094512939453125
0.0325927734375
0.145782470703125
-0.0076904296875
0.194488525390625
0.0029296875
0.02197265625
0.0003662109375
0.017578125
-0.0025634765625
0.0230712890625
-0.0010986328125
0.0260009765625
0.002197265625
0.017578125
-0.002197265625
-0.01318359375
-0.003662109375
-0.0618896484375
-0.0003662109375
-0.0743408203125
0.0018310546875
-0.0355224609375
-0.0003662109375
-0.0054931640625
0.0003662109375
-0.0018310546875
0.0003662109375
-0.000732421875
-0.000732421875
0.000732421875
-0.000732421875
0.0003662109375
-0.00146484375
-0.000732421875
-0.0010986328125
-0.0010986328125
-0.0018310546875
0.00146484375
-0.0003662109375
-0.0003662109375
-0.00146484375
-0.0018310546875
-0.000732421875
0.0003662109375
0.0
0.0003662109375
-0.00146484375
-0.003662109375
-0.0029296875
-0.0069580078125
-0.00439453125
0.00146484375
0.0025634765625
0.008056640625
0.003662109375
0.0047607421875
0.0
0.0025634765625
-0.0010986328125
-0.0032958984375
-0.0347900390625
0.1036376953125
-0.0113525390625
0.1058349609375
0.0362548828125
-0.0992431640625
0.0142822265625
-0.1168212890625
-0.0029296875
-0.022705078125
-0.0029296875
-0.00732421875
-0.00146484375
-0.012451171875
-0.0010986328125
-0.024169921875
-0.00146484375
-0.02783203125
-0.00732421875
-0.0062255859375
-0.01171875
0.031494140625
-0.00439453125
0.049072265625
0.005859375
0.028564453125
0.0040283203125
0.0047607421875
0.0
-0.0003662109375
-0.005859375
-0.005126953125
-0.015380859375
-0.0465087890625
-0.0194091796875
-0.0772705078125
-0.00146484375
-0.134063720703125
0.018310546875
0.0267333984375
0.012451171875
0.223419189453125
0.0047607421875
0.1102294921875
0.000732421875
0.019775390625
-0.00146484375
0.0208740234375
-0.0018310546875
0.0267333984375
-0.0010986328125
0.0238037109375
0.0010986328125
0.00439453125
-0.0025634765625
-0.03662109375
-0.00146484375
-0.0772705078125
0.0003662109375
-0.0618896484375
0.00146484375
-0.01904296875
-0.000732421875
-0.0032958984375
-0.0029296875
0.0003662109375
-0.0018310546875
0.0018310546875
-0.00146484375
0.000732421875
0.0
0.0
-0.00146484375
-0.0003662109375
-0.0010986328125
-0.000732421875
-0.0025634765625
-0.0003662109375
-0.0010986328125
0.00146484375
-0.0018310546875
0.0010986328125
-0.0029296875
0.0
0.0
0.000732421875
-0.00146484375
-0.0003662109375
-0.00146484375
-0.003662109375
-0.0047607421875
-0.0029296875
-0.0029296875
0.006591796875
0.003662109375
0.00732421875
0.002197265625
0.0025634765625
-0.0003662109375
0.00146484375
0.00146484375
-0.01318359375
-0.040283203125
0.1904296875
-0.0069580078125
0.0501708984375
0.044677734375
-0.2032470703125
0.006591796875
-0.0556640625
-0.0010986328125
-0.01171875
-0.0003662109375
-0.010986328125
-0.0018310546875
-0.016845703125
0.0003662109375
-0.027099609375
-0.0032958984375
-0.0216064453125
-0.0106201171875
0.009521484375
-0.009521484375
0.04541015625
0.0029296875
0.041015625
0.006591796875
0.0128173828125
0.0029296875
0.00146484375
0.000732421875
-0.00146484375
-0.0098876953125
-0.025634765625
-0.017578125
-0.0552978515625
-0.0263671875
-0.088653564453125
0.0333251953125
-0.106964111328125
0.0303955078125
0.130767822265625
-0.015380859375
0.203643798828125
0.0054931640625
0.0322265625
0.0
0.0201416015625
-0.002197265625
0.0230712890625
-0.0029296875
0.027099609375
0.0
0.021240234375
-0.0010986328125
-0.0084228515625
-0.0032958984375
-0.056396484375
-0.0029296875
-0.0765380859375
-0.002197265625
-0.0413818359375
-0.003662109375
-0.0062255859375
-0.0040283203125
0.0003662109375
-0.002197265625
-0.0003662109375
-0.00439453125
0.0
-0.0040283203125
0.0
-0.0040283203125
0.000732421875
-0.0054931640625
0.0
-0.005859375
-0.0003662109375
-0.0054931640625
0.0003662109375
-0.00439453125
0.0
-0.0054931640625
0.0003662109375
-0.005859375
0.00146484375
-0.0062255859375
0.0003662109375
-0.0054931640625
-0.003662109375
-0.008056640625
-0.005126953125
-0.0106201171875
0.0003662109375
-0.003662109375
0.0098876953125
-0.000732421875
0.0087890625
-0.0029296875
0.00146484375
-0.0047607421875
-0.0029296875
-0.035888671875
0.0831298828125
-0.0150146484375
0.107666015625
0.029296875
-0.076171875
0.0087890625
-0.117919921875
-0.00439453125
-0.0252685546875
-0.0029296875
-0.0098876953125
-0.00439453125
-0.012451171875
-0.003662109375
-0.02197265625
-0.003662109375
-0.0274658203125
-0.0087890625
-0.0091552734375
-0.0135498046875
0.028564453125
-0.0062255859375
0.04833984375
0.0029296875
0.0296630859375
0.0010986328125
0.0047607421875
-0.0018310546875
-0.000732421875
-0.00732421875
-0.0076904296875
-0.0157470703125
-0.0509033203125
-0.022003173828125
-0.0765380859375
-0.0018310546875
-0.131500244140625
0.016143798828125
0.030029296875
0.0076904296875
0.219757080078125
0.0047607421875
0.1029052734375
0.0018310546875
0.018310546875
-0.0025634765625
0.0201416015625
-0.00439453125
0.0274658203125
-0.0029296875
0.02490234375
-0.00146484375
0.0047607421875
-0.0018310546875
-0.038818359375
-0.0003662109375
-0.0780029296875
-0.0003662109375
-0.059326171875
0.0
-0.0157470703125
-0.0010986328125
-0.00146484375
-0.0003662109375
-0.000732421875
0.0
-0.0010986328125
-0.00146484375
-0.000732421875
-0.00146484375
-0.000732421875
-0.00146484375
-0.0003662109375
-0.00146484375
0.0
-0.001861572265625
0.0010986328125
-0.000762939453125
0.00146484375
-0.0018310546875
0.0
-0.00146484375
0.0003662109375
-0.00146484375
0.000732421875
-0.002197265625
0.0
-0.000732421875
-0.00439453125
-0.0047607421875
-0.0076904296875
-0.00439453125
0.003662109375
0.0018310546875
0.0106201171875
0.002197265625
0.0040283203125
-0.000732421875
0.0029296875
0.0029296875
-0.0274658203125
-0.049072265625
0.1915283203125
-0.013916015625
0.099609375
0.052001953125
-0.197021484375
0.0098876953125
-0.088623046875
-0.0032958984375
-0.0172119140625
-0.0025634765625
-0.0084228515625
-0.000732421875
-0.0150146484375
0.00146484375
-0.0252685546875
-0.0018310546875
-0.0260009765625
-0.0087890625
0.000732421875
-0.0120849609375
0.0399169921875
-0.00146484375
0.04541015625
0.005859375
0.0205078125
0.0025634765625
0.003662109375
-0.000732421875
0.00146484375
-0.006591796875
-0.013916015625
-0.0146484375
-0.0538330078125
-0.0208740234375
-0.079132080078125
0.0263671875
-0.120513916015625
0.02490234375
0.085723876953125
-0.0128173828125
0.213531494140625
0.0032958984375
0.059326171875
0.0040283203125
0.022705078125
-0.0010986328125
0.02490234375
-0.003662109375
0.0296630859375
-0.00146484375
0.0252685546875
0.0
0.0
-0.0010986328125
-0.047607421875
-0.00146484375
-0.0780029296875
0.0010986328125
-0.0509033203125
0.000732421875
-0.010986328125
-0.002197265625
0.0010986328125
-0.0025634765625
0.00146484375
0.0
0.0003662109375
0.0
0.0003662109375
-0.0025634765625
0.000732421875
0.0
-0.0003662109375
0.0
-0.0003662109375
-0.00146484375
0.0010986328125
-0.0018310546875
0.00146484375
-0.0018310546875
0.0003662109375
-0.0003662109375
0.0
-0.00146484375
0.0018310546875
-0.0003662109375
-0.0003662109375
0.0
-0.00439453125
-0.00439453125
-0.006591796875
-0.0054931640625
0.003662109375
0.002197265625
0.0091552734375
0.00439453125
0.0010986328125
0.0
0.0
0.0018310546875
-0.022705078125
-0.0498046875
0.1644287109375
-0.0113525390625
0.0897216796875
0.0498046875
-0.1673583984375
0.0076904296875
-0.081298828125
-0.00439453125
-0.0157470703125
-0.00439453125
-0.008056640625
-0.0029296875
-0.0135498046875
-0.0029296875
-0.024169921875
-0.0040283203125
-0.027099609375
-0.009521484375
-0.002197265625
-0.0106201171875
0.0369873046875
-0.0018310546875
0.0439453125
0.005859375
0.01904296875
0.0029296875
0.002197265625
-0.0025634765625
0.000732421875
-0.008056640625
-0.01904296875
-0.0146484375
-0.0604248046875
-0.0234375
-0.086456298828125
0.0263671875
-0.105499267578125
0.0267333984375
0.113922119140625
-0.0146484375
0.206939697265625
0.0040283203125
0.0435791015625
0.0025634765625
0.0205078125
-0.0029296875
0.0238037109375
-0.0029296875
0.02783203125
-0.0025634765625
0.0216064453125
-0.0018310546875
-0.0047607421875
-0.0029296875
-0.0516357421875
-0.0025634765625
-0.0765380859375
-0.00146484375
-0.046142578125
-0.0003662109375
-0.009521484375
0.0
-0.0010986328125
-0.0025634765625
-0.0010986328125
0.0
0.0
-0.0010986328125
0.0
-0.002197265625
-0.000732421875
-0.0003662109375
-0.000732421875
-0.000732421875
-0.000732421875
-0.000732421875
0.0
0.0029296875
-0.0032958984375
0.00439453125
-0.005126953125
0.000732421875
-0.0032958984375
0.0010986328125
-0.0010986328125
0.0010986328125
-0.0029296875
-0.0003662109375
-0.005859375
-0.0054931640625
-0.0029296875
-0.0032958984375
0.0054931640625
0.003662109375
0.0069580078125
0.0018310546875
0.0
-0.00146484375
-0.0003662109375
-0.00732421875
0.0032958984375
-0.03369140625
0.1732177734375
-0.0018310546875
0.0245361328125
0.0311279296875
-0.1845703125
0.0018310546875
-0.044677734375
-0.00439453125
-0.0084228515625
-0.0025634765625
-0.009521484375
-0.0018310546875
-0.019775390625
0.0
-0.0267333984375
-0.005126953125
-0.018310546875
-0.0135498046875
0.015380859375
-0.01025390625
0.047607421875
0.00146484375
0.038818359375
0.005126953125
0.0113525390625
0.000732421875
0.0
-0.00146484375
-0.0003662109375
-0.0106201171875
-0.03076171875
-0.0164794921875
-0.0626220703125
-0.0216064453125
-0.108428955078125
0.0238037109375
-0.077667236328125
0.031494140625
0.165557861328125
-0.003662109375
0.186065673828125
0.0054931640625
0.02783203125
0.000732421875
0.019775390625
-0.0025634765625
0.0252685546875
-0.003662109375
0.0267333984375
-0.0010986328125
0.015380859375
-0.002197265625
-0.017578125
-0.0054931640625
-0.0655517578125
-0.0025634765625
-0.072509765625
-0.000732421875
-0.03076171875
-0.002197265625
-0.00439453125
-0.0040283203125
0.0
-0.0029296875
0.0010986328125
-0.0025634765625
0.00146484375
-0.0032958984375
0.0003662109375
-0.002197265625
-0.000732421875
-0.0029296875
0.0
-0.003662109375
0.0
-0.003662109375
0.0003662109375
-0.0032958984375
0.0
-0.0029296875
-0.000732421875
-0.00146484375
-0.000732421875
-0.002197265625
0.0003662109375
-0.0032958984375
-0.003662109375
-0.0062255859375
-0.006591796875
-0.006591796875
0.0018310546875
0.00146484375
0.0084228515625
0.00146484375
0.0054931640625
-0.0018310546875
0.0018310546875
-0.0018310546875
-0.0069580078125
-0.0428466796875
0.126708984375
-0.0164794921875
0.106201171875
0.040283203125
-0.123046875
0.01318359375
-0.11279296875
-0.0054931640625
-0.022705078125
-0.0047607421875
-0.0091552734375
-0.0032958984375
-0.0113525390625
-0.00146484375
-0.021240234375
-0.002197265625
-0.0260009765625
-0.01025390625
-0.005859375
-0.0142822265625
0.030029296875
-0.006591796875
0.0457763671875
0.0032958984375
0.0252685546875
0.0018310546875
0.0040283203125
-0.0018310546875
0.0010986328125
-0.00732421875
-0.0062255859375
-0.017578125
-0.04541015625
-0.0234375
-0.065185546875
0.0003662109375
-0.113555908203125
0.018310546875
0.016845703125
0.0062255859375
0.196685791015625
0.0032958984375
0.1025390625
0.000732421875
0.018310546875
-0.0032958984375
0.0216064453125
-0.00439453125
0.0274658203125
-0.00439453125
0.0267333984375
-0.0029296875
0.009521484375
-0.00439453125
-0.0340576171875
-0.003662109375
-0.07470703125
-0.0029296875
-0.05859375
-0.002197265625
-0.016845703125
-0.002197265625
-0.00146484375
-0.0025634765625
0.0
-0.002197265625
0.0
-0.0029296875
0.0
-0.0025634765625
0.0010986328125
-0.0040283203125
0.0018310546875
-0.0029296875
-0.000732421875
-0.00439453125
-0.0003662109375
-0.00439453125
0.000732421875
-0.0029296875
0.000732421875
-0.0032958984375
0.0018310546875
-0.0032958984375
0.000732421875
-0.003662109375
-0.00439453125
-0.0047607421875
-0.0069580078125
-0.00732421875
0.0003662109375
0.0
0.0084228515625
0.002197265625
0.0069580078125
-0.00146484375
0.00146484375
0.0
-0.0040283203125
-0.0311279296875
0.0831298828125
-0.01171875
0.1072998046875
0.0281982421875
-0.0772705078125
0.0087890625
-0.117919921875
-0.003662109375
-0.025634765625
-0.0047607421875
-0.0084228515625
-0.0032958984375
-0.010986328125
-0.0025634765625
-0.022705078125
-0.0010986328125
-0.029296875
-0.0054931640625
-0.0091552734375
-0.0076904296875
0.02783203125
-0.0018310546875
0.046875
0.0069580078125
0.028564453125
0.0032958984375
0.0040283203125
-0.0025634765625
-0.0003662109375
-0.00439453125
-0.0076904296875
-0.0150146484375
-0.05126953125
-0.019775390625
-0.080963134765625
-0.002197265625
-0.136627197265625
0.0150146484375
0.034454345703125
0.008056640625
0.230010986328125
0.003662109375
0.1080322265625
0.012451171875
0.017578125
0.006591796875
0.018310546875
-0.0032958984375
0.0263671875
-0.00146484375
0.022705078125
0.0010986328125
0.0040283203125
-0.003662109375
-0.0355224609375
-0.0054931640625
-0.076904296875
-0.000732421875
-0.0626220703125
-0.0003662109375
-0.017578125
-0.000732421875
-0.00146484375
-0.00146484375
0.000732421875
-0.000732421875
0.000732421875
-0.002197265625
0.0
-0.002197265625
0.0
-0.002197265625
-0.0018310546875
-0.002197265625
-0.00146484375
-0.000732421875
0.0010986328125
-0.000732421875
0.0010986328125
-0.0003662109375
0.0003662109375
-0.00146484375
-0.0003662109375
-0.0003662109375
-0.00146484375
-0.00146484375
-0.0029296875
-0.00146484375
-0.005126953125
-0.0029296875
-0.003662109375
-0.0003662109375
0.0062255859375
0.0040283203125
0.0084228515625
0.000732421875
0.00146484375
0.000732421875
0.0010986328125
-0.0135498046875
0.0289306640625
-0.0267333984375
0.14501953125
0.0128173828125
-0.0113525390625
0.030029296875
-0.160400390625
0.0018310546875
-0.0355224609375
-0.002197265625
-0.008056640625
0.0029296875
-0.01171875
0.0029296875
-0.0205078125
0.0003662109375
-0.0263671875
-0.0054931640625
-0.0142822265625
-0.010986328125
0.0223388671875
-0.0062255859375
0.0479736328125
0.0040283203125
0.03076171875
0.005126953125
0.006591796875
0.000732421875
0.000732421875
-0.0025634765625
-0.0003662109375
-0.0146484375
-0.0333251953125
-0.017578125
-0.05859375
-0.01904296875
-0.102935791015625
0.01904296875
-0.066314697265625
0.030029296875
0.167388916015625
0.0018310546875
0.172149658203125
0.0040283203125
0.02490234375
-0.002197265625
0.019775390625
-0.002197265625
0.0234375
-0.0010986328125
0.0263671875
-0.0003662109375
0.015380859375
-0.0029296875
-0.018310546875
-0.003662109375
-0.0673828125
-0.0003662109375
-0.072509765625
-0.002197265625
-0.028564453125
-0.0018310546875
-0.0029296875
-0.000732421875
0.0003662109375
-0.0003662109375
0.000732421875
-0.000732421875
0.000732421875
-0.000732421875
-0.000732421875
-0.00146484375
0.000732421875
-0.0029296875
0.00146484375
-0.0018310546875
-0.0003662109375
-0.0018310546875
0.0010986328125
0.0
0.00146484375
-0.0018310546875
0.000732421875
-0.0029296875
0.00146484375
-0.002197265625
-0.0018310546875
-0.003662109375
-0.00439453125
-0.00732421875
-0.0025634765625
-0.0032958984375
0.005126953125
0.003662109375
0.00732421875
-0.00146484375
0.0025634765625
-0.0018310546875
0.00146484375
-0.0091552734375
0.01025390625
-0.02783203125
0.1431884765625
0.00439453125
0.008056640625
0.0238037109375
-0.1563720703125
-0.0003662109375
-0.0380859375
-0.005859375
-0.0076904296875
-0.0029296875
-0.008056640625
-0.002197265625
-0.017578125
-0.003662109375
-0.025634765625
-0.005859375
-0.01904296875
-0.012451171875
0.016845703125
-0.0076904296875
0.0465087890625
0.0018310546875
0.0340576171875
0.0018310546875
0.0084228515625
-0.00146484375
-0.0003662109375
-0.003662109375
-0.000732421875
-0.0146484375
-0.040283203125
-0.01904296875
-0.069580078125
-0.020904541015625
-0.109527587890625
0.016845703125
-0.048370361328125
0.030792236328125
0.185333251953125
0.000732421875
0.167388916015625
0.0003662109375
0.0205078125
-0.003662109375
0.0186767578125
-0.00439453125
0.0274658203125
-0.0040283203125
0.02783203125
-0.0029296875
0.013916015625
-0.0025634765625
-0.022705078125
-0.0047607421875
-0.0699462890625
-0.00146484375
-0.0692138671875
0.0
-0.0260009765625
-0.0003662109375
-0.0018310546875
-0.0018310546875
0.0
-0.0003662109375
-0.00146484375
0.0018310546875
-0.0018310546875
0.0
-0.000732421875
-0.002197265625
-0.000732421875
-0.0025634765625
-0.0010986328125
-0.00146484375
0.000732421875
-0.002197265625
0.0010986328125
0.000732421875
-0.0010986328125
0.000732421875
-0.00146484375
-0.00146484375
-0.0003662109375
-0.0018310546875
-0.003662109375
-0.005523681640625
-0.0062255859375
-0.004425048828125
0.0025634765625
0.002197265625
0.0087890625
0.004425048828125
0.0040283203125
0.000762939453125
0.00146484375
0.0
-0.0054931640625
-0.037017822265625
0.1168212890625
-0.014312744140625
0.107666015625
0.039215087890625
-0.1124267578125
0.013580322265625
-0.1168212890625
-0.0025634765625
-0.024169921875
-0.003692626953125
-0.008056640625
-0.001495361328125
-0.0120849609375
0.000732421875
-0.0216064453125
-0.0010986328125
-0.0260009765625
-0.0062255859375
-0.0069580078125
-0.01171875
0.0303955078125
-0.0032958984375
0.0465087890625
0.00439453125
0.0263671875
0.00439453125
0.0040283203125
0.0010986328125
0.0
-0.003662109375
-0.0047607421875
-0.01318359375
-0.04248046875
-0.01904296875
-0.0692138671875
-0.002197265625
-0.126007080078125
0.019775390625
0.0040283203125
0.017578125
0.206939697265625
0.005859375
0.119384765625
0.0025634765625
0.0186767578125
-0.0025634765625
0.0208740234375
-0.0025634765625
0.0267333984375
0.0003662109375
0.0263671875
0.0
0.009521484375
-0.00146484375
-0.032958984375
-0.0032958984375
-0.0743408203125
-0.0003662109375
-0.0615234375
0.0
-0.0205078125
-0.0018310546875
-0.002197265625
-0.002197265625
0.000732421875
-0.0018310546875
0.0010986328125
-0.0010986328125
0.00146484375
-0.0010986328125
-0.0003662109375
-0.0003662109375
-0.000732421875
-0.002197265625
0.0
-0.0018310546875
0.00146484375
-0.0025634765625
0.0
-0.000732421875
-0.00146484375
-0.0003662109375
-0.000732421875
-0.0029296875
-0.0003662109375
0.0003662109375
-0.0032958984375
-0.005126953125
-0.0054931640625
-0.0054931640625
0.0029296875
0.003662109375
0.0076904296875
0.0047607421875
0.002197265625
0.000732421875
-0.0003662109375
0.0029296875
-0.0201416015625
-0.0501708984375
0.1673583984375
-0.0142822265625
0.09521484375
0.0552978515625
-0.1702880859375
0.0113525390625
-0.091552734375
-0.0054931640625
-0.0172119140625
-0.0029296875
-0.0076904296875
-0.0010986328125
-0.0128173828125
0.0003662109375
-0.0223388671875
-0.0018310546875
-0.0245361328125
-0.006591796875
-0.00146484375
-0.01318359375
0.0355224609375
-0.0047607421875
0.04541015625
0.0040283203125
0.021240234375
0.0018310546875
0.00146484375
-0.000732421875
0.0
-0.0069580078125
-0.010986328125
-0.0150146484375
-0.049072265625
-0.0205078125
-0.0677490234375
0.024169921875
-0.119781494140625
0.0303955078125
0.0399169921875
0.0025634765625
0.195220947265625
0.0069580078125
0.076171875
0.0
0.0186767578125
-0.0029296875
0.0216064453125
-0.003662109375
0.02783203125
-0.002197265625
0.0260009765625
-0.0029296875
0.0069580078125
-0.0047607421875
-0.03955078125
-0.005859375
-0.076904296875
-0.0029296875
-0.05419921875
-0.00146484375
-0.01318359375
-0.0025634765625
-0.0003662109375
-0.002197265625
0.0003662109375
-0.0032958984375
0.0010986328125
-0.002197265625
0.0010986328125
-0.0047607421875
0.000732421875
-0.005126953125
0.0010986328125
-0.0025634765625
0.0
-0.0025634765625
0.00146484375
-0.0029296875
0.0018310546875
-0.003662109375
-0.0003662109375
-0.00146484375
0.0010986328125
-0.0032958984375
0.000732421875
-0.003662109375
-0.0029296875
-0.005859375
-0.0040283203125
-0.003662109375
0.0040283203125
0.002197265625
0.008056640625
0.00146484375
0.0032958984375
0.000732421875
0.0010986328125
0.48602294921875
0.0567626953125
0.48602294921875
0.0567626953125
