-0.052001953125
0.030029296875
-0.050537109375
0.037353515625
0.00146484375
0.0128173828125
-0.0091552734375
0.0150146484375
-0.0062255859375
0.0120849609375
0.0
0.000732421875
-0.018310546875
0.005126953125
-0.027099609375
0.00439453125
-0.01171875
0.005126953125
0.0076904296875
0.01318359375
0.005126953125
0.0150146484375
0.005126953125
0.005126953125
0.00146484375
-0.002197265625
-0.01318359375
0.005126953125
-0.00146484375
0.000732421875
0.003662109375
0.0032958984375
0.01025390625
-0.005126953125
0.0172119140625
-0.0263671875
-0.00732421875
0.013916015625
0.0062255859375
0.0128173828125
0.0135498046875
-0.0194091796875
0.0018310546875
0.00146484375
0.008056640625
0.003662109375
0.002197265625
-0.0062255859375
0.0113525390625
-0.0186767578125
-0.0003662109375
-0.010986328125
-0.013916015625
0.0
0.0098876953125
-0.00146484375
0.0238037109375
0.00439453125
0.0128173828125
-0.0025634765625
0.0106201171875
-0.0179443359375
0.0076904296875
-0.0150146484375
0.0106201171875
-0.022705078125
0.0164794921875
-0.0260009765625
0.002197265625
-0.013916015625
0.0054931640625
-0.0087890625
0.0157470703125
-0.0113525390625
0.0208740234375
-0.025634765625
0.01904296875
-0.0263671875
0.008056640625
-0.0267333984375
-0.0032958984375
-0.005126953125
0.0113525390625
-0.0047607421875
0.03076171875
-0.0325927734375
0.0179443359375
-0.0216064453125
0.0091552734375
-0.0142822265625
0.0208740234375
-0.0322265625
0.0234375
-0.0384521484375
0.009521484375
-0.041778564453125
0.0029296875
-0.0150146484375
0.006591796875
0.008819580078125
0.0098876953125
0.0010986328125
0.01904296875
0.0003662109375
0.0120849609375
-0.0003662109375
-0.00439453125
0.0029296875
-0.0084228515625
0.0054931640625
-0.032958984375
0.0428466796875
0.0054931640625
0.01904296875
0.0281982421875
-0.0172119140625
-0.0128173828125
0.0164794921875
-0.0498046875
0.0399169921875
-0.0648193359375
0.0391845703125
-0.054931640625
0.0216064453125
-0.0421142578125
0.0
-0.0194091796875
-0.0087890625
-0.0274658203125
0.0157470703125
-0.0230712890625
0.03662109375
-0.015380859375
0.037353515625
-0.0113525390625
0.02490234375
-0.002197265625
0.0194091796875
-0.0076904296875
0.0186767578125
-0.0062255859375
0.0318603515625
0.0029296875
0.0362548828125
-0.0010986328125
0.0157470703125
-0.0135498046875
0.0142822265625
-0.0135498046875
0.0157470703125
-0.0142822265625
0.00146484375
-0.021240234375
-0.015380859375
-0.0238037109375
0.01025390625
0.0076904296875
0.0260009765625
-0.0087890625
0.0487060546875
-0.067047119140625
0.072174072265625
-0.044708251953125
0.030792236328125
-0.00439453125
0.0172119140625
0.0230712890625
0.0281982421875
0.033355712890625
0.0069580078125
0.007354736328125
0.0146484375
0.0010986328125
0.0238037109375
0.0029296875
0.0076904296875
-0.006591796875
-0.0054931640625
0.0010986328125
-0.021240234375
-0.0018310546875
-0.0303955078125
-0.011749267578125
-0.0303955078125
0.02490234375
-0.035552978515625
0.043609619140625
-0.041412353515625
0.0186767578125
-0.0194091796875
0.0113525390625
-0.0234375
0.0010986328125
-0.0296630859375
-0.0003662109375
-0.000732421875
-0.0010986328125
0.0076904296875
0.0003662109375
-0.0106201171875
-0.0018310546875
-0.0062255859375
-0.0003662109375
0.0062255859375
0.016845703125
-0.0032958984375
0.0318603515625
-0.00732421875
0.037353515625
0.006591796875
0.0355224609375
0.0318603515625
0.0391845703125
0.070709228515625
0.030029296875
0.097076416015625
0.160797119140625
-0.051300048828125
0.48052978515625
-0.40399169921875
0.0362548828125
0.000732421875
-0.337677001953125
0.38970947265625
-0.068145751953125
0.109893798828125
-0.017608642578125
0.0157470703125
0.0040283203125
0.008056640625
0.062286376953125
0.000732421875
0.029693603515625
0.046142578125
-0.056793212890625
0.094482421875
-0.109161376953125
0.098876953125
-0.204345703125
0.1102294921875
-0.250885009765625
0.034423828125
-0.246490478515625
-0.0399169921875
-0.0882568359375
0.00146484375
0.1431884765625
0.285675048828125
0.1234130859375
0.226348876953125
-0.000732421875
0.01318359375
0.034820556640625
-0.315338134765625
0.012451171875
0.063385009765625
-0.019439697265625
0.41790771484375
0.01171875
-0.00146484375
0.003662109375
-0.0032958984375
0.011016845703125
-0.053863525390625
0.008819580078125
-0.053863525390625
0.000732421875
-0.0552978515625
-0.006622314453125
-0.0465087890625
-0.011749267578125
-0.0523681640625
0.000732421875
-0.0889892578125
-0.005859375
-0.04541015625
0.012481689453125
-0.079833984375
0.011749267578125
-0.0333251953125
0.0201416015625
-0.076568603515625
0.01904296875
-0.059326171875
0.0047607421875
-0.031494140625
0.010986328125
-0.043243408203125
-0.00732421875
-0.0091552734375
0.0025634765625
-0.0831298828125
-0.0010986328125
-0.0032958984375
0.0087890625
-0.082763671875
-0.003662109375
-0.016845703125
-0.0091552734375
-0.122344970703125
-0.0040283203125
-0.0465087890625
-0.0087890625
0.081329345703125
-0.0025634765625
-0.0662841796875
-0.01611328125
0.0340576171875
0.00146484375
-0.0465087890625
0.00439453125
0.03369140625
0.0179443359375
-0.031524658203125
0.0194091796875
-0.0216064453125
0.0208740234375
-0.009521484375
0.0245361328125
-0.0531005859375
0.0091552734375
0.008056640625
0.0091552734375
-0.064849853515625
0.00146484375
0.018707275390625
0.013916015625
-0.0322265625
0.012451171875
0.009521484375
0.0098876953125
-0.017578125
0.015380859375
-0.031524658203125
0.00732421875
0.008056640625
0.01025390625
-0.0498046875
-0.003662109375
0.098541259765625
0.006591796875
0.061553955078125
0.0091552734375
0.104736328125
-0.00146484375
0.395538330078125
0.0069580078125
0.244293212890625
0.00439453125
0.198883056640625
0.0146484375
0.191925048828125
0.0018310546875
-0.0003662109375
0.0128173828125
0.024169921875
0.0010986328125
0.0
0.0091552734375
0.0
-0.0018310546875
-0.0010986328125
0.005126953125
0.0003662109375
0.0084228515625
-0.006591796875
-0.0029296875
0.0
0.0223388671875
-0.005859375
-0.01025390625
0.0
0.030029296875
0.008056640625
0.000732421875
-0.0091552734375
0.0369873046875
0.005126953125
0.0
-0.068511962890625
0.01171875
0.000732421875
0.11279296875
0.0325927734375
0.018310546875
0.0
-0.0029296875
0.0054931640625
-0.0047607421875
-0.0003662109375
0.017578125
0.00732421875
-0.0029296875
-0.056427001953125
0.0025634765625
-0.0692138671875
-0.0025634765625
-0.110595703125
-0.0062255859375
-0.03955078125
0.0047607421875
-0.065185546875
-0.0205078125
-0.063720703125
0.0047607421875
-0.0399169921875
-0.02197265625
-0.013916015625
0.029296875
-0.0267333984375
-0.0164794921875
-0.0498046875
-0.000732421875
-0.0069580078125
0.0084228515625
-0.060089111328125
-0.016845703125
-0.011749267578125
0.0205078125
-0.052001953125
-0.0234375
-0.0260009765625
0.025634765625
-0.03955078125
-0.0201416015625
-0.0384521484375
0.01171875
-0.0234375
-0.013916015625
-0.0655517578125
-0.0062255859375
0.0091552734375
0.0179443359375
-0.0296630859375
-0.05419921875
-0.0560302734375
-0.029296875
-0.05712890625
-0.0487060546875
0.01318359375
-0.029296875
-0.016845703125
-0.0260009765625
0.0428466796875
0.06005859375
0.0567626953125
0.0347900390625
0.002197265625
0.0106201171875
0.008056640625
0.0428466796875
-0.0479736328125
0.0069580078125
-0.00439453125
0.0384521484375
-0.0560302734375
-0.005859375
0.00732421875
0.104766845703125
-0.031494140625
0.0545654296875
-0.0684814453125
-0.01611328125
-0.048736572265625
-0.003662109375
-0.038818359375
-0.0087890625
-0.0003662109375
0.013580322265625
-0.035919189453125
-0.047271728515625
0.008056640625
0.006591796875
-0.029296875
-0.0706787109375
0.016876220703125
0.005859375
0.005859375
0.016845703125
-0.000732421875
-0.0003662109375
-0.0098876953125
0.0
-0.028594970703125
-0.0106201171875
0.0234375
0.0531005859375
-0.0391845703125
-0.038116455078125
-0.002197265625
0.020904541015625
-0.0318603515625
-0.0574951171875
0.0399169921875
0.0150146484375
-0.0106201171875
0.0054931640625
-0.01611328125
-0.0106201171875
0.01025390625
0.047607421875
-0.043212890625
-0.0234375
0.01611328125
0.045806884765625
-0.0479736328125
-0.068511962890625
0.035888671875
0.0281982421875
-0.0245361328125
-0.0421142578125
0.013916015625
-0.0003662109375
0.006591796875
0.0146484375
-0.01611328125
-0.052032470703125
0.024169921875
0.041015625
-0.034423828125
-0.062255859375
0.04541015625
0.032958984375
-0.038818359375
-0.046142578125
0.0509033203125
0.037384033203125
-0.021240234375
-0.0172119140625
0.0018310546875
-0.0047607421875
0.0289306640625
0.0377197265625
-0.0369873046875
-0.046905517578125
0.0380859375
0.0699462890625
-0.072509765625
-0.0596923828125
0.0472412109375
0.053497314453125
-0.054931640625
-0.0142822265625
0.000732421875
0.0234375
-0.000732421875
0.03515625
-0.0252685546875
-0.006591796875
0.0479736328125
0.0673828125
-0.0377197265625
-0.030029296875
0.0443115234375
0.040679931640625
-0.047607421875
-0.091217041015625
0.0487060546875
-0.0146484375
-0.027099609375
-0.047607421875
0.021240234375
-0.041778564453125
0.0245361328125
0.0252685546875
-0.05712890625
-0.0216064453125
0.021240234375
-0.044677734375
-0.0032958984375
-0.1578369140625
0.131866455078125
0.035888671875
-0.0274658203125
0.0062255859375
0.0069580078125
0.0120849609375
-0.032958984375
0.0164794921875
-0.00439453125
-0.0296630859375
0.046875
0.060791015625
-0.088653564453125
0.003662109375
0.0303955078125
0.0494384765625
-0.0970458984375
-0.013916015625
0.058258056640625
-0.0025634765625
-0.0208740234375
0.019775390625
-0.015777587890625
-0.0128173828125
0.0186767578125
0.0340576171875
-0.078369140625
-0.012451171875
0.0552978515625
0.0142822265625
-0.076904296875
-0.0150146484375
0.063720703125
-0.0047607421875
-0.0457763671875
-0.00439453125
0.02783203125
-0.01171875
0.0
0.012451171875
-0.035888671875
-0.010986328125
0.046142578125
0.0142822265625
-0.068115234375
-0.0245361328125
0.079833984375
0.0025634765625
-0.0615234375
-0.012451171875
0.05859375
-0.0076904296875
-0.0289306640625
0.00439453125
0.0018310546875
-0.0205078125
0.0311279296875
0.01318359375
-0.0545654296875
-0.022705078125
0.0699462890625
0.0084228515625
-0.06884765625
-0.015380859375
0.0714111328125
-0.0003662109375
-0.0552978515625
-0.0032958984375
0.0369873046875
-0.012451171875
-0.005859375
0.0106201171875
-0.0263671875
-0.02197265625
0.0538330078125
0.0106201171875
-0.064453125
-0.01904296875
0.0750732421875
0.005126953125
-0.0655517578125
-0.0098876953125
0.060791015625
-0.0076904296875
-0.03076171875
0.003662109375
0.003662109375
-0.0150146484375
0.024169921875
0.0106201171875
-0.0472412109375
-0.018310546875
0.0615234375
0.0069580078125
-0.059326171875
-0.0146484375
0.064453125
0.002197265625
-0.049072265625
-0.006591796875
0.037353515625
-0.0062255859375
-0.0098876953125
0.006591796875
-0.016845703125
-0.0172119140625
0.0421142578125
0.0120849609375
-0.053466796875
-0.0205078125
0.064453125
0.009521484375
-0.057861328125
-0.0142822265625
0.06005859375
0.002197265625
-0.0377197265625
0.0003662109375
0.0135498046875
-0.0142822265625
0.0164794921875
0.0120849609375
-0.0369873046875
-0.0216064453125
0.057861328125
0.0135498046875
-0.0574951171875
-0.0186767578125
0.0662841796875
0.0087890625
-0.05712890625
-0.00732421875
0.045074462890625
-0.0047607421875
-0.017578125
0.0084228515625
-0.014312744140625
-0.017578125
0.0391845703125
0.0135498046875
-0.049072265625
-0.0238037109375
0.0703125
0.013916015625
-0.06298828125
-0.0157470703125
0.064483642578125
0.0040283203125
-0.043212890625
0.0
0.022705078125
-0.0106201171875
0.0087890625
0.0146484375
-0.037384033203125
-0.0234375
0.0604248046875
0.0172119140625
-0.062255859375
-0.0194091796875
0.0673828125
0.0098876953125
-0.0556640625
-0.0091552734375
0.049102783203125
-0.003662109375
-0.0179443359375
0.00732421875
-0.005859375
-0.017578125
0.032958984375
0.018310546875
-0.049835205078125
-0.019775390625
0.0626220703125
0.013916015625
-0.0604248046875
-0.012451171875
0.062286376953125
0.0018310546875
-0.0443115234375
0.0029296875
0.0260009765625
-0.0128173828125
0.005859375
0.0146484375
-0.029296875
-0.01904296875
0.0498046875
0.010986328125
-0.052764892578125
-0.01025390625
0.062255859375
0.002197265625
-0.0509033203125
-0.0032958984375
0.046539306640625
-0.0010986328125
-0.0340576171875
0.012451171875
0.0003662109375
-0.0146484375
0.0274658203125
0.0120849609375
-0.039581298828125
-0.0120849609375
0.0516357421875
0.009521484375
-0.0556640625
-0.0062255859375
0.061920166015625
-0.002197265625
-0.0406494140625
0.0003662109375
0.0413818359375
-0.0135498046875
-0.0003662109375
0.0032958984375
-0.0098876953125
-0.0135498046875
0.03955078125
0.018310546875
-0.056427001953125
-0.00732421875
0.05712890625
0.0062255859375
-0.0574951171875
-0.0025634765625
0.056427001953125
-0.000732421875
-0.044677734375
0.01171875
0.000732421875
-0.0076904296875
0.0150146484375
0.0172119140625
-0.04248046875
-0.008056640625
0.04248046875
0.0150146484375
-0.070343017578125
-0.000732421875
0.044677734375
0.0040283203125
-0.059326171875
-0.0003662109375
0.047271728515625
-0.0076904296875
-0.008056640625
0.009521484375
-0.0091552734375
-0.01611328125
0.044677734375
0.0128173828125
-0.048736572265625
-0.01171875
0.064453125
0.0076904296875
-0.054931640625
-0.0062255859375
0.071441650390625
-0.006591796875
-0.0113525390625
0.0091552734375
0.017578125
-0.0062255859375
-0.0040283203125
0.019775390625
-0.0596923828125
-0.0120849609375
0.03662109375
0.01025390625
-0.062286376953125
-0.0106201171875
0.063751220703125
-0.0047607421875
-0.0303955078125
0.0047607421875
0.0311279296875
-0.000732421875
-0.025634765625
0.0194091796875
-0.02490234375
-0.009521484375
0.024169921875
0.012451171875
-0.041412353515625
-0.0069580078125
0.0472412109375
0.0062255859375
-0.0472412109375
0.0
0.049102783203125
-0.0032958984375
-0.028564453125
0.0091552734375
0.0135498046875
-0.0091552734375
0.0047607421875
0.0157470703125
-0.028228759765625
-0.0087890625
0.0377197265625
0.0084228515625
-0.0439453125
-0.0032958984375
0.0443115234375
0.00146484375
-0.04248046875
0.0054931640625
0.030792236328125
-0.0054931640625
-0.0201416015625
0.01318359375
-0.0069580078125
-0.0087890625
0.0205078125
0.0128173828125
-0.038116455078125
-0.0076904296875
0.0421142578125
0.0069580078125
-0.0450439453125
0.00146484375
0.0421142578125
-0.002197265625
-0.034423828125
0.0076904296875
0.020904541015625
-0.009521484375
0.0010986328125
0.0135498046875
-0.023468017578125
-0.01025390625
0.03662109375
0.0098876953125
-0.0435791015625
-0.003662109375
0.04248046875
0.0032958984375
-0.0450439453125
0.0054931640625
0.032257080078125
-0.0040283203125
-0.024169921875
0.0120849609375
-0.002227783203125
-0.0098876953125
0.0164794921875
0.013916015625
-0.037353515625
-0.0076904296875
0.0413818359375
0.0062255859375
-0.0450439453125
-0.0003662109375
0.041015625
0.0
-0.0391845703125
0.0076904296875
0.021240234375
-0.0076904296875
-0.005859375
0.0128173828125
-0.016845703125
-0.01171875
0.0347900390625
0.010986328125
-0.0439453125
-0.00439453125
0.0439453125
0.0032958984375
-0.0457763671875
0.0018310546875
0.03515625
-0.0047607421875
-0.0245361328125
0.0113525390625
0.0032958984375
-0.0106201171875
0.010986328125
0.013916015625
-0.03515625
-0.00732421875
0.0380859375
0.0069580078125
-0.047607421875
-0.0010986328125
0.0428466796875
0.0010986328125
-0.0439453125
0.005859375
0.028564453125
-0.0069580078125
-0.01318359375
0.01171875
-0.0128173828125
-0.0106201171875
0.0322265625
0.01171875
-0.0450439453125
-0.008056640625
0.0501708984375
0.003662109375
-0.0487060546875
0.0
0.0450439453125
-0.0029296875
-0.0325927734375
0.0098876953125
0.0091552734375
-0.0106201171875
0.0091552734375
0.013916015625
-0.0340576171875
-0.0098876953125
0.041748046875
0.006591796875
-0.046142578125
-0.003662109375
0.049072265625
0.0003662109375
-0.044677734375
0.0047607421875
0.03369140625
-0.006591796875
-0.0146484375
0.0120849609375
-0.01025390625
-0.0087890625
0.0201416015625
0.012451171875
-0.046142578125
-0.0076904296875
0.0487060546875
0.003662109375
-0.0472412109375
-0.0025634765625
0.05419921875
-0.0025634765625
-0.03515625
0.0091552734375
0.017578125
-0.0098876953125
0.0069580078125
0.0146484375
-0.0333251953125
-0.0087890625
0.0369873046875
0.00732421875
-0.0509033203125
-0.0054931640625
0.0509033203125
0.0010986328125
-0.0443115234375
0.00439453125
0.0340576171875
-0.006591796875
-0.0201416015625
0.0113525390625
-0.0062255859375
-0.0106201171875
0.019775390625
0.0106201171875
-0.041015625
-0.00732421875
0.0567626953125
0.0040283203125
-0.04833984375
-0.0062255859375
0.0260009765625
-0.0010986328125
-0.03076171875
0.010986328125
0.03955078125
0.0084228515625
0.0380859375
0.0157470703125
-0.013916015625
-0.029296875
0.002197265625
0.0040283203125
-0.062255859375
-0.0146484375
0.0113525390625
0.0003662109375
-0.0516357421875
0.01171875
0.0816650390625
-0.0062255859375
-0.03076171875
-0.0076904296875
-0.08349609375
-0.002197265625
0.0596923828125
0.0281982421875
0.0274658203125
-0.012451171875
0.03369140625
0.0076904296875
-0.0406494140625
-0.00732421875
0.0252685546875
-0.0032958984375
-0.044677734375
0.0076904296875
0.0274658203125
-0.01025390625
-0.01171875
0.0157470703125
-0.009521484375
-0.0087890625
0.046142578125
0.010986328125
-0.041748046875
-0.0069580078125
0.0439453125
-0.000732421875
-0.05859375
0.0032958984375
0.046875
-0.0040283203125
-0.0245361328125
0.0106201171875
0.00146484375
-0.0120849609375
0.010986328125
0.0128173828125
-0.0406494140625
-0.0098876953125
0.043212890625
0.00732421875
-0.0399169921875
-0.00146484375
0.0538330078125
-0.0069580078125
-0.0556640625
0.008056640625
0.022705078125
-0.0018310546875
0.0208740234375
0.01171875
-0.0263671875
-0.015380859375
0.0172119140625
0.0098876953125
-0.0380859375
-0.0054931640625
0.04541015625
0.000732421875
-0.041015625
0.0
0.0230712890625
-0.0054931640625
-0.019775390625
0.01025390625
0.0047607421875
-0.0032958984375
0.03369140625
0.02197265625
0.0032958984375
-0.018310546875
0.0047607421875
0.0010986328125
-0.0582275390625
0.0
0.0509033203125
-0.0069580078125
-0.0487060546875
0.008056640625
0.0303955078125
-0.0040283203125
0.0069580078125
0.0091552734375
-0.0252685546875
-0.0120849609375
0.024169921875
0.0128173828125
-0.02783203125
-0.0069580078125
0.03955078125
0.000732421875
-0.0435791015625
0.0025634765625
0.03955078125
-0.0062255859375
-0.0333251953125
0.0087890625
0.003662109375
-0.0062255859375
0.0234375
0.0135498046875
-0.027099609375
-0.0069580078125
0.052734375
0.005859375
-0.03955078125
-0.0076904296875
0.0234375
-0.0018310546875
-0.0391845703125
0.005126953125
0.02783203125
-0.008056640625
-0.01318359375
0.012451171875
-0.0120849609375
-0.010986328125
0.0267333984375
0.0087890625
-0.0435791015625
-0.0069580078125
0.04248046875
0.0032958984375
-0.0421142578125
0.0003662109375
0.0406494140625
-0.0062255859375
-0.0325927734375
0.0106201171875
0.016845703125
-0.0120849609375
-0.0029296875
0.01171875
-0.0322265625
-0.008056640625
0.052734375
0.005859375
-0.046875
-0.002197265625
0.04248046875
0.0
-0.040283203125
0.0040283203125
0.0325927734375
-0.0087890625
-0.0172119140625
0.013916015625
-0.0010986328125
-0.0113525390625
0.022705078125
0.0087890625
-0.049072265625
-0.0018310546875
0.066650390625
0.0029296875
-0.0450439453125
-0.00439453125
0.0267333984375
-0.002197265625
-0.0245361328125
0.0047607421875
0.0003662109375
-0.0076904296875
0.009521484375
0.01611328125
-0.015380859375
-0.0142822265625
0.0245361328125
0.00732421875
-0.0443115234375
-0.003662109375
0.046142578125
0.0003662109375
-0.0428466796875
0.003662109375
0.0347900390625
-0.00732421875
-0.0179443359375
0.010986328125
-0.005859375
-0.0113525390625
0.0208740234375
0.01171875
-0.03955078125
-0.0084228515625
0.0479736328125
0.00439453125
-0.04541015625
-0.0010986328125
0.04541015625
-0.003662109375
-0.0318603515625
0.0076904296875
0.018310546875
-0.01025390625
0.0
0.0128173828125
-0.025634765625
-0.010986328125
0.0362548828125
0.0084228515625
-0.0450439453125
-0.0047607421875
0.046142578125
0.000732421875
-0.043212890625
0.0025634765625
0.0377197265625
-0.0062255859375
-0.0208740234375
0.010986328125
-0.0018310546875
-0.01171875
0.0201416015625
0.0120849609375
-0.038818359375
-0.0087890625
0.043212890625
0.005126953125
-0.044677734375
-0.0018310546875
0.0472412109375
-0.002197265625
-0.0384521484375
0.0069580078125
0.0216064453125
-0.0098876953125
-0.0025634765625
0.0128173828125
-0.0230712890625
-0.010986328125
0.03515625
0.0098876953125
-0.044677734375
-0.006591796875
0.0487060546875
0.0010986328125
-0.041015625
0.0010986328125
0.0413818359375
-0.005859375
-0.0263671875
0.0098876953125
0.003662109375
-0.0113525390625
0.0142822265625
0.013916015625
-0.0435791015625
-0.0091552734375
0.043212890625
0.0087890625
-0.0523681640625
-0.00146484375
0.0457763671875
-0.002197265625
-0.0347900390625
0.0054931640625
0.0303955078125
-0.01025390625
0.0
0.0135498046875
-0.016845703125
-0.01171875
0.0347900390625
0.0084228515625
-0.0428466796875
-0.008056640625
0.04541015625
0.0054931640625
-0.0545654296875
0.0040283203125
0.0355224609375
-0.0054931640625
-0.02490234375
0.0069580078125
0.015380859375
-0.0142822265625
0.0205078125
0.01318359375
-0.0377197265625
-0.0098876953125
0.04248046875
0.00732421875
-0.0501708984375
-0.003662109375
0.046142578125
0.0
-0.0406494140625
0.0047607421875
0.028564453125
-0.0087890625
-0.01025390625
0.01318359375
-0.018310546875
-0.0128173828125
0.03515625
0.009521484375
-0.0428466796875
-0.0087890625
0.046875
0.0208740234375
-0.01025390625
0.0069580078125
0.05712890625
-0.0205078125
-0.0706787109375
0.01025390625
0.0113525390625
-0.00732421875
0.022705078125
0.01318359375
-0.0362548828125
-0.0164794921875
0.0263671875
0.0047607421875
-0.05419921875
-0.0040283203125
0.059326171875
-0.0047607421875
-0.053466796875
0.0
0.0201416015625
-0.00439453125
-0.005126953125
0.0194091796875
0.0047607421875
-0.013916015625
0.0245361328125
0.01171875
-0.0479736328125
-0.01318359375
0.0406494140625
0.0029296875
-0.0560302734375
0.000732421875
0.0487060546875
0.006591796875
-0.0992431640625
0.005126953125
0.0054931640625
-0.0201416015625
0.0743408203125
0.009521484375
-0.04833984375
-0.01171875
0.0413818359375
0.0076904296875
-0.0487060546875
-0.0120849609375
0.0450439453125
0.0120849609375
-0.0142822265625
0.00439453125
0.037353515625
-0.005126953125
-0.0234375
0.01025390625
-0.018310546875
-0.0205078125
0.0120849609375
0.0142822265625
-0.0347900390625
-0.006591796875
0.062255859375
0.000732421875
-0.063720703125
0.000732421875
0.059326171875
0.003662109375
-0.021240234375
0.0029296875
0.00732421875
-0.0076904296875
0.009521484375
0.0150146484375
-0.0281982421875
-0.0106201171875
0.0472412109375
0.01025390625
-0.05126953125
-0.0098876953125
0.0439453125
0.0047607421875
-0.041015625
0.0032958984375
0.0439453125
-0.0091552734375
-0.0303955078125
0.0062255859375
-0.019775390625
-0.005126953125
0.0435791015625
0.02197265625
-0.0223388671875
-0.01318359375
0.044677734375
0.003662109375
-0.0604248046875
0.0018310546875
0.063720703125
0.0142822265625
0.0018310546875
-0.0076904296875
-0.0106201171875
-0.021240234375
-0.0311279296875
0.0223388671875
-0.010986328125
-0.0201416015625
0.0252685546875
0.0029296875
-0.0736083984375
-0.01025390625
0.0399169921875
0.0135498046875
-0.02197265625
0.0040283203125
0.053466796875
-0.0062255859375
-0.02490234375
0.012451171875
0.00439453125
-0.01904296875
0.00439453125
0.0230712890625
-0.0234375
0.003662109375
0.0849609375
-0.002197265625
-0.076171875
-0.018310546875
0.0205078125
0.0
-0.0406494140625
0.0047607421875
0.024169921875
-0.0029296875
0.0150146484375
0.0157470703125
-0.0205078125
-0.016845703125
0.0340576171875
0.0087890625
-0.0560302734375
-0.0201416015625
0.0252685546875
0.013916015625
-0.027099609375
0.005859375
0.05712890625
-0.010986328125
-0.041748046875
-0.0113525390625
-0.0509033203125
-0.0047607421875
0.0325927734375
0.0443115234375
0.0296630859375
-0.015380859375
0.0457763671875
0.0274658203125
-0.0142822265625
-0.005859375
0.054931640625
-0.0245361328125
-0.085693359375
-0.00439453125
0.0062255859375
-0.010986328125
-0.0164794921875
0.0113525390625
-0.0208740234375
0.0267333984375
0.0948486328125
0.02197265625
-0.027099609375
-0.049072265625
0.0018310546875
0.0087890625
-0.0450439453125
-0.002197265625
0.049072265625
-0.013916015625
-0.0538330078125
0.0135498046875
0.0164794921875
-0.006591796875
0.0263671875
0.0205078125
-0.0245361328125
-0.0216064453125
0.0384521484375
0.0025634765625
-0.0670166015625
-0.0018310546875
0.0662841796875
-0.0032958984375
-0.056396484375
0.0032958984375
0.0325927734375
-0.02197265625
-0.0406494140625
0.0179443359375
-0.0062255859375
0.0076904296875
0.079833984375
0.013916015625
-0.0479736328125
-0.0087890625
0.0596923828125
0.0003662109375
-0.0692138671875
-0.003662109375
0.0472412109375
0.0032958984375
-0.0238037109375
-0.002197265625
-0.0135498046875
-0.0062255859375
0.0238037109375
0.017578125
-0.031494140625
-0.0146484375
0.0435791015625
0.0128173828125
-0.0498046875
-0.008056640625
0.057861328125
0.000732421875
-0.05712890625
-0.0025634765625
0.02783203125
-0.00439453125
-0.0142822265625
0.0084228515625
-0.0208740234375
-0.0146484375
0.029296875
0.01611328125
-0.0498046875
-0.0113525390625
0.05859375
0.0091552734375
-0.0560302734375
-0.0054931640625
0.052734375
0.002197265625
-0.032958984375
0.0084228515625
0.018310546875
-0.01318359375
-0.0010986328125
0.01318359375
-0.041748046875
-0.0146484375
0.0494384765625
0.0142822265625
-0.0509033203125
-0.012451171875
0.0498046875
0.0113525390625
-0.0391845703125
0.0018310546875
0.0428466796875
-0.016845703125
-0.0465087890625
0.0164794921875
0.00146484375
-0.006591796875
0.0443115234375
0.002197265625
-0.076904296875
-0.0223388671875
0.0355224609375
0.010986328125
-0.052001953125
0.000732421875
0.0670166015625
-0.0010986328125
-0.0413818359375
-0.0010986328125
-0.0003662109375
-0.0040283203125
0.013916015625
0.02783203125
-0.00439453125
-0.021240234375
0.0296630859375
0.0150146484375
-0.0479736328125
0.002197265625
0.076904296875
0.009521484375
-0.038818359375
0.00732421875
0.052734375
-0.0120849609375
-0.03955078125
0.0069580078125
-0.0120849609375
-0.01611328125
0.012451171875
0.010986328125
-0.0523681640625
-0.0120849609375
0.0545654296875
0.0113525390625
-0.046142578125
-0.01025390625
0.0479736328125
-0.0069580078125
-0.0574951171875
0.005859375
0.0267333984375
-0.006591796875
-0.0025634765625
-0.0003662109375
-0.0509033203125
-0.0494384765625
-0.048736572265625
0.046142578125
0.0106201171875
0.0223388671875
0.147247314453125
-0.0003662109375
-0.0699462890625
0.0018310546875
0.054931640625
-0.025634765625
-0.07470703125
0.009521484375
0.000732421875
0.015380859375
0.0736083984375
0.017578125
-0.0380859375
-0.0450439453125
-0.0003662109375
0.002197265625
-0.0732421875
-0.009521484375
0.0556640625
0.006591796875
-0.0406494140625
0.01318359375
0.0494384765625
-0.0047607421875
-0.0054931640625
0.01025390625
-0.03076171875
-0.0113525390625
0.047607421875
0.021240234375
-0.0391845703125
-0.017578125
0.0494384765625
0.0179443359375
-0.0406494140625
-0.0146484375
0.03662109375
-0.0084228515625
-0.0472412109375
0.008056640625
0.0091552734375
-0.012451171875
0.0135498046875
0.0234375
-0.0311279296875
-0.01318359375
0.0618896484375
0.0186767578125
-0.0450439453125
-0.0106201171875
0.057861328125
0.0069580078125
-0.0498046875
-0.005126953125
0.025634765625
-0.008056640625
-0.01611328125
0.0113525390625
-0.0179443359375
-0.018310546875
0.03076171875
0.018310546875
-0.0479736328125
-0.0146484375
0.0611572265625
0.0084228515625
-0.0640869140625
-0.0084228515625
0.047607421875
0.0047607421875
-0.030029296875
-0.00146484375
0.0003662109375
-0.0208740234375
-0.0106201171875
0.0238037109375
-0.02490234375
-0.0069580078125
0.066650390625
0.015380859375
-0.057861328125
-0.015380859375
0.0596923828125
0.008056640625
-0.054931640625
-0.0018310546875
0.041748046875
-0.017578125
-0.041748046875
0.0179443359375
-0.003662109375
0.002197265625
0.06884765625
0.0091552734375
-0.06591796875
-0.02783203125
0.04248046875
0.0201416015625
-0.0428466796875
-0.01171875
0.0421142578125
0.0029296875
-0.03515625
0.0128173828125
0.02490234375
-0.0245361328125
-0.019775390625
0.01904296875
-0.03076171875
0.0
0.076171875
0.0267333984375
-0.030029296875
-0.01904296875
0.043212890625
-0.0128173828125
-0.081298828125
0.013916015625
0.0648193359375
0.01611328125
0.0142822265625
0.0003662109375
-0.025634765625
-0.00439453125
0.046142578125
0.016845703125
-0.044677734375
-0.0377197265625
0.012451171875
0.0091552734375
-0.057861328125
-0.0054931640625
0.05712890625
-0.0091552734375
-0.057861328125
-0.0003662109375
0.012451171875
-0.015380859375
-0.0076904296875
0.016845703125
-0.0245361328125
0.0062255859375
0.082763671875
0.012451171875
-0.0556640625
-0.0340576171875
0.016845703125
0.025634765625
-0.0201416015625
0.005859375
0.0560302734375
-0.0216064453125
-0.054931640625
0.0142822265625
0.0054931640625
-0.0150146484375
0.019775390625
0.0018310546875
-0.0714111328125
-0.0252685546875
0.035888671875
0.0179443359375
-0.03955078125
0.0025634765625
0.0732421875
0.0069580078125
-0.03515625
0.006591796875
0.0311279296875
0.005859375
0.0205078125
0.008056640625
-0.0362548828125
-0.024169921875
0.02783203125
0.02490234375
-0.0322265625
-0.0164794921875
0.046142578125
-0.000732421875
-0.068115234375
0.002197265625
0.05712890625
0.00439453125
-0.0186767578125
0.0029296875
-0.008056640625
-0.0135498046875
0.016845703125
0.0032958984375
-0.0618896484375
-0.0157470703125
0.0516357421875
0.03515625
-0.013916015625
-0.01611328125
0.0439453125
-0.0040283203125
-0.05859375
-0.0010986328125
0.0234375
0.0106201171875
0.0201416015625
0.0054931640625
-0.0318603515625
-0.0318603515625
0.0120849609375
0.0252685546875
-0.0318603515625
-0.0113525390625
0.05712890625
0.0157470703125
-0.0428466796875
-0.003662109375
0.05126953125
0.003662109375
-0.02490234375
-0.005126953125
-0.012451171875
-0.016845703125
0.00732421875
0.01171875
-0.0435791015625
-0.01611328125
0.0479736328125
0.01171875
-0.0552978515625
-0.0113525390625
0.057861328125
0.0216064453125
-0.018310546875
-0.0003662109375
0.03515625
-0.016845703125
-0.032958984375
-0.005859375
-0.040283203125
-0.0025634765625
0.0552978515625
0.0303955078125
-0.0281982421875
-0.0179443359375
0.0523681640625
0.0128173828125
-0.0531005859375
-0.0150146484375
0.043212890625
0.0029296875
-0.040283203125
0.005859375
0.017578125
-0.0040283203125
0.009521484375
0.009521484375
-0.041015625
-0.0128173828125
0.0684814453125
0.0201416015625
-0.05859375
-0.0263671875
0.0574951171875
0.0164794921875
-0.05859375
-0.0146484375
0.040283203125
0.003662109375
-0.024169921875
0.0146484375
0.0439453125
-0.01611328125
0.0472412109375
0.01025390625
-0.1116943359375
-0.02490234375
0.0648193359375
0.0322265625
-0.0860595703125
-0.0234375
0.0823974609375
0.0098876953125
-0.03955078125
-0.00439453125
0.0267333984375
-0.0047607421875
-0.010650634765625
0.0245361328125
-0.047607421875
-0.024169921875
0.069610595703125
0.0281982421875
-0.1051025390625
-0.01611328125
0.043212890625
0.02490234375
-0.096710205078125
-0.015380859375
0.085693359375
-0.0120849609375
-0.0025634765625
-0.003662109375
0.0098876953125
-0.016845703125
0.043243408203125
0.0245361328125
-0.062255859375
-0.0252685546875
0.088623046875
0.0281982421875
-0.07763671875
-0.018310546875
0.0941162109375
0.01611328125
-0.0589599609375
-0.02490234375
0.0010986328125
-0.00732421875
-0.009185791015625
0.032958984375
-0.0322265625
-0.025634765625
0.068878173828125
0.0281982421875
-0.0626220703125
-0.022705078125
0.0992431640625
0.0281982421875
-0.0699462890625
-0.031494140625
0.0574951171875
0.0179443359375
-0.0223388671875
-0.006591796875
-0.010986328125
-0.0838623046875
-0.057525634765625
0.0355224609375
-0.0552978515625
0.0238037109375
0.155303955078125
0.049072265625
-0.0604248046875
-0.037353515625
0.0692138671875
0.0047607421875
-0.096710205078125
-0.0047607421875
0.0428466796875
0.0062255859375
-0.0146484375
0.01025390625
-0.049072265625
-0.03662109375
0.039947509765625
0.03662109375
-0.0677490234375
-0.0267333984375
0.112060546875
0.0274658203125
-0.09521484375
-0.0263671875
0.0809326171875
0.013916015625
-0.049102783203125
0.003662109375
0.0296630859375
-0.0106201171875
0.029296875
0.0205078125
-0.065185546875
-0.03515625
0.088287353515625
0.0380859375
-0.0809326171875
-0.0384521484375
0.10107421875
0.0238037109375
-0.102203369140625
-0.005859375
0.054931640625
-0.0113525390625
-0.0615234375
0.006591796875
-0.0260009765625
-0.0234375
0.073272705078125
0.0325927734375
-0.0809326171875
-0.0355224609375
0.101806640625
0.031494140625
-0.10400390625
-0.0223388671875
0.1021728515625
0.008056640625
-0.064849853515625
-0.012451171875
-0.03076171875
0.0
0.0069580078125
0.03076171875
-0.013916015625
-0.0498046875
0.069610595703125
0.03515625
-0.1025390625
-0.032958984375
0.1083984375
0.017578125
-0.092315673828125
-0.003662109375
0.0867919921875
0.0113525390625
-0.030029296875
0.0135498046875
-0.0208740234375
-0.01611328125
0.0574951171875
0.0296630859375
-0.08349609375
-0.03076171875
0.107330322265625
0.030029296875
-0.10546875
-0.032958984375
0.0908203125
0.0157470703125
-0.076202392578125
-0.0091552734375
0.0289306640625
-0.0120849609375
0.0029296875
0.0186767578125
-0.0589599609375
-0.03515625
0.075103759765625
0.035888671875
-0.095947265625
-0.0318603515625
0.1065673828125
0.0194091796875
-0.109161376953125
-0.0150146484375
0.087890625
-0.017578125
-0.0750732421875
0.006591796875
-0.0098876953125
0.0201416015625
0.1036376953125
0.0205078125
-0.0941162109375
-0.03515625
0.097442626953125
0.03515625
-0.100341796875
-0.0413818359375
0.087158203125
0.032958984375
-0.061187744140625
-0.005859375
0.0472412109375
-0.01025390625
-0.0113525390625
0.02490234375
-0.0413818359375
-0.02197265625
0.090484619140625
0.037353515625
-0.0908203125
-0.0318603515625
0.1087646484375
0.03076171875
-0.099639892578125
-0.0238037109375
0.0845947265625
0.01318359375
-0.0457763671875
0.0
-0.0040283203125
-0.0106201171875
0.0501708984375
0.0340576171875
-0.07177734375
-0.04541015625
0.080230712890625
0.0289306640625
-0.111328125
-0.04833984375
0.0845947265625
0.03515625
-0.068878173828125
-0.0047607421875
0.0633544921875
-0.0029296875
-0.015380859375
0.030029296875
-0.0216064453125
-0.03076171875
0.074371337890625
0.03955078125
-0.08935546875
-0.0245361328125
0.1226806640625
0.0289306640625
-0.1065673828125
-0.0399169921875
0.0728759765625
0.0164794921875
-0.054962158203125
0.002197265625
0.012451171875
-0.0164794921875
0.030029296875
0.025634765625
-0.078369140625
-0.0443115234375
0.082794189453125
0.0205078125
-0.125244140625
-0.0380859375
0.101806640625
0.0413818359375
-0.067047119140625
-0.01318359375
0.0633544921875
0.0205078125
0.00732421875
0.00732421875
-0.0428466796875
-0.0626220703125
0.019775390625
0.02197265625
-0.1065673828125
-0.022705078125
0.123809814453125
0.047607421875
-0.086090087890625
-0.0384521484375
0.081298828125
0.040283203125
-0.0318603515625
-0.021240234375
-0.0091552734375
-0.0611572265625
-0.04541015625
0.016845703125
-0.0831298828125
-0.04833984375
0.0703125
0.008056640625
-0.138458251953125
-0.0501708984375
0.082794189453125
0.0289306640625
-0.0911865234375
-0.01025390625
0.0780029296875
0.0234375
-0.0025634765625
0.0047607421875
-0.0318603515625
-0.041748046875
0.034423828125
0.0164794921875
-0.1109619140625
-0.038818359375
0.096710205078125
0.017578125
-0.125640869140625
-0.041748046875
0.08203125
0.031494140625
-0.0531005859375
-0.008056640625
0.0245361328125
-0.0157470703125
0.0018310546875
-0.003692626953125
-0.101806640625
-0.0472412109375
0.064453125
0.024200439453125
-0.109161376953125
-0.058624267578125
0.066650390625
-0.002197265625
-0.138427734375
-0.021240234375
0.071075439453125
0.01025390625
-0.0325927734375
0.0025634765625
-0.0194091796875
-0.015380859375
0.05859375
0.0113525390625
-0.112457275390625
-0.043243408203125
0.08203125
0.0076904296875
-0.1343994140625
-0.0406494140625
0.08056640625
0.013916015625
-0.084625244140625
-0.0054931640625
0.04248046875
0.0054931640625
0.013916015625
0.0164794921875
-0.0615234375
-0.015380859375
0.102935791015625
0.0435791015625
-0.0673828125
-0.0164794921875
0.1248779296875
0.015411376953125
-0.10546875
-0.003662109375
0.109527587890625
0.0201416015625
-0.0281982421875
-0.0084228515625
-0.0146484375
-0.0106201171875
0.0457763671875
0.015380859375
-0.090850830078125
-0.036285400390625
0.0853271484375
0.0091552734375
-0.1300048828125
-0.0340576171875
0.0970458984375
0.026031494140625
-0.076904296875
-0.0069580078125
0.052764892578125
-0.005523681640625
-0.013214111328125
0.0032958984375
-0.061553955078125
-0.029296875
0.065948486328125
0.01611328125
-0.1083984375
-0.029296875
0.110595703125
0.02783203125
-0.100341796875
0.0018310546875
0.128570556640625
0.0062255859375
-0.067413330078125
-0.010986328125
-0.0069580078125
-0.0106201171875
0.03515625
0.00732421875
-0.106964111328125
-0.005126953125
0.139556884765625
0.02783203125
-0.1007080078125
-0.022705078125
0.1259765625
0.0325927734375
-0.089019775390625
-0.0135498046875
0.053863525390625
0.016876220703125
0.0069580078125
0.0040283203125
-0.058624267578125
-0.0076904296875
0.090850830078125
0.0333251953125
-0.0919189453125
-0.034454345703125
0.1051025390625
0.0223388671875
-0.11572265625
-0.0216064453125
0.101104736328125
0.011016845703125
-0.061920166015625
-0.0164794921875
0.017578125
-0.000732421875
0.063385009765625
0.0164794921875
-0.078765869140625
-0.022369384765625
0.1021728515625
0.0399169921875
-0.0985107421875
-0.021240234375
0.1168212890625
0.017608642578125
-0.1072998046875
-0.012451171875
0.072174072265625
0.0120849609375
-0.0069580078125
0.010986328125
-0.030029296875
0.0010986328125
0.09228515625
0.02783203125
-0.091583251953125
-0.0157470703125
0.1307373046875
0.027862548828125
-0.10400390625
-0.033721923828125
0.090484619140625
0.0142822265625
-0.0772705078125
-0.0025634765625
0.0303955078125
0.0146484375
0.0439453125
0.0267333984375
-0.0531005859375
-0.0087890625
0.1241455078125
0.022735595703125
-0.113555908203125
-0.039215087890625
0.102569580078125
0.038818359375
-0.08642578125
-0.01025390625
0.0882568359375
0.0069580078125
-0.03955078125
0.0029296875
-0.0238037109375
-0.0179443359375
0.059326171875
0.022369384765625
-0.097808837890625
-0.012451171875
0.1365966796875
0.038818359375
-0.0999755859375
-0.02197265625
0.117950439453125
0.0164794921875
-0.087158203125
-0.028228759765625
0.0076904296875
-0.0047607421875
0.003662109375
0.0146484375
-0.066650390625
-0.0157470703125
0.106201171875
0.003326416015625
-0.139190673828125
-0.046173095703125
0.095611572265625
0.0201416015625
-0.123046875
-0.0223388671875
0.0875244140625
0.0146484375
-0.04833984375
-0.009521484375
-0.037353515625
0.0029296875
0.0494384765625
0.0208740234375
-0.099273681640625
-0.029296875
0.1336669921875
0.016510009765625
-0.1204833984375
-0.035919189453125
0.126739501953125
0.010986328125
-0.10986328125
-0.0281982421875
0.035888671875
-0.00146484375
-0.0113525390625
0.0003662109375
-0.07470703125
-0.018707275390625
0.1043701171875
0.022705078125
-0.127471923828125
-0.027099609375
0.1234130859375
0.0238037109375
-0.122314453125
-0.0281982421875
0.097076416015625
0.015411376953125
-0.057159423828125
-0.0098876953125
-0.0062255859375
-0.014312744140625
0.049468994140625
0.0106201171875
-0.102569580078125
-0.0303955078125
0.0867919921875
0.027099609375
-0.1505126953125
-0.0238037109375
0.120849609375
0.028564453125
-0.078399658203125
-0.0010986328125
0.086090087890625
0.008819580078125
-0.0062255859375
0.0098876953125
-0.032958984375
-0.012847900390625
0.110992431640625
0.015380859375
-0.122344970703125
-0.0223388671875
0.1241455078125
0.0311279296875
-0.129638671875
-0.028564453125
0.096343994140625
0.020904541015625
-0.048370361328125
-0.01025390625
0.000732421875
-0.0113525390625
0.029693603515625
0.016845703125
-0.086090087890625
-0.009552001953125
0.1417236328125
0.0399169921875
-0.10107421875
-0.0201416015625
0.139923095703125
0.030059814453125
-0.0875244140625
-0.019775390625
0.0618896484375
0.0142822265625
-0.013916015625
-0.000732421875
-0.057861328125
-0.0267333984375
0.068115234375
0.0263671875
-0.102569580078125
-0.016876220703125
0.1461181640625
0.026397705078125
-0.113525390625
-0.030029296875
0.100372314453125
0.024169921875
-0.0615234375
-0.0135498046875
0.0098876953125
0.0003662109375
0.0369873046875
0.017578125
-0.079498291015625
-0.031890869140625
0.0955810546875
0.030029296875
-0.11279296875
0.023834228515625
0.202911376953125
0.069244384765625
-0.046875
-0.046173095703125
0.032958984375
0.0010986328125
-0.0413818359375
0.0003662109375
-0.0413818359375
-0.019775390625
0.063720703125
0.022705078125
-0.137359619140625
-0.024169921875
0.073974609375
0.017242431640625
-0.1102294921875
-0.052032470703125
0.153106689453125
0.0186767578125
-0.0662841796875
-0.0172119140625
0.027099609375
-0.0087890625
0.003662109375
0.015380859375
-0.0787353515625
-0.01025390625
0.123779296875
0.0179443359375
-0.139190673828125
-0.046173095703125
0.103271484375
0.030792236328125
-0.113525390625
-0.0322265625
0.072540283203125
-0.005859375
-0.066314697265625
-0.0120849609375
-0.0413818359375
-0.015045166015625
0.060455322265625
0.0252685546875
-0.106964111328125
-0.0223388671875
0.1219482421875
0.0377197265625
-0.1080322265625
-0.019775390625
0.136260986328125
0.023468017578125
-0.08203125
-0.013916015625
0.0384521484375
-0.0025634765625
0.0018310546875
0.0098876953125
-0.074371337890625
-0.023101806640625
0.0985107421875
0.012451171875
-0.138427734375
-0.0303955078125
0.123046875
0.03369140625
-0.107666015625
-0.019775390625
0.097076416015625
0.026031494140625
-0.026397705078125
-0.0029296875
-0.012451171875
-0.019805908203125
0.045806884765625
0.01318359375
-0.112823486328125
-0.0296630859375
0.1124267578125
0.027099609375
-0.12451171875
-0.031494140625
0.1201171875
0.0238037109375
-0.0758056640625
0.0025634765625
0.055328369140625
0.015045166015625
0.005859375
0.0208740234375
-0.083892822265625
-0.013214111328125
0.079833984375
0.0208740234375
-0.10986328125
-0.019775390625
0.180908203125
0.020904541015625
-0.017578125
-0.015380859375
0.073272705078125
0.0164794921875
-0.0380859375
0.0076904296875
-0.0150146484375
-0.0047607421875
0.0487060546875
0.0252685546875
-0.061920166015625
-0.0054931640625
0.0963134765625
0.012115478515625
-0.097412109375
-0.014678955078125
0.086456298828125
0.0205078125
-0.057861328125
-0.0142822265625
0.02490234375
0.0032958984375
-0.000732421875
0.0135498046875
-0.0311279296875
-0.0146484375
0.0633544921875
0.015777587890625
-0.082427978515625
-0.0032958984375
0.1058349609375
0.0054931640625
-0.101806640625
0.0054931640625
0.094512939453125
0.0142822265625
-0.0322265625
-0.046905517578125
-0.065185546875
-0.0186767578125
0.015380859375
0.006591796875
-0.072540283203125
-0.013214111328125
0.0845947265625
0.025299072265625
-0.0732421875
-0.0120849609375
0.098541259765625
0.0054931640625
-0.0816650390625
-0.0010986328125
0.059326171875
0.037353515625
0.031494140625
0.0003662109375
-0.0439453125
-0.00732421875
0.0677490234375
0.027496337890625
-0.069976806640625
-0.0205078125
0.099609375
0.01904296875
-0.1043701171875
-0.022369384765625
0.088653564453125
0.0234375
-0.032958984375
-0.003662109375
0.0439453125
0.005859375
0.0234375
0.0040283203125
-0.10693359375
0.0029296875
0.1259765625
0.049468994140625
-0.082794189453125
-0.0263671875
0.129669189453125
0.028564453125
-0.1007080078125
-0.0325927734375
0.0494384765625
0.0230712890625
-0.012451171875
0.0062255859375
-0.0369873046875
0.0087890625
0.1065673828125
0.0391845703125
-0.085693359375
-0.034423828125
0.109527587890625
0.0384521484375
-0.108428955078125
-0.031494140625
0.109130859375
0.034423828125
-0.0589599609375
-0.01025390625
0.0274658203125
-0.0399169921875
-0.0296630859375
-0.0025634765625
-0.10107421875
-0.009521484375
0.12451171875
0.021240234375
-0.131500244140625
-0.0318603515625
0.125640869140625
0.0135498046875
-0.1322021484375
-0.056060791015625
0.0325927734375
0.00439453125
-0.0479736328125
-0.0069580078125
-0.03955078125
-0.034423828125
0.041748046875
0.027496337890625
-0.096710205078125
-0.010986328125
0.146484375
0.027099609375
-0.1259765625
-0.025665283203125
0.124542236328125
0.02197265625
-0.0853271484375
-0.0230712890625
0.0216064453125
0.0032958984375
0.0205078125
0.0054931640625
-0.0809326171875
-0.02490234375
0.0977783203125
0.017578125
-0.129669189453125
-0.035186767578125
0.123046875
0.026031494140625
-0.1182861328125
-0.0150146484375
0.108062744140625
0.0494384765625
0.0
0.0018310546875
-0.0113525390625
-0.0205078125
0.052734375
0.030426025390625
-0.0904541015625
-0.0234375
0.12890625
0.02197265625
-0.136260986328125
-0.0238037109375
0.136260986328125
0.03662109375
-0.0728759765625
-0.019073486328125
0.041748046875
-0.0018310546875
-0.003662109375
0.031158447265625
-0.0347900390625
-0.017578125
0.1058349609375
-0.0003662109375
-0.158599853515625
0.0157470703125
0.197784423828125
0.072509765625
-0.063720703125
-0.0216064453125
0.10986328125
0.0655517578125
0.0091552734375
0.0084228515625
0.012451171875
-0.03955078125
0.01611328125
-0.0172119140625
-0.154541015625
-0.03662109375
0.113555908203125
0.0054931640625
-0.162628173828125
-0.0380859375
0.123046875
0.0736083984375
-0.0384521484375
0.0029296875
0.088623046875
0.0274658203125
0.0201416015625
0.0087890625
-0.0589599609375
-0.0098876953125
0.11279296875
0.0263671875
-0.120849609375
-0.0611572265625
0.098907470703125
0.0399169921875
-0.119049072265625
-0.0303955078125
0.10693359375
0.009521484375
-0.0794677734375
-0.012451171875
-0.0025634765625
-0.01025390625
0.041015625
0.0087890625
-0.1109619140625
-0.0230712890625
0.131866455078125
0.0120849609375
-0.159332275390625
-0.0765380859375
0.0787353515625
0.0245361328125
-0.116455078125
-0.0179443359375
0.0736083984375
0.046875
0.0289306640625
0.0318603515625
-0.0113525390625
-0.005126953125
0.1142578125
0.03515625
-0.10986328125
-0.029296875
0.144683837890625
0.0457763671875
-0.117584228515625
-0.03515625
0.1182861328125
0.0362548828125
-0.0615234375
-0.008056640625
0.021240234375
0.01318359375
0.0596923828125
0.0205078125
-0.09228515625
-0.0340576171875
0.118316650390625
0.0457763671875
-0.1182861328125
-0.040283203125
0.1409912109375
0.03369140625
-0.117584228515625
-0.0186767578125
0.09228515625
0.0318603515625
-0.005859375
0.00146484375
-0.0450439453125
-0.0087890625
0.100738525390625
0.0472412109375
-0.0985107421875
-0.035888671875
0.140625
0.046142578125
-0.12890625
-0.040283203125
0.1219482421875
0.028564453125
-0.083526611328125
-0.03662109375
-0.0010986328125
-0.0029296875
0.0267333984375
0.02783203125
-0.0765380859375
-0.03515625
0.117218017578125
0.034423828125
-0.1351318359375
-0.0450439453125
0.1358642578125
0.03515625
-0.127105712890625
-0.04833984375
0.06591796875
0.01025390625
-0.0465087890625
-0.017578125
-0.0552978515625
-0.0010986328125
0.1014404296875
0.04248046875
-0.099609375
-0.0479736328125
0.126373291015625
0.0589599609375
-0.116485595703125
-0.0377197265625
0.1336669921875
0.0157470703125
-0.1102294921875
-0.0318603515625
0.0179443359375
-0.0010986328125
0.0164794921875
0.0128173828125
-0.085693359375
-0.0322265625
0.114654541015625
0.0399169921875
-0.128173828125
-0.041748046875
0.1424560546875
0.041748046875
-0.126007080078125
-0.0450439453125
0.0816650390625
0.0135498046875
-0.052001953125
-0.0062255859375
-0.0289306640625
-0.0179443359375
0.069580078125
0.030029296875
-0.1153564453125
-0.0457763671875
0.123077392578125
0.043212890625
-0.135162353515625
-0.03515625
0.1402587890625
0.035888671875
-0.09521484375
-0.02197265625
0.0494384765625
0.015380859375
0.0245361328125
0.01318359375
-0.0728759765625
-0.031494140625
0.112457275390625
0.0399169921875
-0.1292724609375
-0.0487060546875
0.138427734375
0.047607421875
-0.126739501953125
-0.040283203125
0.1007080078125
0.02490234375
-0.054931640625
-0.005859375
-0.0128173828125
-0.01025390625
0.0706787109375
0.032958984375
-0.106201171875
-0.043212890625
0.134429931640625
0.0501708984375
-0.132598876953125
-0.0406494140625
0.125244140625
0.041015625
-0.087890625
-0.0194091796875
0.01611328125
0.006591796875
-0.016845703125
0.0230712890625
-0.065185546875
-0.030029296875
0.181671142578125
0.0281982421875
-0.0640869140625
-0.0439453125
0.085693359375
0.0399169921875
-0.100006103515625
-0.031494140625
0.0615234375
0.0186767578125
-0.044677734375
-0.0018310546875
-0.0113525390625
-0.0157470703125
0.0399169921875
0.0194091796875
-0.093017578125
-0.0325927734375
0.095611572265625
0.032958984375
-0.107666015625
-0.0479736328125
0.0853271484375
0.022705078125
-0.086456298828125
-0.018310546875
0.041015625
0.003662109375
-0.0047607421875
-0.000732421875
-0.063720703125
-0.0234375
0.0816650390625
0.0318603515625
-0.0999755859375
-0.0369873046875
0.106231689453125
0.0362548828125
-0.097442626953125
-0.03369140625
0.0743408203125
0.0234375
-0.0435791015625
-0.0172119140625
-0.0146484375
-0.008056640625
0.03515625
0.0230712890625
-0.0794677734375
-0.0263671875
0.097442626953125
0.0347900390625
-0.078369140625
-0.053466796875
0.1256103515625
0.0421142578125
-0.129302978515625
-0.0281982421875
0.05419921875
0.0267333984375
-0.021240234375
0.0113525390625
-0.0296630859375
-0.0333251953125
0.08056640625
0.03955078125
-0.1168212890625
-0.0377197265625
0.151641845703125
0.0556640625
-0.123077392578125
-0.034423828125
0.13623046875
0.0406494140625
-0.0684814453125
-0.0201416015625
0.01904296875
-0.0054931640625
0.0355224609375
0.0347900390625
-0.0765380859375
-0.0347900390625
0.128936767578125
0.04833984375
-0.1314697265625
-0.044677734375
0.14794921875
0.0516357421875
-0.112823486328125
-0.03515625
0.082763671875
0.0150146484375
-0.0347900390625
0.002197265625
-0.03515625
-0.017578125
0.0919189453125
0.041015625
-0.1175537109375
-0.041015625
0.143585205078125
0.044677734375
-0.143951416015625
-0.0509033203125
0.12451171875
0.0498046875
-0.072509765625
-0.0201416015625
0.031494140625
-0.00146484375
0.0234375
0.021240234375
-0.0853271484375
-0.03515625
0.123077392578125
0.0516357421875
-0.1285400390625
-0.04833984375
0.146484375
0.052001953125
-0.121978759765625
-0.0362548828125
0.096710205078125
0.0296630859375
-0.0347900390625
0.0029296875
-0.020538330078125
-0.0194091796875
0.079833984375
0.0362548828125
-0.1175537109375
-0.0509033203125
0.133331298828125
0.053466796875
-0.138427734375
-0.0479736328125
0.1380615234375
0.04248046875
-0.098175048828125
-0.019775390625
0.049468994140625
0.008056640625
0.016845703125
0.0201416015625
-0.073638916015625
-0.0384521484375
0.116119384765625
0.0523681640625
-0.1300048828125
-0.0523681640625
0.151611328125
0.0516357421875
-0.135894775390625
-0.0413818359375
0.106964111328125
0.025634765625
-0.0516357421875
-0.0010986328125
-0.0120849609375
-0.0179443359375
0.066650390625
0.0384521484375
-0.113555908203125
-0.0472412109375
0.139190673828125
0.0560302734375
-0.1380615234375
-0.052734375
0.141357421875
0.0421142578125
-0.110260009765625
-0.0260009765625
0.059356689453125
0.0054931640625
0.0
0.0201416015625
-0.067413330078125
-0.032958984375
0.115386962890625
0.0479736328125
-0.1322021484375
-0.05712890625
0.1468505859375
0.052001953125
-0.144683837890625
-0.043212890625
0.115020751953125
0.0281982421875
-0.0677490234375
-0.0084228515625
-0.005126953125
-0.0135498046875
0.0582275390625
0.035888671875
-0.111358642578125
-0.0498046875
0.134796142578125
0.0552978515625
-0.144287109375
-0.0560302734375
0.1453857421875
0.0439453125
-0.120513916015625
-0.02783203125
0.072174072265625
0.0091552734375
-0.0128173828125
0.016845703125
-0.058258056640625
-0.0281982421875
0.112457275390625
0.041748046875
-0.1380615234375
-0.0611572265625
0.1439208984375
0.056396484375
-0.145782470703125
-0.044677734375
0.127838134765625
0.032958984375
-0.0758056640625
-0.01318359375
0.010986328125
-0.01171875
0.052001953125
0.0322265625
-0.105133056640625
-0.0498046875
0.132598876953125
0.052734375
-0.1461181640625
-0.057861328125
0.15234375
0.0494384765625
-0.125274658203125
-0.034423828125
0.080963134765625
0.0128173828125
-0.0234375
0.01171875
-0.049468994140625
-0.0380859375
0.095245361328125
0.046142578125
-0.1314697265625
-0.04833984375
0.1549072265625
0.054931640625
-0.150909423828125
-0.0516357421875
0.131866455078125
0.0498046875
-0.0750732421875
-0.008056640625
0.0311279296875
-0.01611328125
0.0325927734375
0.031494140625
-0.096343994140625
-0.044677734375
0.136260986328125
0.05126953125
-0.1468505859375
-0.0560302734375
0.1585693359375
0.05419921875
-0.130035400390625
-0.0355224609375
0.094146728515625
-0.003662109375
-0.0531005859375
0.006591796875
-0.0380859375
-0.0047607421875
0.111724853515625
0.0428466796875
-0.128204345703125
-0.0538330078125
0.15234375
0.0567626953125
-0.1556396484375
-0.0582275390625
0.139190673828125
0.041748046875
-0.097808837890625
-0.0164794921875
0.03955078125
-0.0062255859375
0.0223388671875
0.0281982421875
-0.089752197265625
-0.0435791015625
0.131866455078125
0.04833984375
-0.151611328125
-0.057861328125
0.1611328125
0.057861328125
-0.141021728515625
-0.040283203125
0.108428955078125
0.021240234375
-0.0516357421875
0.0018310546875
-0.0263671875
-0.0245361328125
0.08642578125
0.0413818359375
-0.128570556640625
-0.0552978515625
0.150909423828125
0.0567626953125
-0.157470703125
-0.0545654296875
0.150909423828125
0.0457763671875
-0.110260009765625
-0.0234375
0.0531005859375
0.0003662109375
0.0120849609375
0.0208740234375
-0.084259033203125
-0.0435791015625
0.127471923828125
0.0560302734375
-0.1461181640625
-0.0574951171875
0.1640625
0.05419921875
-0.150543212890625
-0.044677734375
0.117218017578125
0.0267333984375
-0.064453125
-0.0025634765625
-0.01318359375
-0.0208740234375
0.0743408203125
0.038818359375
-0.126373291015625
-0.0538330078125
0.150177001953125
0.0596923828125
-0.158203125
-0.05419921875
0.161529541015625
0.0457763671875
-0.121978759765625
-0.030029296875
0.063720703125
0.00732421875
-0.000732421875
0.018310546875
-0.074737548828125
-0.0391845703125
0.123077392578125
0.052734375
-0.1475830078125
-0.0589599609375
0.1644287109375
0.0596923828125
-0.156768798828125
-0.0494384765625
0.128936767578125
0.0311279296875
-0.076904296875
-0.0084228515625
0.0003662109375
-0.0164794921875
0.0633544921875
0.0362548828125
-0.123443603515625
-0.0545654296875
0.150543212890625
0.05859375
-0.1622314453125
-0.0589599609375
0.164794921875
0.0487060546875
-0.133697509765625
-0.034423828125
0.076934814453125
0.013916015625
-0.01171875
0.0164794921875
-0.062255859375
-0.0369873046875
0.117218017578125
0.0509033203125
-0.146881103515625
-0.06005859375
0.1666259765625
0.0567626953125
-0.165191650390625
-0.0498046875
0.139190673828125
0.034423828125
-0.087890625
-0.015380859375
0.01171875
-0.0113525390625
0.05419921875
0.035888671875
-0.115386962890625
-0.0498046875
0.149078369140625
0.0582275390625
-0.1600341796875
-0.0615234375
0.1673583984375
0.0494384765625
-0.142852783203125
-0.0380859375
0.090484619140625
0.0157470703125
-0.0267333984375
0.0084228515625
-0.0531005859375
-0.03515625
0.108428955078125
0.049072265625
-0.146148681640625
-0.0552978515625
0.1669921875
0.063720703125
-0.164459228515625
-0.0531005859375
0.147979736328125
0.0377197265625
-0.0985107421875
-0.0179443359375
0.029296875
-0.0047607421875
0.041015625
0.0311279296875
-0.106597900390625
-0.0472412109375
0.148345947265625
0.0560302734375
-0.163330078125
-0.0684814453125
0.166259765625
0.053466796875
-0.150543212890625
-0.0333251953125
0.113189697265625
0.0260009765625
-0.03369140625
0.0025634765625
-0.0413818359375
-0.0289306640625
0.099609375
0.046875
-0.141387939453125
-0.05859375
0.167022705078125
0.063720703125
-0.169189453125
-0.0531005859375
0.159698486328125
0.0450439453125
-0.109161376953125
-0.024169921875
0.041015625
0.00146484375
0.02783203125
0.0263671875
-0.098541259765625
-0.0487060546875
0.142486572265625
0.0567626953125
-0.161865234375
-0.0618896484375
0.1761474609375
0.059326171875
-0.156402587890625
-0.047607421875
0.116119384765625
0.0274658203125
-0.0567626953125
0.0029296875
-0.0230712890625
-0.024169921875
0.0919189453125
0.0413818359375
-0.142852783203125
-0.057861328125
0.164825439453125
0.065185546875
-0.17138671875
-0.0596923828125
0.167755126953125
0.0472412109375
-0.122344970703125
-0.0267333984375
0.059326171875
0.0054931640625
0.01171875
0.024169921875
-0.086822509765625
-0.0435791015625
0.140655517578125
0.056396484375
-0.1607666015625
-0.06591796875
0.179443359375
0.05859375
-0.167022705078125
-0.0501708984375
0.131500244140625
0.0311279296875
-0.0677490234375
-0.005859375
-0.01171875
-0.0223388671875
0.07763671875
0.043212890625
-0.134063720703125
-0.0552978515625
0.168487548828125
0.060791015625
-0.17431640625
-0.062255859375
0.173614501953125
0.0516357421875
-0.134063720703125
-0.034423828125
0.0728759765625
0.008056640625
-0.0040283203125
0.0194091796875
-0.0772705078125
-0.043212890625
0.130035400390625
0.053466796875
-0.161895751953125
-0.062255859375
0.1812744140625
0.0596923828125
-0.174346923828125
-0.052001953125
0.140655517578125
0.0391845703125
-0.084228515625
-0.0087890625
0.00439453125
-0.015380859375
0.06591796875
0.0391845703125
-0.129669189453125
-0.05126953125
0.164459228515625
0.0626220703125
-0.1761474609375
-0.0662841796875
0.176544189453125
0.054931640625
-0.143951416015625
-0.037353515625
0.08935546875
0.0135498046875
-0.019775390625
0.0142822265625
-0.0633544921875
-0.035888671875
0.126373291015625
0.05126953125
-0.158233642578125
-0.066650390625
0.180908203125
0.0626220703125
-0.175811767578125
-0.0574951171875
0.153839111328125
0.041748046875
-0.09521484375
-0.0164794921875
0.0201416015625
-0.0128173828125
0.0516357421875
0.0355224609375
-0.119781494140625
-0.053466796875
0.161529541015625
0.060791015625
-0.1746826171875
-0.066650390625
0.18310546875
0.06005859375
-0.153472900390625
-0.03955078125
0.104400634765625
0.019775390625
-0.0347900390625
0.01171875
-0.0509033203125
-0.032958984375
0.116485595703125
0.050537109375
-0.158966064453125
-0.0596923828125
0.1790771484375
0.0662841796875
-0.179840087890625
-0.0596923828125
0.161529541015625
0.0435791015625
-0.1094970703125
-0.01904296875
0.0362548828125
-0.00146484375
0.038818359375
0.03076171875
-0.114654541015625
-0.0509033203125
0.156402587890625
0.0648193359375
-0.172119140625
-0.0648193359375
0.1871337890625
0.0589599609375
-0.164459228515625
-0.0472412109375
0.116119384765625
0.0260009765625
-0.0479736328125
0.005859375
-0.037353515625
-0.029296875
0.106201171875
0.0498046875
-0.152740478515625
-0.05712890625
0.180938720703125
0.066650390625
-0.1834716796875
-0.0684814453125
0.167022705078125
0.046875
-0.122344970703125
-0.0238037109375
0.0523681640625
0.0040283203125
0.0245361328125
0.0281982421875
-0.103668212890625
-0.046875
0.154571533203125
0.062255859375
-0.1728515625
-0.071044921875
0.18603515625
0.0615234375
-0.173614501953125
-0.0501708984375
0.129302978515625
0.028564453125
-0.0640869140625
-0.0003662109375
-0.0238037109375
-0.022705078125
0.0955810546875
0.0439453125
-0.150909423828125
-0.064453125
0.175445556640625
0.068115234375
-0.185302734375
-0.0611572265625
0.182403564453125
0.0501708984375
-0.134796142578125
-0.0289306640625
0.0670166015625
0.00732421875
0.010986328125
0.021240234375
-0.0933837890625
-0.0472412109375
0.146148681640625
0.0552978515625
-0.174346923828125
-0.0662841796875
0.1907958984375
0.0684814453125
-0.178375244140625
-0.0552978515625
0.142120361328125
0.03662109375
-0.07470703125
-0.005126953125
-0.0069580078125
-0.0245361328125
0.0791015625
0.0450439453125
-0.142486572265625
-0.0567626953125
0.177276611328125
0.065185546875
-0.1878662109375
-0.0673828125
0.186065673828125
0.05419921875
-0.145050048828125
-0.035888671875
0.0816650390625
0.0106201171875
-0.006591796875
0.0157470703125
-0.08203125
-0.0439453125
0.139556884765625
0.0574951171875
-0.170318603515625
-0.066650390625
0.191162109375
0.066650390625
-0.184600830078125
-0.05712890625
0.152740478515625
0.0391845703125
-0.090087890625
-0.0146484375
0.006591796875
-0.0179443359375
0.0673828125
0.038818359375
-0.136993408203125
-0.0545654296875
0.173248291015625
0.0703125
-0.1805419921875
-0.071044921875
0.190093994140625
0.05419921875
-0.158233642578125
-0.0413818359375
0.0985107421875
0.018310546875
-0.022705078125
0.0113525390625
-0.0706787109375
-0.041748046875
0.129302978515625
0.05712890625
-0.167388916015625
-0.0626220703125
0.192626953125
0.0692138671875
-0.188262939453125
-0.0604248046875
0.164093017578125
0.0443115234375
-0.106201171875
-0.018310546875
0.0230712890625
-0.01171875
0.052001953125
0.035888671875
-0.128570556640625
-0.0531005859375
0.172515869140625
0.064453125
-0.1871337890625
-0.0699462890625
0.194854736328125
0.065185546875
-0.163726806640625
-0.0435791015625
0.1124267578125
0.018310546875
-0.0428466796875
0.00732421875
-0.0531005859375
-0.03662109375
0.120849609375
0.050537109375
-0.166656494140625
-0.063720703125
0.192291259765625
0.069580078125
-0.193389892578125
-0.060791015625
0.176177978515625
0.05126953125
-0.1197509765625
-0.021240234375
0.041748046875
-0.0087890625
0.03662109375
0.0238037109375
-0.120147705078125
-0.050537109375
0.169952392578125
0.0662841796875
-0.1845703125
-0.069580078125
0.2010498046875
0.06591796875
-0.173980712890625
-0.0494384765625
0.128204345703125
0.0252685546875
-0.05712890625
0.0040283203125
-0.0362548828125
-0.030029296875
0.1094970703125
0.046875
-0.165191650390625
-0.0611572265625
0.191925048828125
0.06884765625
-0.1966552734375
-0.06591796875
0.183502197265625
0.05126953125
-0.136260986328125
-0.0281982421875
0.0611572265625
0.0032958984375
0.02197265625
0.0252685546875
-0.1080322265625
-0.047607421875
0.161529541015625
0.0640869140625
-0.185699462890625
-0.0684814453125
0.205078125
0.0662841796875
-0.188262939453125
-0.0531005859375
0.143218994140625
0.0296630859375
-0.076171875
-0.0054931640625
-0.02197265625
-0.0230712890625
0.0955810546875
0.0465087890625
-0.158966064453125
-0.06298828125
0.190826416015625
0.0692138671875
-0.20068359375
-0.0655517578125
0.196685791015625
0.0556640625
-0.150177001953125
-0.0355224609375
0.076171875
0.0084228515625
0.0010986328125
0.0223388671875
-0.094482421875
-0.0457763671875
0.157135009765625
0.0615234375
-0.185699462890625
-0.0692138671875
0.207275390625
0.06884765625
-0.195953369140625
-0.0574951171875
0.158966064453125
0.0391845703125
-0.0911865234375
-0.01171875
-0.0025634765625
-0.021240234375
0.0823974609375
0.046142578125
-0.152374267578125
-0.059326171875
0.190826416015625
0.0699462890625
-0.201416015625
-0.0673828125
0.205841064453125
0.0567626953125
-0.164459228515625
-0.04248046875
0.094482421875
0.01904296875
-0.01318359375
0.0146484375
-0.0809326171875
-0.04833984375
0.144317626953125
0.060791015625
-0.184967041015625
-0.0662841796875
0.2109375
0.072509765625
-0.203643798828125
-0.0618896484375
0.171783447265625
0.041015625
-0.109130859375
-0.015380859375
0.0172119140625
-0.015380859375
0.0670166015625
0.03662109375
-0.145050048828125
-0.0596923828125
0.187164306640625
0.0673828125
-0.202880859375
-0.06591796875
0.216094970703125
0.06298828125
-0.176177978515625
-0.0465087890625
0.1131591796875
0.021240234375
-0.0340576171875
0.0106201171875
-0.0640869140625
-0.04248046875
0.135498046875
0.0596923828125
-0.182037353515625
-0.0615234375
0.210968017578125
0.06884765625
-0.213531494140625
-0.0633544921875
0.183868408203125
0.0494384765625
-0.1259765625
-0.0205078125
0.03662109375
-0.0076904296875
0.046875
0.0322265625
-0.135162353515625
-0.0552978515625
0.184234619140625
0.0677490234375
-0.2025146484375
-0.0703125
0.2178955078125
0.0677490234375
-0.186798095703125
-0.0538330078125
0.131500244140625
0.0260009765625
-0.053466796875
0.00732421875
-0.0450439453125
-0.035888671875
0.122314453125
0.05419921875
-0.177276611328125
-0.064453125
0.208404541015625
0.0692138671875
-0.213897705078125
-0.0673828125
0.196319580078125
0.0538330078125
-0.140625
-0.02490234375
0.0626220703125
0.0010986328125
0.0318603515625
0.02783203125
-0.1190185546875
-0.0538330078125
0.177642822265625
0.06298828125
-0.201812744140625
-0.0732421875
0.2197265625
0.0692138671875
-0.197052001953125
-0.053466796875
0.150177001953125
0.03076171875
-0.075439453125
-0.0003662109375
-0.0260009765625
-0.0267333984375
0.1083984375
0.0501708984375
-0.171783447265625
-0.068115234375
0.205108642578125
0.0684814453125
-0.214599609375
-0.065185546875
0.209136962890625
0.05712890625
-0.157501220703125
-0.03515625
0.0791015625
0.006591796875
0.006591796875
0.0238037109375
-0.1058349609375
-0.0479736328125
0.169586181640625
0.0626220703125
-0.199249267578125
-0.0728759765625
0.221923828125
0.0736083984375
-0.204010009765625
-0.0560302734375
0.164825439453125
0.0362548828125
-0.1043701171875
-0.01025390625
-0.0179443359375
-0.022705078125
0.0772705078125
0.0439453125
-0.139923095703125
-0.059326171875
0.243927001953125
0.0703125
-0.199951171875
-0.0728759765625
0.229278564453125
0.0611572265625
-0.163360595703125
-0.0406494140625
0.104736328125
0.0150146484375
-0.006591796875
0.0179443359375
-0.079833984375
-0.0443115234375
0.162261962890625
0.0615234375
-0.193756103515625
-0.0699462890625
0.2222900390625
0.071044921875
-0.217559814453125
-0.06298828125
0.181304931640625
0.0439453125
-0.1142578125
-0.0146484375
0.0157470703125
-0.01611328125
0.0684814453125
0.0399169921875
-0.1552734375
-0.0574951171875
0.198150634765625
0.06884765625
-0.218292236328125
-0.0714111328125
0.221221923828125
0.0626220703125
-0.190460205078125
-0.049072265625
0.1171875
0.0223388671875
-0.0384521484375
0.0135498046875
-0.0699462890625
-0.0377197265625
0.142486572265625
0.0545654296875
-0.197784423828125
-0.071044921875
0.217529296875
0.0721435546875
-0.225616455078125
-0.064453125
0.195220947265625
0.0531005859375
-0.1329345703125
-0.0238037109375
0.0384521484375
-0.0062255859375
0.0465087890625
0.0347900390625
-0.1435546875
-0.0589599609375
0.190093994140625
0.068115234375
-0.219390869140625
-0.0732421875
0.227447509765625
0.068115234375
-0.203277587890625
-0.0523681640625
0.14208984375
0.027099609375
-0.0626220703125
0.003662109375
-0.0487060546875
-0.030029296875
0.1292724609375
0.0560302734375
-0.190460205078125
-0.069580078125
0.217926025390625
0.0721435546875
-0.230743408203125
-0.069580078125
0.210968017578125
0.05419921875
-0.1556396484375
-0.031494140625
0.064453125
0.0018310546875
0.02490234375
0.031494140625
-0.125244140625
-0.0523681640625
0.186798095703125
0.065185546875
-0.216461181640625
-0.0736083984375
0.2347412109375
0.0699462890625
-0.218658447265625
-0.0589599609375
0.164459228515625
0.034423828125
-0.0860595703125
-0.003662109375
-0.02490234375
-0.0260009765625
0.110595703125
0.050537109375
-0.183502197265625
-0.0626220703125
0.220855712890625
0.072509765625
-0.232940673828125
-0.0736083984375
0.225250244140625
0.06005859375
-0.17431640625
-0.0377197265625
0.091552734375
0.005859375
0.0
0.0208740234375
-0.1080322265625
-0.04833984375
0.1761474609375
0.0640869140625
-0.215728759765625
-0.068115234375
0.239898681640625
0.073974609375
-0.230010986328125
-0.06298828125
0.187164306640625
0.0406494140625
-0.111328125
-0.01171875
0.0003662109375
-0.018310546875
0.0911865234375
0.046142578125
-0.173248291015625
-0.062255859375
0.218658447265625
0.06884765625
-0.2354736328125
-0.0750732421875
0.240264892578125
0.0633544921875
-0.193756103515625
-0.0435791015625
0.1182861328125
0.0172119140625
-0.0245361328125
0.01318359375
-0.0860595703125
-0.041748046875
0.169189453125
0.0615234375
-0.210968017578125
-0.073974609375
0.242462158203125
0.0692138671875
-0.235870361328125
-0.0714111328125
0.208404541015625
0.046142578125
-0.1300048828125
-0.019775390625
0.0325927734375
-0.012451171875
0.0662841796875
0.0384521484375
-0.15966796875
-0.0574951171875
0.216094970703125
0.0692138671875
-0.235137939453125
-0.0743408203125
0.247955322265625
0.06884765625
-0.208404541015625
-0.0523681640625
0.1424560546875
0.0274658203125
-0.0516357421875
0.010986328125
-0.060791015625
-0.0380859375
0.147216796875
0.056396484375
-0.207305908203125
-0.0703125
0.240264892578125
0.0732421875
-0.245025634765625
-0.068115234375
0.221954345703125
0.05419921875
-0.1527099609375
-0.0267333984375
0.05859375
-0.000732421875
0.040283203125
0.0333251953125
-0.139892578125
-0.0582275390625
0.204376220703125
0.0673828125
-0.233306884765625
-0.07470703125
0.249786376953125
0.0703125
-0.224884033203125
-0.05419921875
0.1673583984375
0.0322265625
-0.0791015625
-0.0018310546875
-0.0355224609375
-0.0303955078125
0.1270751953125
0.05419921875
-0.197052001953125
-0.0648193359375
0.236968994140625
0.0703125
-0.247955322265625
-0.0736083984375
0.235137939453125
0.0615234375
-0.1728515625
-0.0347900390625
0.0849609375
0.0062255859375
0.0106201171875
0.02783203125
-0.1201171875
-0.050537109375
0.192291259765625
0.065185546875
-0.228179931640625
-0.0750732421875
0.2515869140625
0.0758056640625
-0.233673095703125
-0.0596923828125
0.188995361328125
0.0380859375
-0.10693359375
-0.0098876953125
-0.0076904296875
-0.0223388671875
0.10400390625
0.04833984375
-0.185699462890625
-0.065185546875
0.228912353515625
0.0732421875
-0.24609375
-0.0728759765625
0.245758056640625
0.064453125
-0.193389892578125
-0.0443115234375
0.1138916015625
0.0146484375
-0.018310546875
0.0186767578125
-0.097412109375
-0.0450439453125
0.177978515625
0.06298828125
-0.222686767578125
-0.0750732421875
0.249786376953125
0.0765380859375
-0.246490478515625
-0.0655517578125
0.208038330078125
0.0443115234375
-0.1307373046875
-0.0172119140625
0.02197265625
-0.0150146484375
0.0758056640625
0.0428466796875
-0.170654296875
-0.0611572265625
0.224884033203125
0.072509765625
-0.243194580078125
-0.0736083984375
0.256378173828125
0.0670166015625
-0.213165283203125
-0.05126953125
0.141357421875
0.0201416015625
-0.047607421875
0.009521484375
-0.07177734375
-0.0369873046875
0.1593017578125
0.05859375
-0.217926025390625
-0.0728759765625
0.250885009765625
0.07763671875
-0.251617431640625
-0.0699462890625
0.228179931640625
0.0516357421875
-0.154541015625
-0.02490234375
0.053466796875
-0.005859375
0.049072265625
0.034423828125
-0.154541015625
-0.0582275390625
0.215362548828125
0.0699462890625
-0.241363525390625
-0.07470703125
0.262237548828125
0.0714111328125
-0.230377197265625
-0.056396484375
0.1680908203125
0.0311279296875
-0.0772705078125
0.00146484375
-0.04248046875
-0.0340576171875
0.1365966796875
0.053466796875
-0.208770751953125
-0.06591796875
0.250885009765625
0.0758056640625
-0.259307861328125
-0.073974609375
0.243927001953125
0.059326171875
-0.1776123046875
-0.0347900390625
0.0845947265625
0.005859375
0.0194091796875
0.0267333984375
-0.1318359375
-0.0582275390625
0.203643798828125
0.0692138671875
-0.238067626953125
-0.0706787109375
0.2662353515625
0.0728759765625
-0.246490478515625
-0.0640869140625
0.193389892578125
0.03662109375
-0.1065673828125
-0.01025390625
-0.0146484375
-0.024169921875
0.11279296875
0.052001953125
-0.196319580078125
-0.0655517578125
0.245758056640625
0.07470703125
-0.2581787109375
-0.0758056640625
0.256378173828125
0.0640869140625
-0.199981689453125
-0.0380859375
0.1182861328125
0.0113525390625
-0.01318359375
0.0172119140625
-0.109130859375
-0.0439453125
0.1915283203125
0.0662841796875
-0.233306884765625
-0.075439453125
0.262603759765625
0.0714111328125
-0.256011962890625
-0.0699462890625
0.213531494140625
0.0443115234375
-0.1336669921875
-0.0120849609375
0.0223388671875
-0.0135498046875
0.0838623046875
0.041748046875
-0.1805419921875
-0.060791015625
0.236968994140625
0.073974609375
-0.257110595703125
-0.07763671875
0.264068603515625
0.06591796875
-0.220855712890625
-0.04541015625
0.1475830078125
0.0201416015625
-0.0450439453125
0.0084228515625
-0.0791015625
-0.0380859375
0.167724609375
0.062255859375
-0.225250244140625
-0.07177734375
0.260772705078125
0.0758056640625
-0.262969970703125
-0.0699462890625
0.233673095703125
0.0494384765625
-0.160400390625
-0.0238037109375
0.053466796875
-0.0047607421875
0.0516357421875
0.0362548828125
-0.158935546875
-0.0567626953125
0.225250244140625
0.0699462890625
-0.253082275390625
-0.076171875
0.269195556640625
0.0714111328125
-0.237335205078125
-0.0552978515625
0.1732177734375
0.030029296875
-0.0787353515625
0.0025634765625
-0.046142578125
-0.0303955078125
0.1417236328125
0.05419921875
-0.215362548828125
-0.0699462890625
0.255279541015625
0.07470703125
-0.265899658203125
-0.073974609375
0.251251220703125
0.0596923828125
-0.1849365234375
-0.032958984375
0.08935546875
0.002197265625
0.016845703125
0.0274658203125
-0.134765625
-0.0531005859375
0.209136962890625
0.0677490234375
-0.247955322265625
-0.0706787109375
0.2724609375
0.0732421875
-0.254547119140625
-0.064453125
0.199249267578125
0.038818359375
-0.1124267578125
-0.008056640625
-0.0106201171875
-0.0230712890625
0.113525390625
0.050537109375
-0.199615478515625
-0.0633544921875
0.250885009765625
0.0732421875
-0.267364501953125
-0.076171875
0.265167236328125
0.063720703125
-0.2098388671875
-0.0443115234375
0.1241455078125
0.0135498046875
-0.018310546875
0.0208740234375
-0.1065673828125
-0.0443115234375
0.1904296875
0.0618896484375
-0.239898681640625
-0.0728759765625
0.273590087890625
0.073974609375
-0.265533447265625
-0.069580078125
0.225982666015625
0.049072265625
-0.1435546875
-0.0186767578125
0.0263671875
-0.0128173828125
0.0794677734375
0.0450439453125
-0.1798095703125
-0.0618896484375
0.242828369140625
0.0706787109375
-0.265899658203125
-0.076904296875
0.275421142578125
0.0699462890625
-0.231842041015625
-0.05126953125
0.1593017578125
0.0234375
-0.05419921875
0.0084228515625
-0.07177734375
-0.0369873046875
0.1658935546875
0.0574951171875
-0.233306884765625
-0.07177734375
0.270660400390625
0.0780029296875
-0.272491455078125
-0.0743408203125
0.248687744140625
0.054931640625
-0.1739501953125
-0.0263671875
0.0677490234375
-0.0040283203125
0.04248046875
0.034423828125
-0.157470703125
-0.0560302734375
0.231109619140625
0.0699462890625
-0.263336181640625
-0.0772705078125
0.284210205078125
0.07177734375
-0.252716064453125
-0.0574951171875
0.1915283203125
0.037353515625
-0.0926513671875
-0.002197265625
-0.038818359375
-0.031494140625
0.1376953125
0.0556640625
-0.218658447265625
-0.06884765625
0.266632080078125
0.07763671875
-0.279083251953125
-0.076171875
0.270294189453125
0.05712890625
-0.205078125
-0.0384521484375
0.1043701171875
0.0084228515625
0.005126953125
0.0260009765625
-0.1307373046875
-0.0501708984375
0.2138671875
0.068115234375
-0.258209228515625
-0.075439453125
0.288238525390625
0.0743408203125
-0.272857666015625
-0.0673828125
0.222320556640625
0.0406494140625
-0.1300048828125
-0.0084228515625
0.0029296875
-0.0172119140625
0.106201171875
0.0465087890625
-0.205810546875
-0.06591796875
0.260406494140625
0.0743408203125
-0.282012939453125
-0.0765380859375
0.287506103515625
0.0692138671875
-0.231475830078125
-0.0472412109375
0.1453857421875
0.0164794921875
-0.03515625
0.017578125
-0.09814453125
-0.0421142578125
0.193359375
0.062255859375
-0.254913330078125
-0.0736083984375
0.287506103515625
0.0772705078125
-0.287506103515625
-0.0736083984375
0.250518798828125
0.0487060546875
-0.1651611328125
-0.021240234375
0.046875
-0.00732421875
0.071044921875
0.0413818359375
-0.1842041015625
-0.06005859375
0.254180908203125
0.0714111328125
-0.281646728515625
-0.0809326171875
0.299591064453125
0.07177734375
-0.255279541015625
-0.054931640625
0.1827392578125
0.025634765625
-0.0765380859375
0.00732421875
-0.06298828125
-0.0318603515625
0.1680908203125
0.056396484375
-0.242095947265625
-0.0721435546875
0.287506103515625
0.0780029296875
-0.293731689453125
-0.076171875
0.275421142578125
0.05859375
-0.1951904296875
-0.03076171875
0.0882568359375
0.0
0.02783203125
0.03076171875
-0.1571044921875
-0.05419921875
0.240264892578125
0.07177734375
-0.276519775390625
-0.079833984375
0.304351806640625
0.07177734375
-0.276885986328125
-0.060791015625
0.2156982421875
0.03955078125
-0.11279296875
-0.00439453125
-0.0223388671875
-0.0263671875
0.134765625
0.0516357421875
-0.226348876953125
-0.068115234375
0.278350830078125
0.0758056640625
-0.295196533203125
-0.0791015625
0.292999267578125
0.06591796875
-0.2255859375
-0.040283203125
0.1285400390625
0.0128173828125
-0.0113525390625
0.021240234375
-0.1256103515625
-0.0479736328125
0.2186279296875
0.069580078125
-0.266632080078125
-0.075439453125
0.303619384765625
0.076904296875
-0.291900634765625
-0.0699462890625
0.242095947265625
0.0457763671875
-0.1505126953125
-0.0150146484375
0.0208740234375
-0.0172119140625
0.0966796875
0.044677734375
-0.20654296875
-0.0611572265625
0.270660400390625
0.0728759765625
-0.291534423828125
-0.0823974609375
0.303985595703125
0.0714111328125
-0.249420166015625
-0.05126953125
0.1651611328125
0.021240234375
-0.05419921875
0.013916015625
-0.0889892578125
-0.03955078125
0.191162109375
0.0615234375
-0.257110595703125
-0.0743408203125
0.298492431640625
0.0787353515625
-0.297027587890625
-0.07470703125
0.267730712890625
0.0538330078125
-0.182373046875
-0.0245361328125
0.0640869140625
-0.0054931640625
0.05419921875
0.0369873046875
-0.1776123046875
-0.0582275390625
0.256011962890625
0.0699462890625
-0.289337158203125
-0.0794677734375
0.308380126953125
0.0758056640625
-0.271026611328125
-0.06005859375
0.199951171875
0.031494140625
-0.094482421875
0.0025634765625
-0.0472412109375
-0.029296875
0.15966796875
0.05712890625
-0.241363525390625
-0.0732421875
0.289703369140625
0.07763671875
-0.300689697265625
-0.0772705078125
0.287872314453125
0.0589599609375
-0.216064453125
-0.0380859375
0.106201171875
0.0062255859375
0.0113525390625
0.030029296875
-0.1453857421875
-0.0501708984375
0.2373046875
0.06884765625
-0.279449462890625
-0.0802001953125
0.30987548828125
0.0787353515625
-0.290435791015625
-0.0655517578125
0.2318115234375
0.03955078125
-0.135528564453125
-0.0091552734375
-0.0040283203125
-0.0208740234375
0.120147705078125
0.0472412109375
-0.22412109375
-0.064453125
0.283477783203125
0.0780029296875
-0.301788330078125
-0.0831298828125
0.302520751953125
0.0673828125
-0.243560791015625
-0.0472412109375
0.1494140625
0.01611328125
-0.0318603515625
0.0205078125
-0.10986328125
-0.041748046875
0.2109375
0.06591796875
-0.269195556640625
-0.0794677734375
0.307647705078125
0.0791015625
-0.305450439453125
-0.07177734375
0.262237548828125
0.0472412109375
-0.173614501953125
-0.0205078125
0.0413818359375
-0.0087890625
0.080963134765625
0.043212890625
-0.197021484375
-0.064453125
0.268463134765625
0.0728759765625
-0.298492431640625
-0.07763671875
0.315704345703125
0.076171875
-0.270294189453125
-0.0567626953125
0.188232421875
0.0245361328125
-0.078765869140625
0.0069580078125
-0.068115234375
-0.0347900390625
0.179107666015625
0.0618896484375
-0.258209228515625
-0.073974609375
0.303619384765625
0.07763671875
-0.311309814453125
-0.0750732421875
0.290435791015625
0.060791015625
-0.206939697265625
-0.0318603515625
0.088623046875
0.0
0.033355712890625
0.0318603515625
-0.1669921875
-0.056396484375
0.251953125
0.0706787109375
-0.291900634765625
-0.0802001953125
0.32196044921875
0.0780029296875
-0.294097900390625
-0.0615234375
0.2303466796875
0.037353515625
-0.121612548828125
-0.0062255859375
-0.0252685546875
-0.024169921875
0.143585205078125
0.05419921875
-0.240997314453125
-0.07177734375
0.297393798828125
0.076171875
-0.312408447265625
-0.0802001953125
0.308380126953125
0.0662841796875
-0.239501953125
-0.043212890625
0.136627197265625
0.0128173828125
-0.0157470703125
0.0234375
-0.128570556640625
-0.049072265625
0.229248046875
0.0703125
-0.283111572265625
-0.0791015625
0.321197509765625
0.07763671875
-0.310211181640625
-0.0703125
0.261505126953125
0.0479736328125
-0.161529541015625
-0.0172119140625
0.024169921875
-0.0135498046875
0.100006103515625
0.0487060546875
-0.2138671875
-0.066650390625
0.285308837890625
0.0743408203125
-0.307647705078125
-0.08203125
0.321929931640625
0.0703125
-0.269561767578125
-0.05419921875
0.177642822265625
0.0252685546875
-0.058624267578125
0.012451171875
-0.086822509765625
-0.0399169921875
0.196319580078125
0.0640869140625
-0.267364501953125
-0.0736083984375
0.315704345703125
0.0787353515625
-0.318634033203125
-0.0802001953125
0.284942626953125
0.0552978515625
-0.198883056640625
-0.0252685546875
0.075469970703125
-0.0054931640625
0.052032470703125
0.035888671875
-0.183502197265625
-0.05859375
0.266265869140625
0.0732421875
-0.299591064453125
-0.0809326171875
0.326690673828125
0.075439453125
-0.291900634765625
-0.062255859375
0.2178955078125
0.034423828125
-0.107696533203125
0.0010986328125
-0.0399169921875
-0.028564453125
0.160064697265625
0.0574951171875
-0.249420166015625
-0.0721435546875
0.304718017578125
0.0794677734375
-0.318634033203125
-0.082763671875
0.305084228515625
0.0626220703125
-0.2340087890625
-0.0384521484375
0.122711181640625
0.0087890625
0.0010986328125
0.0252685546875
-0.144683837890625
-0.0523681640625
0.240966796875
0.072509765625
-0.288604736328125
-0.081298828125
0.32489013671875
0.076904296875
-0.312774658203125
-0.0670166015625
0.2552490234375
0.046142578125
-0.152374267578125
-0.0135498046875
0.00732421875
-0.016845703125
0.113555908203125
0.052001953125
-0.224853515625
-0.0699462890625
0.292999267578125
0.0780029296875
-0.314971923828125
-0.081298828125
0.324859619140625
0.0692138671875
-0.266265869140625
-0.0498046875
0.170684814453125
0.0205078125
-0.051666259765625
0.0142822265625
-0.102569580078125
-0.04248046875
0.211334228515625
0.0662841796875
-0.280181884765625
-0.079833984375
0.323394775390625
0.0802001953125
-0.323760986328125
-0.076904296875
0.286407470703125
0.05419921875
-0.196319580078125
-0.0234375
0.061187744140625
-0.0040283203125
0.069610595703125
0.0421142578125
-0.196685791015625
-0.06298828125
0.277252197265625
0.0728759765625
-0.314239501953125
-0.08642578125
0.334014892578125
0.0772705078125
-0.294097900390625
-0.0574951171875
0.213531494140625
0.0318603515625
-0.100372314453125
0.003662109375
-0.054229736328125
-0.0325927734375
0.175445556640625
0.05859375
-0.265533447265625
-0.071044921875
0.319732666015625
0.0791015625
-0.332550048828125
-0.0853271484375
0.312042236328125
0.0655517578125
-0.232574462890625
-0.0347900390625
0.113555908203125
0.0062255859375
0.0164794921875
0.0303955078125
-0.161529541015625
-0.05712890625
0.256378173828125
0.0703125
-0.305450439453125
-0.08056640625
0.34283447265625
0.08056640625
-0.318634033203125
-0.0677490234375
0.254150390625
0.0428466796875
-0.150177001953125
-0.01025390625
-0.0054931640625
-0.0245361328125
0.132598876953125
0.0545654296875
-0.243896484375
-0.0699462890625
0.310577392578125
0.075439453125
-0.33148193359375
-0.082763671875
0.335845947265625
0.0706787109375
-0.26806640625
-0.0443115234375
0.165924072265625
0.0186767578125
-0.038482666015625
0.0157470703125
-0.121612548828125
-0.0439453125
0.231842041015625
0.0677490234375
-0.294830322265625
-0.0845947265625
0.336578369140625
0.081298828125
-0.334014892578125
-0.0732421875
0.292266845703125
0.0538330078125
-0.193023681640625
-0.0230712890625
0.049102783203125
-0.0098876953125
0.082061767578125
0.0428466796875
-0.214630126953125
-0.0670166015625
0.296295166015625
0.0787353515625
-0.324127197265625
-0.0831298828125
0.349761962890625
0.0728759765625
-0.302886962890625
-0.0556640625
0.211700439453125
0.0311279296875
-0.090118408203125
0.0040283203125
-0.071807861328125
-0.035888671875
0.192291259765625
0.0615234375
-0.280181884765625
-0.0765380859375
0.333648681640625
0.0823974609375
-0.339874267578125
-0.082763671875
0.320098876953125
0.0604248046875
-0.234405517578125
-0.03076171875
0.107330322265625
0.00439453125
0.0289306640625
0.032958984375
-0.176544189453125
-0.0615234375
0.273590087890625
0.0721435546875
-0.318634033203125
-0.08056640625
0.35455322265625
0.0794677734375
-0.325958251953125
-0.0670166015625
0.253448486328125
0.04248046875
-0.142486572265625
-0.005126953125
-0.015045166015625
-0.025634765625
0.147979736328125
0.052001953125
-0.257080078125
-0.073974609375
0.323028564453125
0.0816650390625
-0.34246826171875
-0.082763671875
0.343536376953125
0.0673828125
-0.272491455078125
-0.044677734375
0.158966064453125
0.0186767578125
-0.0238037109375
0.02197265625
-0.131134033203125
-0.0501708984375
0.243194580078125
0.0673828125
-0.307647705078125
-0.0809326171875
0.350128173828125
0.081298828125
-0.342437744140625
-0.0743408203125
0.291900634765625
0.05126953125
-0.192291259765625
-0.0205078125
0.041412353515625
-0.01025390625
0.096343994140625
0.0457763671875
-0.223052978515625
-0.0677490234375
0.309112548828125
0.0765380859375
-0.338409423828125
-0.0845947265625
0.357086181640625
0.07763671875
-0.305450439453125
-0.056396484375
0.210235595703125
0.0274658203125
-0.086822509765625
0.0087890625
-0.079132080078125
-0.040283203125
0.205108642578125
0.0618896484375
-0.289703369140625
-0.0765380859375
0.343902587890625
0.0816650390625
-0.353424072265625
-0.0791015625
0.328887939453125
0.062255859375
-0.236968994140625
-0.03369140625
0.101837158203125
0.002197265625
0.0377197265625
0.0355224609375
-0.186431884765625
-0.0611572265625
0.285675048828125
0.0721435546875
-0.329254150390625
-0.08349609375
0.36407470703125
0.0787353515625
-0.335479736328125
-0.0662841796875
0.259674072265625
0.043212890625
-0.141021728515625
-0.00439453125
-0.0205078125
-0.027099609375
0.156768798828125
0.053466796875
-0.266632080078125
-0.0743408203125
0.335845947265625
0.081298828125
-0.35198974609375
-0.081298828125
0.353790283203125
0.06884765625
-0.280548095703125
-0.0457763671875
0.161895751953125
0.015380859375
-0.02490234375
0.0208740234375
-0.135528564453125
-0.0498046875
0.255279541015625
0.0684814453125
-0.319000244140625
-0.0809326171875
0.363677978515625
0.08203125
-0.354888916015625
-0.073974609375
0.29962158203125
0.052001953125
-0.193023681640625
-0.0201416015625
0.0413818359375
-0.0113525390625
0.098907470703125
0.0439453125
-0.231842041015625
-0.0677490234375
0.316802978515625
0.0791015625
-0.345001220703125
-0.0845947265625
0.366607666015625
0.0743408203125
-0.315338134765625
-0.056396484375
0.217926025390625
0.0296630859375
-0.086822509765625
0.00732421875
-0.081329345703125
-0.037353515625
0.209503173828125
0.0618896484375
-0.297393798828125
-0.078369140625
0.352325439453125
0.0816650390625
-0.362213134765625
-0.0802001953125
0.332550048828125
0.06298828125
-0.239898681640625
-0.0333251953125
0.106964111328125
0.0040283203125
0.0377197265625
0.034423828125
-0.186798095703125
-0.0615234375
0.287872314453125
0.07177734375
-0.335479736328125
-0.0831298828125
0.36920166015625
0.081298828125
-0.341339111328125
-0.0677490234375
0.262969970703125
0.041748046875
-0.145782470703125
-0.003662109375
-0.016845703125
-0.0263671875
0.153472900390625
0.0523681640625
-0.268829345703125
-0.0728759765625
0.338043212890625
0.078369140625
-0.35821533203125
-0.0831298828125
0.357452392578125
0.0721435546875
-0.282012939453125
-0.0465087890625
0.167022705078125
0.0150146484375
-0.029296875
0.0216064453125
-0.135162353515625
-0.0494384765625
0.250885009765625
0.0662841796875
-0.320098876953125
-0.079833984375
0.365509033203125
0.0838623046875
-0.357086181640625
-0.0736083984375
0.30584716796875
0.052734375
-0.198883056640625
-0.021240234375
0.046142578125
-0.009521484375
0.096343994140625
0.0450439453125
-0.230010986328125
-0.06591796875
0.315704345703125
0.076904296875
-0.347930908203125
-0.0853271484375
0.368072509765625
0.0772705078125
-0.318634033203125
-0.05859375
0.222320556640625
0.0289306640625
-0.095245361328125
0.0084228515625
-0.074371337890625
-0.0384521484375
0.205108642578125
0.0611572265625
-0.298126220703125
-0.0758056640625
0.353790283203125
0.0809326171875
-0.365875244140625
-0.08056640625
0.337677001953125
0.062255859375
-0.250152587890625
-0.032958984375
0.113922119140625
0.003662109375
0.0281982421875
0.0322265625
-0.183135986328125
-0.0574951171875
0.289337158203125
0.071044921875
-0.339141845703125
-0.082763671875
0.37359619140625
0.08349609375
-0.349761962890625
-0.0703125
0.271759033203125
0.0399169921875
-0.158966064453125
-0.005126953125
-0.0084228515625
-0.022705078125
0.150177001953125
0.0531005859375
-0.271392822265625
-0.0721435546875
0.343902587890625
0.07763671875
-0.36663818359375
-0.0831298828125
0.365875244140625
0.07470703125
-0.294097900390625
-0.046142578125
0.179473876953125
0.0172119140625
-0.040283203125
0.017578125
-0.133697509765625
-0.049072265625
0.250885009765625
0.065185546875
-0.325958251953125
-0.0780029296875
0.375396728515625
0.085693359375
-0.371734619140625
-0.078369140625
0.31976318359375
0.054931640625
-0.215362548828125
-0.0201416015625
0.0615234375
-0.0106201171875
0.08642578125
0.0428466796875
-0.235504150390625
-0.0673828125
0.32525634765625
0.075439453125
-0.363677978515625
-0.082763671875
0.388214111328125
0.076904296875
-0.33880615234375
-0.0615234375
0.236602783203125
0.032958984375
-0.106201171875
0.006591796875
-0.066650390625
-0.0355224609375
0.207305908203125
0.060791015625
-0.30767822265625
-0.0787353515625
0.369537353515625
0.081298828125
-0.384185791015625
-0.079833984375
0.360748291015625
0.0673828125
-0.265899658203125
-0.0377197265625
0.127471923828125
0.0062255859375
0.022705078125
0.0318603515625
-0.184967041015625
-0.0589599609375
0.299224853515625
0.07177734375
-0.351959228515625
-0.084228515625
0.39263916015625
0.08349609375
-0.367340087890625
-0.069580078125
0.291900634765625
0.0457763671875
-0.170684814453125
-0.0113525390625
-0.000732421875
-0.02490234375
0.148345947265625
0.0545654296875
-0.274688720703125
-0.0732421875
0.356353759765625
0.0791015625
-0.38201904296875
-0.082763671875
0.387115478515625
0.072509765625
-0.312042236328125
-0.0494384765625
0.194122314453125
0.0216064453125
-0.0465087890625
0.01611328125
-0.128936767578125
-0.0472412109375
0.253814697265625
0.0662841796875
-0.332916259765625
-0.081298828125
0.386749267578125
0.0853271484375
-0.386016845703125
-0.076904296875
0.33697509765625
0.0567626953125
-0.227813720703125
-0.024169921875
0.0721435546875
-0.00732421875
0.0831298828125
0.03955078125
-0.231842041015625
-0.0662841796875
0.33258056640625
0.07763671875
-0.369903564453125
-0.0845947265625
0.394073486328125
0.0802001953125
-0.35052490234375
-0.0604248046875
0.254547119140625
0.0333251953125
-0.116455078125
0.0010986328125
-0.0604248046875
-0.034423828125
0.201080322265625
0.0589599609375
-0.308380126953125
-0.0772705078125
0.373931884765625
0.0849609375
-0.39044189453125
-0.081298828125
0.372100830078125
0.06591796875
-0.280914306640625
-0.041748046875
0.139923095703125
0.0069580078125
0.009521484375
0.03076171875
-0.179840087890625
-0.0567626953125
0.298858642578125
0.0706787109375
-0.355621337890625
-0.0845947265625
0.39666748046875
0.08203125
-0.380523681640625
-0.0703125
0.307281494140625
0.0501708984375
-0.181671142578125
-0.0128173828125
0.0098876953125
-0.022705078125
0.138092041015625
0.052001953125
-0.274322509765625
-0.0692138671875
0.359283447265625
0.0794677734375
-0.38934326171875
-0.084228515625
0.395904541015625
0.0758056640625
-0.327056884765625
-0.0552978515625
0.208770751953125
0.0208740234375
-0.06298828125
0.0146484375
-0.119781494140625
-0.0457763671875
0.253082275390625
0.068115234375
-0.341339111328125
-0.0787353515625
0.397735595703125
0.084228515625
-0.398468017578125
-0.078369140625
0.35089111328125
0.0604248046875
-0.242462158203125
-0.0289306640625
0.0853271484375
-0.005126953125
0.0732421875
0.03955078125
-0.230010986328125
-0.0655517578125
0.336944580078125
0.078369140625
-0.382720947265625
-0.08642578125
0.40911865234375
0.0831298828125
-0.36737060546875
-0.0618896484375
0.272491455078125
0.0347900390625
-0.1343994140625
-0.0018310546875
-0.0509033203125
-0.0347900390625
0.201080322265625
0.059326171875
-0.317535400390625
-0.07470703125
0.386383056640625
0.0845947265625
-0.40325927734375
-0.0845947265625
0.390411376953125
0.0699462890625
-0.297393798828125
-0.04248046875
0.159698486328125
0.009521484375
-0.00146484375
0.027099609375
-0.177276611328125
-0.0574951171875
0.301055908203125
0.073974609375
-0.370635986328125
-0.08203125
0.41680908203125
0.085693359375
-0.397369384765625
-0.075439453125
0.325225830078125
0.0457763671875
-0.198883056640625
-0.0146484375
0.0238037109375
-0.0164794921875
0.136962890625
0.0498046875
-0.278717041015625
-0.0732421875
0.36810302734375
0.081298828125
-0.40435791015625
-0.0849609375
0.416778564453125
0.0780029296875
-0.344268798828125
-0.05419921875
0.229278564453125
0.0238037109375
-0.0732421875
0.0142822265625
-0.113525390625
-0.04541015625
0.255279541015625
0.0662841796875
-0.35015869140625
-0.0794677734375
0.410186767578125
0.0853271484375
-0.414215087890625
-0.0809326171875
0.37176513671875
0.0604248046875
-0.258575439453125
-0.03076171875
0.0970458984375
-0.0040283203125
0.06298828125
0.0377197265625
-0.230743408203125
-0.0626220703125
0.344635009765625
0.0794677734375
-0.390045166015625
-0.0897216796875
0.42376708984375
0.08349609375
-0.38494873046875
-0.0626220703125
0.291534423828125
0.037353515625
-0.147216796875
-0.00146484375
-0.041015625
-0.031494140625
0.196319580078125
0.0582275390625
-0.322296142578125
-0.0765380859375
0.396270751953125
0.0867919921875
-0.41644287109375
-0.0853271484375
0.405059814453125
0.0677490234375
-0.316070556640625
-0.0439453125
0.178375244140625
0.0120849609375
-0.012451171875
0.025634765625
-0.175445556640625
-0.0552978515625
0.304351806640625
0.0732421875
-0.379791259765625
-0.0845947265625
0.42596435546875
0.084228515625
-0.414581298828125
-0.07763671875
0.344635009765625
0.0523681640625
-0.213165283203125
-0.0142822265625
0.03662109375
-0.01904296875
0.12890625
0.0487060546875
-0.282745361328125
-0.0703125
0.37579345703125
0.08203125
-0.414215087890625
-0.08642578125
0.429962158203125
0.076904296875
-0.36260986328125
-0.0574951171875
0.247955322265625
0.0252685546875
-0.0908203125
0.01171875
-0.1072998046875
-0.0428466796875
0.255645751953125
0.0677490234375
-0.35675048828125
-0.08056640625
0.421905517578125
0.0845947265625
-0.430328369140625
-0.082763671875
0.39080810546875
0.0604248046875
-0.277252197265625
-0.029296875
0.1146240234375
-0.0003662109375
0.0556640625
0.0355224609375
-0.232940673828125
-0.06298828125
0.347930908203125
0.076904296875
-0.402862548828125
-0.087890625
0.44061279296875
0.0838623046875
-0.40106201171875
-0.06591796875
0.309844970703125
0.040283203125
-0.1614990234375
-0.0040283203125
-0.032958984375
-0.0296630859375
0.193389892578125
0.0596923828125
-0.323760986328125
-0.0765380859375
0.406158447265625
0.082763671875
-0.43255615234375
-0.085693359375
0.426300048828125
0.0714111328125
-0.329620361328125
-0.0465087890625
0.187164306640625
0.0142822265625
-0.0234375
0.02490234375
-0.169921875
-0.05419921875
0.306915283203125
0.0721435546875
-0.38531494140625
-0.0853271484375
0.43951416015625
0.085693359375
-0.431427001953125
-0.0772705078125
0.361480712890625
0.0531005859375
-0.226348876953125
-0.01611328125
0.0435791015625
-0.0172119140625
0.123779296875
0.047607421875
-0.283477783203125
-0.0692138671875
0.38751220703125
0.081298828125
-0.421905517578125
-0.0860595703125
0.443511962890625
0.076171875
-0.37872314453125
-0.059326171875
0.254913330078125
0.0289306640625
-0.099609375
0.01025390625
-0.103271484375
-0.041748046875
0.257110595703125
0.06591796875
-0.36151123046875
-0.08203125
0.428863525390625
0.0867919921875
-0.438751220703125
-0.0802001953125
0.40765380859375
0.0618896484375
-0.290069580078125
-0.031494140625
0.117919921875
-0.0018310546875
0.0509033203125
0.0362548828125
-0.234039306640625
-0.0618896484375
0.354888916015625
0.075439453125
-0.409820556640625
-0.0867919921875
0.45123291015625
0.0838623046875
-0.41241455078125
-0.0673828125
0.317535400390625
0.038818359375
-0.169921875
-0.0040283203125
-0.031494140625
-0.027099609375
0.194854736328125
0.0589599609375
-0.331817626953125
-0.076904296875
0.415313720703125
0.0849609375
-0.43841552734375
-0.0853271484375
0.433990478515625
0.06884765625
-0.340240478515625
-0.0439453125
0.192291259765625
0.0135498046875
-0.0230712890625
0.0223388671875
-0.1724853515625
-0.052734375
0.314239501953125
0.0732421875
-0.39154052734375
-0.0831298828125
0.44573974609375
0.085693359375
-0.436553955078125
-0.0787353515625
0.365142822265625
0.0509033203125
-0.237335205078125
-0.016845703125
0.046142578125
-0.0146484375
0.1285400390625
0.04833984375
-0.288238525390625
-0.0714111328125
0.39447021484375
0.082763671875
-0.431793212890625
-0.087890625
0.451202392578125
0.0772705078125
-0.38311767578125
-0.057861328125
0.258575439453125
0.0263671875
-0.1025390625
0.01171875
-0.106201171875
-0.041748046875
0.266632080078125
0.0670166015625
-0.36810302734375
-0.0816650390625
0.435455322265625
0.0882568359375
-0.457061767578125
-0.08203125
0.41021728515625
0.060791015625
-0.294097900390625
-0.03369140625
0.1153564453125
-0.00146484375
0.054931640625
0.038818359375
-0.237701416015625
-0.0633544921875
0.368438720703125
0.0794677734375
-0.421905517578125
-0.090087890625
0.46185302734375
0.082763671875
-0.42340087890625
-0.0670166015625
0.323028564453125
0.038818359375
-0.1702880859375
-0.002197265625
-0.037353515625
-0.029296875
0.2080078125
0.060791015625
-0.339508056640625
-0.0758056640625
0.42999267578125
0.0838623046875
-0.45489501953125
-0.08935546875
0.44537353515625
0.0728759765625
-0.345367431640625
-0.0443115234375
0.1900634765625
0.01171875
-0.0172119140625
0.027099609375
-0.1834716796875
-0.0567626953125
0.326324462890625
0.073974609375
-0.40472412109375
-0.0838623046875
0.46405029296875
0.085693359375
-0.447174072265625
-0.076904296875
0.373199462890625
0.05126953125
-0.235504150390625
-0.016845703125
0.035888671875
-0.017578125
0.135498046875
0.050537109375
-0.299957275390625
-0.0736083984375
0.40692138671875
0.0823974609375
-0.44940185546875
-0.087890625
0.469879150390625
0.0780029296875
-0.390411376953125
-0.054931640625
0.259307861328125
0.02490234375
-0.09521484375
0.0120849609375
-0.117919921875
-0.0443115234375
0.278717041015625
0.0673828125
-0.38348388671875
-0.0823974609375
0.455596923828125
0.087158203125
-0.464752197265625
-0.08203125
0.42083740234375
0.0615234375
-0.294464111328125
-0.031494140625
0.10693359375
-0.003662109375
0.065185546875
0.0421142578125
-0.246856689453125
-0.06591796875
0.381988525390625
0.0794677734375
-0.435455322265625
-0.0875244140625
0.47943115234375
0.0823974609375
-0.43109130859375
-0.066650390625
0.318634033203125
0.0362548828125
-0.1669921875
0.0
-0.0465087890625
-0.0322265625
0.21826171875
0.062255859375
-0.351593017578125
-0.076904296875
0.44500732421875
0.0853271484375
-0.47027587890625
-0.085693359375
0.45928955078125
0.0699462890625
-0.351959228515625
-0.046142578125
0.179443359375
0.009521484375
-0.0128173828125
0.03076171875
-0.19482421875
-0.06005859375
0.343170166015625
0.07470703125
-0.42010498046875
-0.0849609375
0.48345947265625
0.087158203125
-0.46331787109375
-0.0736083984375
0.380157470703125
0.0450439453125
-0.239501953125
-0.0157470703125
0.0230712890625
-0.017578125
0.1527099609375
0.05419921875
-0.311309814453125
-0.0758056640625
0.42633056640625
0.0823974609375
-0.46844482421875
-0.08642578125
0.490386962890625
0.07763671875
-0.401397705078125
-0.0545654296875
0.256011962890625
0.0230712890625
-0.0867919921875
0.0157470703125
-0.128173828125
-0.0479736328125
0.299591064453125
0.07177734375
-0.39849853515625
-0.0838623046875
0.477935791015625
0.084228515625
-0.484161376953125
-0.0794677734375
0.43365478515625
0.05859375
-0.297393798828125
-0.029296875
0.094482421875
-0.00732421875
0.0794677734375
0.0428466796875
-0.260406494140625
-0.0662841796875
0.404327392578125
0.0791015625
-0.451202392578125
-0.0875244140625
0.50250244140625
0.0809326171875
-0.44171142578125
-0.0655517578125
0.315338134765625
0.03515625
-0.160400390625
0.0040283203125
-0.0596923828125
-0.032958984375
0.244293212890625
0.0615234375
-0.364044189453125
-0.0791015625
0.465118408203125
0.0853271484375
-0.47723388671875
-0.0860595703125
0.46258544921875
0.0673828125
-0.347564697265625
-0.03955078125
0.169189453125
0.005859375
0.0
0.0296630859375
-0.20361328125
-0.0552978515625
0.364776611328125
0.0743408203125
-0.42559814453125
-0.087158203125
0.49407958984375
0.0853271484375
-0.463653564453125
-0.0728759765625
0.369171142578125
0.046142578125
-0.226348876953125
-0.0106201171875
0.006591796875
-0.0201416015625
0.169189453125
0.052001953125
-0.316436767578125
-0.075439453125
0.43328857421875
0.084228515625
-0.46405029296875
-0.0867919921875
0.48638916015625
0.0728759765625
-0.396636962890625
-0.0523681640625
0.23291015625
0.0208740234375
-0.0750732421875
0.018310546875
-0.1358642578125
-0.046875
0.312042236328125
0.0703125
-0.396270751953125
-0.08349609375
0.47760009765625
0.08349609375
-0.48272705078125
-0.076171875
0.420440673828125
0.057861328125
-0.282012939453125
-0.0274658203125
0.0750732421875
-0.0087890625
0.09228515625
0.0443115234375
-0.258209228515625
-0.0673828125
0.40106201171875
0.07763671875
-0.449371337890625
-0.085693359375
0.493682861328125
0.079833984375
-0.43145751953125
-0.0596923828125
0.288970947265625
0.0296630859375
-0.1373291015625
0.0164794921875
-0.104736328125
-0.04248046875
0.252716064453125
0.05859375
-0.392242431640625
-0.0721435546875
0.377227783203125
0.073974609375
-0.44976806640625
-0.068115234375
0.45306396484375
0.0457763671875
-0.0435791015625
-0.01904296875
0.1669921875
0.0040283203125
0.0230712890625
0.0289306640625
-0.231475830078125
-0.053466796875
0.257843017578125
0.0567626953125
-0.347930908203125
-0.06884765625
0.338775634765625
0.0626220703125
-0.333648681640625
-0.050537109375
0.236236572265625
0.0289306640625
-0.1409912109375
0.0003662109375
-0.03076171875
-0.021240234375
0.1519775390625
0.0450439453125
-0.266265869140625
-0.059326171875
0.314239501953125
0.062255859375
-0.339508056640625
-0.065185546875
0.316070556640625
0.0516357421875
-0.256744384765625
-0.0325927734375
0.143585205078125
0.009521484375
-0.0245361328125
0.0194091796875
-0.136627197265625
-0.0421142578125
0.2354736328125
0.0567626953125
-0.297393798828125
-0.0626220703125
0.33917236328125
0.062255859375
-0.331817626953125
-0.0567626953125
0.273590087890625
0.0362548828125
-0.182403564453125
-0.0098876953125
0.0260009765625
-0.013916015625
0.100006103515625
0.0391845703125
-0.227081298828125
-0.053466796875
0.305084228515625
0.06005859375
-0.325225830078125
-0.063720703125
0.339508056640625
0.05126953125
-0.284576416015625
-0.038818359375
0.179840087890625
0.0172119140625
-0.05859375
0.01318359375
-0.094512939453125
-0.0333251953125
0.205078125
0.05126953125
-0.272857666015625
-0.056396484375
0.321197509765625
0.0560302734375
-0.326324462890625
-0.05712890625
0.281646728515625
0.0391845703125
-0.2032470703125
-0.017578125
0.079498291015625
-0.0032958984375
0.047607421875
0.0303955078125
-0.180938720703125
-0.044677734375
0.270294189453125
0.0552978515625
-0.304351806640625
-0.06005859375
0.331451416015625
0.0552978515625
-0.303619384765625
-0.0457763671875
0.220855712890625
0.0238037109375
-0.119415283203125
0.003662109375
-0.032958984375
-0.0234375
0.163360595703125
0.044677734375
-0.255279541015625
-0.0552978515625
0.316436767578125
0.0582275390625
-0.32598876953125
-0.0589599609375
0.312774658203125
0.0439453125
-0.245361328125
-0.02783203125
0.120513916015625
0.003662109375
-0.000732421875
0.0238037109375
-0.139556884765625
-0.0384521484375
0.251220703125
0.0509033203125
-0.293731689453125
-0.0604248046875
0.32012939453125
0.0552978515625
-0.310943603515625
-0.04833984375
0.260772705078125
0.03369140625
-0.1490478515625
-0.0069580078125
0.009521484375
-0.0172119140625
0.1058349609375
0.0384521484375
-0.221954345703125
-0.0494384765625
0.294097900390625
0.0552978515625
-0.307647705078125
-0.06005859375
0.311676025390625
0.052001953125
-0.252349853515625
-0.0347900390625
0.172515869140625
0.0146484375
-0.050537109375
0.0142822265625
-0.089752197265625
-0.034423828125
0.1995849609375
0.0487060546875
-0.272857666015625
-0.0604248046875
0.297027587890625
0.0567626953125
-0.327423095703125
-0.0538330078125
0.286041259765625
0.0406494140625
-0.186767578125
-0.016845703125
0.060821533203125
-0.0087890625
0.06298828125
0.034423828125
-0.186065673828125
-0.046875
0.276519775390625
0.0556640625
-0.294830322265625
-0.060791015625
0.316436767578125
0.0516357421875
-0.289703369140625
-0.041748046875
0.202545166015625
0.024169921875
-0.093017578125
0.005126953125
-0.045440673828125
-0.0238037109375
0.163330078125
0.047607421875
-0.2589111328125
-0.054931640625
0.296661376953125
0.0604248046875
-0.31646728515625
-0.0626220703125
0.306182861328125
0.0391845703125
-0.2332763671875
-0.0325927734375
0.139923095703125
0.0069580078125
0.01318359375
0.038818359375
-0.200714111328125
-0.040283203125
0.20361328125
0.0457763671875
-0.280914306640625
-0.0640869140625
0.37908935546875
0.0699462890625
-0.316802978515625
-0.03369140625
0.2230224609375
0.04833984375
-0.200714111328125
-0.0087890625
-0.02197265625
-0.0479736328125
0.188629150390625
0.0545654296875
-0.261138916015625
-0.0640869140625
0.183868408203125
-0.0003662109375
-0.224853515625
-0.064453125
0.58123779296875
0.097412109375
-0.191558837890625
0.057861328125
-0.084991455078125
0.067779541015625
-0.394073486328125
-0.0267333984375
-0.1754150390625
-0.094879150390625
0.323394775390625
0.015380859375
-0.36041259765625
-0.1571044921875
0.474639892578125
-0.0267333984375
0.071807861328125
-0.042510986328125
0.49810791015625
0.0377197265625
-0.075836181640625
-0.024169921875
0.0970458984375
0.000732421875
0.079864501953125
-0.016845703125
-0.240966796875
0.0267333984375
0.084228515625
0.207672119140625
-0.58270263671875
-0.0333251953125
0.178375244140625
0.06005859375
-0.36077880859375
-0.046142578125
0.213134765625
0.0087890625
-0.0556640625
0.0047607421875
-0.034423828125
-0.0406494140625
0.218658447265625
0.024169921875
-0.218658447265625
-0.07177734375
0.381988525390625
0.05859375
-0.348297119140625
-0.0457763671875
0.284942626953125
0.0523681640625
-0.243560791015625
-0.013916015625
0.086456298828125
0.0025634765625
-0.0205078125
0.0274658203125
-0.204376220703125
-0.046875
0.277984619140625
0.0703125
-0.337310791015625
0.0
0.246856689453125
0.0728759765625
-0.34063720703125
-0.104736328125
0.42083740234375
-0.0098876953125
-0.0150146484375
-0.0179443359375
0.0146484375
-0.0457763671875
0.194854736328125
0.03076171875
-0.261138916015625
-0.0465087890625
0.294097900390625
0.069580078125
-0.39593505859375
-0.0479736328125
0.262603759765625
0.0574951171875
-0.257110595703125
-0.013916015625
0.1201171875
0.01318359375
-0.06298828125
0.01318359375
-0.1728515625
-0.0538330078125
0.256378173828125
0.041748046875
-0.264801025390625
-0.047607421875
0.349761962890625
0.0714111328125
-0.287506103515625
-0.0428466796875
0.278717041015625
0.0311279296875
-0.178009033203125
-0.01318359375
0.0003662109375
-0.0146484375
0.088287353515625
0.03369140625
-0.2252197265625
-0.0560302734375
0.291168212890625
0.052734375
-0.31207275390625
-0.0596923828125
0.338775634765625
0.0531005859375
-0.260009765625
-0.0399169921875
0.193389892578125
0.0084228515625
-0.060821533203125
0.0087890625
-0.077301025390625
-0.032958984375
0.205108642578125
0.0498046875
-0.295928955078125
-0.0556640625
0.323028564453125
0.06005859375
-0.323760986328125
-0.050537109375
0.302520751953125
0.0413818359375
-0.197418212890625
-0.015380859375
0.076202392578125
-0.0032958984375
0.048004150390625
0.0289306640625
-0.203643798828125
-0.0479736328125
0.275787353515625
0.0545654296875
-0.305084228515625
-0.060791015625
0.345001220703125
0.0556640625
-0.295562744140625
-0.0421142578125
0.232940673828125
0.022705078125
-0.114288330078125
0.0047607421875
-0.037384033203125
-0.0263671875
0.168487548828125
0.04248046875
-0.284210205078125
-0.054931640625
0.325225830078125
0.0596923828125
-0.321563720703125
-0.057861328125
0.313507080078125
0.0450439453125
-0.244293212890625
-0.022705078125
0.124908447265625
0.005859375
0.009521484375
0.022705078125
-0.156036376953125
-0.04541015625
0.257110595703125
0.0509033203125
-0.300323486328125
-0.0589599609375
0.33843994140625
0.0589599609375
-0.313140869140625
-0.046142578125
0.262939453125
0.032958984375
-0.154205322265625
-0.00439453125
0.0091552734375
-0.018310546875
0.121246337890625
0.0362548828125
-0.2413330078125
-0.0556640625
0.320098876953125
0.0582275390625
-0.316436767578125
-0.0618896484375
0.327056884765625
0.0487060546875
-0.277618408203125
-0.0303955078125
0.168121337890625
0.0135498046875
-0.040313720703125
0.0172119140625
-0.115020751953125
-0.0333251953125
0.227813720703125
0.0494384765625
-0.289337158203125
-0.0604248046875
0.327423095703125
0.059326171875
-0.319366455078125
-0.053466796875
0.291168212890625
0.0347900390625
-0.191925048828125
-0.0128173828125
0.067413330078125
-0.0084228515625
0.080596923828125
0.0325927734375
-0.210968017578125
-0.044677734375
0.284942626953125
0.05859375
-0.321929931640625
-0.0633544921875
0.355255126953125
0.050537109375
-0.293365478515625
-0.041748046875
0.204376220703125
0.0230712890625
-0.090850830078125
0.0087890625
-0.067779541015625
-0.0322265625
0.195220947265625
0.04541015625
-0.266632080078125
-0.0531005859375
0.329254150390625
0.0589599609375
-0.333282470703125
-0.0567626953125
0.295928955078125
0.044677734375
-0.2208251953125
-0.02490234375
0.105865478515625
-0.000732421875
0.0391845703125
0.030029296875
-0.163726806640625
-0.043212890625
0.261138916015625
0.0516357421875
-0.314239501953125
-0.0604248046875
0.329986572265625
0.0574951171875
-0.303619384765625
-0.0494384765625
0.236236572265625
0.028564453125
-0.142486572265625
-0.0032958984375
-0.009521484375
-0.0234375
0.141387939453125
0.043212890625
-0.235504150390625
-0.0538330078125
0.324127197265625
0.0611572265625
-0.332916259765625
-0.0596923828125
0.326690673828125
0.0516357421875
-0.253448486328125
-0.03076171875
0.151641845703125
0.008056640625
-0.031494140625
0.01904296875
-0.131500244140625
-0.041015625
0.2471923828125
0.054931640625
-0.285308837890625
-0.0618896484375
0.33038330078125
0.05859375
-0.341339111328125
-0.052001953125
0.2662353515625
0.0355224609375
-0.1622314453125
-0.0098876953125
0.034454345703125
-0.01318359375
0.0966796875
0.0377197265625
-0.220489501953125
-0.054931640625
0.284942626953125
0.057861328125
-0.318634033203125
-0.0596923828125
0.339508056640625
0.0545654296875
-0.277984619140625
-0.0377197265625
0.190093994140625
0.0157470703125
-0.0706787109375
0.01318359375
-0.079498291015625
-0.0333251953125
0.210205078125
0.0479736328125
-0.285675048828125
-0.057861328125
0.328155517578125
0.06298828125
-0.323760986328125
-0.0574951171875
0.290435791015625
0.04248046875
-0.20654296875
-0.0128173828125
0.092681884765625
-0.0040283203125
0.060791015625
0.0274658203125
-0.202545166015625
-0.047607421875
0.277618408203125
0.05712890625
-0.310577392578125
-0.0655517578125
0.326324462890625
0.056396484375
-0.301055908203125
-0.0450439453125
0.222320556640625
0.022705078125
-0.116119384765625
0.0003662109375
-0.058258056640625
-0.03076171875
0.158599853515625
0.0443115234375
-0.2252197265625
-0.0531005859375
0.359283447265625
0.060791015625
-0.327789306640625
-0.063720703125
0.297393798828125
0.04833984375
-0.237335205078125
-0.0252685546875
0.120880126953125
0.0054931640625
0.0076904296875
0.024169921875
-0.148345947265625
-0.044677734375
0.251983642578125
0.05419921875
-0.298492431640625
-0.0633544921875
0.328521728515625
0.0604248046875
-0.313140869140625
-0.0509033203125
0.247589111328125
0.032958984375
-0.14794921875
-0.00439453125
0.01171875
-0.0172119140625
0.128173828125
0.041015625
-0.235870361328125
-0.0560302734375
0.293731689453125
0.0618896484375
-0.324127197265625
-0.0589599609375
0.326324462890625
0.052734375
-0.260040283203125
-0.03515625
0.165557861328125
0.0135498046875
-0.0322265625
0.0150146484375
-0.117584228515625
-0.0399169921875
0.217529296875
0.0509033203125
-0.278717041015625
-0.0626220703125
0.31939697265625
0.0604248046875
-0.328887939453125
-0.0556640625
0.271759033203125
0.0384521484375
-0.1787109375
-0.01171875
0.063720703125
-0.006591796875
0.09228515625
0.032958984375
-0.213165283203125
-0.052734375
0.276885986328125
0.0589599609375
-0.300689697265625
-0.064453125
0.321929931640625
0.0567626953125
-0.285308837890625
-0.0406494140625
0.199615478515625
0.0245361328125
-0.078369140625
0.0113525390625
-0.06005859375
-0.0296630859375
0.18896484375
0.046875
-0.269561767578125
-0.0615234375
0.306549072265625
0.0611572265625
-0.32196044921875
-0.063720703125
0.284210205078125
0.0399169921875
-0.2215576171875
-0.0263671875
0.092681884765625
0.0029296875
0.050537109375
0.030029296875
-0.169952392578125
-0.0450439453125
0.259674072265625
0.054931640625
-0.295928955078125
-0.06591796875
0.313873291015625
0.0626220703125
-0.285675048828125
-0.0498046875
0.224884033203125
0.0322265625
-0.1116943359375
-0.0018310546875
-0.0234375
-0.02197265625
0.1395263671875
0.0435791015625
-0.248321533203125
-0.05712890625
0.297027587890625
0.0618896484375
-0.307281494140625
-0.0655517578125
0.295562744140625
0.052001953125
-0.240264892578125
-0.0322265625
0.129302978515625
0.01171875
-0.00439453125
0.01904296875
-0.129302978515625
-0.040283203125
0.231109619140625
0.054931640625
-0.275787353515625
-0.065185546875
0.303253173828125
0.0633544921875
-0.307647705078125
-0.05712890625
0.251983642578125
0.038818359375
-0.1585693359375
-0.009521484375
0.028564453125
-0.013916015625
0.11279296875
0.0369873046875
-0.214996337890625
-0.0552978515625
0.284942626953125
0.060791015625
-0.294097900390625
-0.0648193359375
0.305816650390625
0.0582275390625
-0.250885009765625
-0.03955078125
0.167388916015625
0.017578125
-0.065185546875
0.01171875
-0.094146728515625
-0.030029296875
0.20947265625
0.0479736328125
-0.273956298828125
-0.0677490234375
0.283843994140625
0.064453125
-0.306182861328125
-0.0596923828125
0.287139892578125
0.0472412109375
-0.2076416015625
-0.0216064453125
0.080230712890625
-0.0018310546875
0.046875
0.0322265625
-0.190460205078125
-0.052734375
0.273223876953125
0.0618896484375
-0.353790283203125
-0.07177734375
0.361846923828125
0.066650390625
-0.356353759765625
-0.05126953125
0.262969970703125
0.030029296875
-0.135162353515625
0.0003662109375
-0.068115234375
-0.0296630859375
0.194488525390625
0.05419921875
-0.326690673828125
-0.0670166015625
0.398834228515625
0.07470703125
-0.41461181640625
-0.073974609375
0.40325927734375
0.05859375
-0.308746337890625
-0.0333251953125
0.154541015625
0.00439453125
0.0018310546875
0.0274658203125
-0.217559814453125
-0.0545654296875
0.338775634765625
0.0673828125
-0.404693603515625
-0.076171875
0.46551513671875
0.0765380859375
-0.401031494140625
-0.06591796875
0.310211181640625
0.0377197265625
-0.199249267578125
-0.00439453125
0.0040283203125
-0.0234375
0.185333251953125
0.049072265625
-0.317901611328125
-0.068115234375
0.406890869140625
0.0750732421875
-0.40582275390625
-0.0736083984375
0.431427001953125
0.062255859375
-0.313507080078125
-0.0406494140625
0.190826416015625
0.01318359375
-0.021240234375
0.01904296875
-0.169921875
-0.0457763671875
0.288238525390625
0.060791015625
-0.33734130859375
-0.06884765625
0.40545654296875
0.0699462890625
-0.372833251953125
-0.0626220703125
0.319366455078125
0.0435791015625
-0.198883056640625
-0.0164794921875
0.028564453125
-0.0120849609375
0.093048095703125
0.03662109375
-0.243194580078125
-0.0574951171875
0.324859619140625
0.06591796875
-0.350860595703125
-0.0703125
0.378692626953125
0.062255859375
-0.353057861328125
-0.0457763671875
0.247955322265625
0.02490234375
-0.109527587890625
0.0047607421875
-0.0845947265625
-0.0325927734375
0.225982666015625
0.05419921875
-0.342437744140625
-0.06884765625
0.400665283203125
0.076904296875
-0.42926025390625
-0.0721435546875
0.42266845703125
0.0611572265625
-0.329620361328125
-0.035888671875
0.1080322265625
0.0084228515625
0.0501708984375
0.0347900390625
-0.246856689453125
-0.0615234375
0.398834228515625
0.076904296875
-0.436187744140625
-0.09375
0.47174072265625
0.087890625
-0.43804931640625
-0.0933837890625
0.258209228515625
0.054931640625
-0.132568359375
0.0303955078125
0.07763671875
-0.0179443359375
0.245391845703125
0.041015625
-0.476470947265625
-0.104736328125
0.389678955078125
0.094482421875
-0.42779541015625
-0.09521484375
0.46331787109375
0.087158203125
-0.270294189453125
-0.05712890625
0.14501953125
0.008056640625
-0.0010986328125
0.0186767578125
-0.225616455078125
-0.081298828125
0.258941650390625
0.0714111328125
-0.392974853515625
-0.06884765625
0.55450439453125
0.13037109375
-0.327423095703125
-0.063720703125
0.367706298828125
0.067047119140625
-0.201446533203125
-0.0260009765625
-0.0303955078125
-0.032989501953125
0.154571533203125
0.0443115234375
-0.308746337890625
-0.0831298828125
0.463653564453125
0.054931640625
-0.55230712890625
-0.1336669921875
0.198516845703125
0.088623046875
-0.271026611328125
-0.046142578125
0.304351806640625
0.04833984375
0.0234375
0.0186767578125
-0.10107421875
-0.04541015625
0.307281494140625
0.07177734375
-0.283477783203125
-0.0966796875
0.36517333984375
0.087890625
-0.44024658203125
-0.09375
0.340606689453125
0.07763671875
-0.340972900390625
-0.035186767578125
0.1138916015625
-0.000732421875
0.062255859375
0.053131103515625
-0.1116943359375
-0.0615234375
0.47613525390625
0.0845947265625
-0.57391357421875
-0.100341796875
0.245391845703125
0.09521484375
-0.46624755859375
-0.0838623046875
0.383453369140625
0.043212890625
-0.1578369140625
-0.0032958984375
-0.0238037109375
-0.0281982421875
0.277252197265625
0.0750732421875
-0.232574462890625
-0.0904541015625
0.62335205078125
0.0992431640625
-0.362579345703125
-0.087890625
0.418243408203125
0.076171875
-0.382354736328125
-0.03662109375
0.074005126953125
-0.008056640625
-0.090118408203125
0.019775390625
-0.199249267578125
-0.0677490234375
0.303253173828125
0.0648193359375
-0.42999267578125
-0.08642578125
0.39483642578125
0.0743408203125
-0.457794189453125
-0.0692138671875
0.371002197265625
0.0428466796875
-0.210968017578125
-0.0069580078125
0.0498046875
-0.0172119140625
0.179107666015625
0.0538330078125
-0.227813720703125
-0.0655517578125
0.443878173828125
0.07763671875
-0.427032470703125
-0.078369140625
0.385284423828125
0.06005859375
-0.46148681640625
-0.0509033203125
0.169219970703125
0.01318359375
-0.16845703125
0.018310546875
-0.187896728515625
-0.05712890625
0.278350830078125
0.04833984375
-0.345001220703125
-0.07763671875
0.409454345703125
0.0692138671875
-0.415313720703125
-0.0765380859375
0.382720947265625
0.04248046875
-0.305450439453125
-0.021270751953125
-0.0194091796875
-0.0098876953125
0.0032958984375
0.043243408203125
-0.344268798828125
-0.0618896484375
0.264434814453125
0.0567626953125
-0.355255126953125
-0.0966796875
0.459991455078125
0.04833984375
-0.283477783203125
-0.061920166015625
0.187896728515625
0.0135498046875
-0.159698486328125
-0.0018310546875
-0.150177001953125
-0.0479736328125
0.144317626953125
0.041046142578125
-0.371368408203125
-0.081298828125
0.245391845703125
0.0556640625
-0.420440673828125
-0.080963134765625
0.289703369140625
0.0450439453125
-0.067413330078125
-0.041748046875
0.0457763671875
-0.021240234375
0.013916015625
0.0150146484375
-0.239166259765625
-0.0552978515625
0.0010986328125
0.0816650390625
-0.45526123046875
-0.076202392578125
0.264068603515625
0.059722900390625
-0.032958984375
-0.0692138671875
0.34539794921875
0.031494140625
0.0146484375
-0.0087890625
-0.060821533203125
-0.03076171875
-0.0146484375
0.049072265625
-0.330718994140625
-0.084625244140625
0.097808837890625
0.089385986328125
-0.232940673828125
-0.11865234375
0.280548095703125
0.1153564453125
0.00732421875
-0.0040283203125
0.406890869140625
0.00732421875
0.006591796875
0.003662109375
-0.304718017578125
-0.1072998046875
-0.0076904296875
0.08349609375
-0.408721923828125
-0.121612548828125
0.182037353515625
0.139923095703125
-0.071807861328125
-0.034423828125
0.711273193359375
0.0758056640625
0.0
-0.0384521484375
-0.202911376953125
0.0362548828125
0.269561767578125
0.0772705078125
-0.151641845703125
-0.206939697265625
-0.0977783203125
0.062255859375
-0.51495361328125
-0.1146240234375
0.314605712890625
0.087188720703125
-0.030029296875
-0.0516357421875
0.223785400390625
0.0216064453125
0.0146484375
0.02490234375
-0.0977783203125
-0.0531005859375
0.032989501953125
0.0823974609375
-0.29486083984375
-0.072540283203125
0.298126220703125
0.102203369140625
-0.310577392578125
-0.0780029296875
0.358917236328125
0.0684814453125
-0.0069580078125
-0.0245361328125
0.0523681640625
0.0040283203125
0.0164794921875
0.03515625
-0.1168212890625
-0.0765380859375
0.209136962890625
0.09375
-0.37945556640625
-0.104400634765625
0.42852783203125
0.075103759765625
-0.193359375
-0.0531005859375
0.1959228515625
0.04248046875
-0.067413330078125
0.0029296875
-0.1153564453125
-0.035888671875
0.196685791015625
0.073974609375
-0.221954345703125
-0.065582275390625
0.328887939453125
0.089385986328125
-0.277252197265625
-0.098876953125
0.237701416015625
