0.0150146484375
-0.05712890625
0.01611328125
-0.0501708984375
-0.0054931640625
0.0172119140625
-0.0054931640625
0.0223388671875
-0.0003662109375
0.0245361328125
0.00146484375
0.0260009765625
-0.0040283203125
0.0322265625
-0.018310546875
0.0406494140625
-0.0340576171875
0.0501708984375
-0.0296630859375
0.0487060546875
0.00146484375
0.021240234375
0.0069580078125
0.000732421875
0.0003662109375
-0.01025390625
-0.06298828125
0.0435791015625
-0.000732421875
0.0025634765625
0.0655517578125
-0.066650390625
0.003662109375
-0.0205078125
0.0047607421875
-0.0098876953125
0.0010986328125
-0.005859375
0.003662109375
-0.0098876953125
0.002197265625
-0.0113525390625
0.0025634765625
-0.0087890625
0.0062255859375
-0.0062255859375
0.0098876953125
-0.00732421875
0.0179443359375
-0.0146484375
0.0120849609375
-0.0076904296875
0.009521484375
-0.005126953125
0.0054931640625
-0.00439453125
0.0032958984375
0.0010986328125
0.00146484375
0.0010986328125
-0.0003662109375
0.0032958984375
0.0018310546875
0.0069580078125
0.0003662109375
0.0062255859375
-0.000732421875
-0.00146484375
-0.0032958984375
0.005859375
0.0047607421875
0.01025390625
0.0025634765625
0.0040283203125
0.002197265625
-0.000732421875
-0.03515625
0.0216064453125
0.0062255859375
0.0194091796875
0.0435791015625
-0.0201416015625
-0.0120849609375
-0.0029296875
-0.01904296875
0.03076171875
-0.0340576171875
0.0574951171875
-0.05126953125
0.083526611328125
-0.0692138671875
0.098175048828125
-0.065185546875
0.0977783203125
-0.03955078125
0.08203125
-0.022705078125
0.071044921875
-0.028961181640625
0.0845947265625
-0.063385009765625
0.124542236328125
-0.0662841796875
0.130401611328125
-0.053466796875
0.117919921875
-0.0391845703125
0.1109619140625
-0.03662109375
0.1109619140625
-0.0281982421875
0.0875244140625
-0.0032958984375
0.043243408203125
0.0076904296875
0.015777587890625
0.030029296875
-0.026031494140625
0.04541015625
-0.062652587890625
0.095947265625
-0.12744140625
0.130035400390625
-0.1966552734375
0.110626220703125
-0.212432861328125
0.08349609375
-0.183868408203125
0.0582275390625
-0.1190185546875
0.0791015625
-0.147979736328125
0.1021728515625
-0.190460205078125
0.101470947265625
-0.163330078125
0.080230712890625
-0.135498046875
0.0556640625
-0.099609375
0.0443115234375
-0.083160400390625
0.0377197265625
-0.072906494140625
0.0325927734375
-0.0633544921875
0.015380859375
-0.043212890625
0.0098876953125
-0.0318603515625
0.01025390625
-0.0303955078125
0.008056640625
-0.02197265625
-0.0047607421875
-0.0076904296875
-0.01171875
-0.003662109375
-0.0069580078125
-0.006591796875
0.00146484375
-0.009521484375
0.008056640625
-0.0120849609375
-0.0062255859375
-0.00146484375
-0.0157470703125
0.005859375
-0.013916015625
0.00439453125
0.0010986328125
-0.01171875
-0.0106201171875
-0.041748046875
-0.0347900390625
0.012451171875
-0.03515625
0.0487060546875
-0.0523681640625
0.0706787109375
0.0867919921875
-0.0882568359375
0.1365966796875
-0.228546142578125
0.145416259765625
-0.230010986328125
0.134796142578125
-0.1409912109375
0.087890625
-0.044677734375
0.279083251953125
-0.147247314453125
0.223052978515625
-0.090850830078125
0.0263671875
0.0
0.0003662109375
0.0
0.0003662109375
0.0
-0.0003662109375
0.0
-0.0003662109375
0.0
0.0
0.0
0.0
0.0
0.0003662109375
0.0
0.0
0.0
-0.0238037109375
0.0
-0.039947509765625
0.0
-0.080596923828125
0.0
-0.15087890625
0.0
-0.1259765625
0.025634765625
-0.08349609375
0.054962158203125
-0.087158203125
0.075103759765625
-0.089385986328125
0.123779296875
-0.090118408203125
0.1453857421875
-0.0791015625
0.116455078125
-0.0706787109375
0.090118408203125
-0.0626220703125
0.074737548828125
-0.0604248046875
0.06884765625
-0.0556640625
0.0655517578125
-0.0439453125
0.05712890625
-0.0391845703125
0.0531005859375
-0.036285400390625
0.0523681640625
-0.035919189453125
0.049072265625
-0.03076171875
0.0450439453125
-0.0322265625
0.04833984375
-0.030029296875
0.0428466796875
-0.0252685546875
0.035186767578125
-0.021240234375
0.036285400390625
-0.0205078125
0.03515625
-0.0230712890625
0.030029296875
-0.019775390625
0.0263671875
-0.0238037109375
0.0303955078125
-0.0201416015625
0.027099609375
-0.019775390625
0.02490234375
-0.016845703125
0.0230712890625
-0.010986328125
0.01171875
-0.0157470703125
0.0106201171875
-0.0087890625
0.0142822265625
-0.0047607421875
0.01611328125
-0.005859375
0.01318359375
-0.0146484375
0.0179443359375
-0.0230712890625
0.03076171875
0.0003662109375
0.003662109375
0.012451171875
-0.01318359375
-0.0018310546875
0.0069580078125
-0.0003662109375
0.0172119140625
-0.009521484375
0.0428466796875
-0.0732421875
0.112457275390625
-0.158599853515625
0.201812744140625
-0.159698486328125
0.2149658203125
-0.0802001953125
0.1424560546875
-0.0501708984375
0.100372314453125
-0.0340576171875
0.078399658203125
-0.0018310546875
0.0552978515625
0.0142822265625
0.0428466796875
0.0267333984375
0.0289306640625
0.027099609375
0.0267333984375
0.0479736328125
-0.0025634765625
0.043212890625
-0.01611328125
0.044677734375
-0.028564453125
0.0391845703125
-0.0260009765625
0.027099609375
-0.0238037109375
0.0311279296875
-0.0355224609375
0.0205078125
-0.01611328125
0.0296630859375
-0.0260009765625
0.031524658203125
-0.0399169921875
0.026031494140625
-0.0380859375
0.0098876953125
0.002197265625
0.0120849609375
-0.013946533203125
-0.0032958984375
-0.030426025390625
-0.005859375
-0.0076904296875
0.0106201171875
-0.018310546875
0.00439453125
-0.01904296875
0.01611328125
-0.0274658203125
-0.0025634765625
-0.009521484375
0.0040283203125
-0.017578125
0.002197265625
-0.0201416015625
0.005126953125
-0.0260009765625
0.0142822265625
-0.034423828125
0.0069580078125
-0.0216064453125
0.0164794921875
-0.0263671875
0.0018310546875
-0.0194091796875
0.017578125
-0.034423828125
0.01171875
-0.029296875
0.017578125
-0.0406494140625
0.01611328125
-0.0516357421875
0.01318359375
-0.0552978515625
0.0205078125
-0.0640869140625
0.005859375
-0.046539306640625
0.0142822265625
-0.040679931640625
0.00146484375
-0.0245361328125
0.01611328125
-0.0435791015625
-0.0245361328125
-0.01904296875
0.0069580078125
0.000732421875
0.03662109375
-0.0322265625
-0.0084228515625
-0.02490234375
0.0069580078125
-0.012451171875
-0.005126953125
-0.0040283203125
-0.000732421875
-0.0069580078125
-0.01171875
0.005126953125
-0.008056640625
-0.00146484375
-0.0084228515625
-0.006591796875
-0.0062255859375
-0.0040283203125
-0.0010986328125
-0.002197265625
-0.009521484375
0.012451171875
0.0029296875
0.0018310546875
-0.0091552734375
0.005126953125
-0.0003662109375
0.0069580078125
-0.0098876953125
0.022705078125
-0.0098876953125
0.02197265625
-0.003662109375
0.0142822265625
-0.005859375
0.016845703125
0.003662109375
0.002197265625
-0.013916015625
0.0076904296875
-0.0018310546875
0.0076904296875
-0.0040283203125
0.0208740234375
0.0047607421875
0.006591796875
-0.00146484375
0.0029296875
-0.0604248046875
0.067779541015625
0.00732421875
0.0003662109375
0.0556640625
-0.060455322265625
0.0054931640625
-0.0120849609375
-0.005859375
0.005126953125
0.003662109375
-0.002197265625
0.0029296875
-0.0062255859375
-0.0003662109375
0.00439453125
-0.01025390625
0.0120849609375
-0.008056640625
0.0098876953125
0.002197265625
0.0084228515625
-0.005126953125
0.0230712890625
-0.003662109375
0.032989501953125
-0.041015625
0.086822509765625
-0.083892822265625
0.1146240234375
-0.093780517578125
0.1900634765625
0.087188720703125
-0.038818359375
0.128204345703125
-0.154541015625
0.0087890625
0.0347900390625
0.012451171875
0.0142822265625
0.0135498046875
-0.0047607421875
0.0443115234375
-0.0457763671875
0.0194091796875
-0.03662109375
-0.0106201171875
0.0054931640625
-0.03515625
0.0523681640625
-0.0274658203125
0.0413818359375
0.0047607421875
-0.00146484375
-0.01025390625
0.005859375
0.0087890625
-0.0157470703125
0.0069580078125
-0.0172119140625
0.002197265625
-0.01611328125
-0.0120849609375
-0.0003662109375
-0.018310546875
0.00439453125
-0.009521484375
-0.006591796875
-0.0003662109375
-0.01025390625
0.0157470703125
-0.0252685546875
-0.0150146484375
0.00439453125
-0.0142822265625
0.0069580078125
-0.0069580078125
-0.0029296875
0.003662109375
-0.01025390625
0.009521484375
-0.016845703125
0.016845703125
-0.0260009765625
0.024169921875
-0.03076171875
0.018310546875
-0.0281982421875
0.0267333984375
-0.0413818359375
-0.00146484375
-0.00732421875
-0.003662109375
0.000732421875
0.0025634765625
-0.0098876953125
0.0062255859375
-0.0062255859375
0.0047607421875
-0.0054931640625
-0.012451171875
0.0069580078125
-0.0531005859375
0.0380859375
0.054931640625
-0.034820556640625
0.2193603515625
-0.213897705078125
0.173980712890625
-0.2113037109375
0.083160400390625
-0.0955810546875
-0.024169921875
0.0062255859375
-0.075103759765625
0.0611572265625
-0.095245361328125
0.0933837890625
-0.0831298828125
0.064453125
-0.0208740234375
0.01904296875
-0.03955078125
0.054931640625
-0.0205078125
0.0216064453125
0.0029296875
0.0018310546875
0.0230712890625
-0.025634765625
0.052734375
-0.063720703125
0.035888671875
-0.0384521484375
0.046875
-0.041748046875
0.0230712890625
-0.0205078125
-0.066650390625
0.06884765625
-0.1754150390625
0.179443359375
-0.11572265625
0.095947265625
0.0472412109375
-0.095947265625
0.079833984375
-0.1072998046875
0.050537109375
-0.0867919921875
0.134429931640625
-0.229278564453125
0.267730712890625
-0.383453369140625
0.283843994140625
-0.340240478515625
0.177642822265625
-0.263702392578125
0.028564453125
-0.169586181640625
0.01611328125
-0.058990478515625
0.0380859375
-0.019775390625
0.0113525390625
0.0
-0.0362548828125
0.0
-0.089752197265625
0.0
-0.084259033203125
0.0
-0.05859375
0.0
-0.0355224609375
0.0029296875
-0.037353515625
0.03076171875
-0.0369873046875
0.039947509765625
-0.0260009765625
0.034454345703125
-0.0135498046875
0.0318603515625
-0.0047607421875
0.022705078125
-0.0128173828125
0.0325927734375
-0.0208740234375
0.0439453125
-0.03076171875
0.0516357421875
-0.0281982421875
0.0384521484375
-0.03515625
0.0421142578125
-0.03076171875
0.0673828125
-0.010986328125
0.060791015625
-0.00732421875
0.0439453125
-0.0091552734375
0.031494140625
-0.05712890625
0.059722900390625
-0.0120849609375
0.055328369140625
0.02197265625
0.02197265625
-0.0194091796875
0.0230712890625
-0.021240234375
0.035888671875
-0.027130126953125
0.0465087890625
-0.021636962890625
0.0443115234375
-0.02197265625
0.041015625
-0.019775390625
0.03369140625
-0.021240234375
0.038818359375
-0.0142822265625
0.0362548828125
-0.01611328125
0.03369140625
-0.0333251953125
0.0640869140625
-0.0849609375
0.104400634765625
-0.0556640625
0.084625244140625
0.073974609375
-0.080230712890625
0.0633544921875
-0.101837158203125
-0.0062255859375
0.015380859375
-0.01318359375
0.0157470703125
-0.0025634765625
-0.003662109375
0.0054931640625
-0.01904296875
-0.003662109375
-0.005126953125
-0.022705078125
0.0347900390625
-0.0322265625
0.061920166015625
-0.0146484375
0.042877197265625
-0.006591796875
0.021240234375
-0.00439453125
0.019775390625
-0.0128173828125
0.0303955078125
-0.018310546875
0.038818359375
-0.029296875
0.0516357421875
-0.0465087890625
0.0743408203125
-0.053466796875
0.0897216796875
-0.0706787109375
0.1153564453125
-0.079498291015625
0.131866455078125
-0.089019775390625
0.145050048828125
-0.093017578125
0.153076171875
-0.1116943359375
0.173614501953125
-0.107666015625
0.165557861328125
-0.07177734375
0.122314453125
-0.0443115234375
0.094482421875
-0.02197265625
0.06005859375
-0.0230712890625
0.0457763671875
-0.014678955078125
0.03076171875
-0.014312744140625
0.0252685546875
0.002960205078125
0.002197265625
0.030426025390625
-0.0450439453125
0.119384765625
-0.154541015625
0.25341796875
-0.310211181640625
0.247955322265625
-0.331085205078125
0.151275634765625
-0.250518798828125
0.0911865234375
-0.169586181640625
0.0772705078125
-0.1292724609375
0.06884765625
-0.1212158203125
0.05419921875
-0.102935791015625
0.057159423828125
-0.057525634765625
0.043609619140625
-0.05859375
0.021240234375
-0.0673828125
0.0216064453125
-0.0413818359375
0.019775390625
-0.03515625
0.0076904296875
-0.0186767578125
-0.00146484375
-0.005859375
-0.0076904296875
-0.0003662109375
-0.003662109375
-0.0025634765625
0.0018310546875
0.0
-0.005126953125
0.0025634765625
-0.0062255859375
0.00146484375
-0.009521484375
0.01025390625
-0.0106201171875
0.0084228515625
-0.035552978515625
0.0355224609375
-0.111724853515625
0.126373291015625
-0.0186767578125
0.0428466796875
0.110992431640625
-0.124176025390625
0.048004150390625
-0.071044921875
-0.0047607421875
0.003662109375
-0.0003662109375
-0.0069580078125
0.008056640625
-0.0146484375
0.0164794921875
-0.027099609375
0.0069580078125
-0.028564453125
-0.0208740234375
0.006591796875
-0.041778564453125
0.0589599609375
-0.028961181640625
0.0567626953125
-0.0091552734375
0.02197265625
-0.0106201171875
0.0142822265625
-0.0047607421875
0.0091552734375
-0.0091552734375
0.01318359375
-0.010986328125
0.0164794921875
-0.0106201171875
0.0179443359375
-0.0098876953125
0.0150146484375
-0.00732421875
0.013916015625
-0.0091552734375
0.0179443359375
-0.0054931640625
0.01025390625
-0.0084228515625
0.013916015625
-0.0062255859375
0.013916015625
-0.009521484375
0.013946533203125
-0.0087890625
0.014312744140625
-0.01025390625
0.013916015625
-0.0091552734375
0.0113525390625
-0.0003662109375
0.00439453125
-0.008056640625
0.01025390625
-0.0069580078125
0.0084228515625
-0.0069580078125
0.0076904296875
-0.006591796875
0.0076904296875
-0.0054931640625
0.006591796875
-0.003662109375
0.003662109375
-0.0025634765625
-0.002197265625
-0.005859375
0.00439453125
-0.000732421875
0.0106201171875
-0.0029296875
0.0098876953125
-0.003662109375
0.005859375
-0.065185546875
0.05419921875
-0.000732421875
0.0142822265625
0.057861328125
-0.0428466796875
-0.00439453125
-0.005126953125
0.0003662109375
0.000732421875
-0.0062255859375
0.0032958984375
-0.0062255859375
0.0069580078125
-0.009521484375
0.010986328125
-0.00732421875
0.005126953125
-0.003662109375
0.0032958984375
-0.00146484375
0.00439453125
-0.002197265625
0.0
-0.0018310546875
-0.0025634765625
0.0010986328125
0.0
-0.0025634765625
0.0032958984375
0.0
0.00146484375
-0.00146484375
0.00146484375
0.000732421875
0.000732421875
-0.0003662109375
0.0003662109375
-0.0003662109375
0.0003662109375
0.0010986328125
0.002197265625
-0.002197265625
0.002197265625
-0.0029296875
-0.00146484375
-0.0025634765625
0.005126953125
0.00732421875
0.003662109375
0.0032958984375
0.0003662109375
0.0018310546875
-0.0010986328125
-0.0516357421875
0.0380859375
0.0087890625
0.01171875
0.0626220703125
-0.0413818359375
-0.002197265625
-0.016845703125
0.0040283203125
-0.005859375
0.00146484375
-0.0054931640625
-0.002197265625
0.0047607421875
-0.0054931640625
0.0076904296875
-0.0040283203125
-0.0010986328125
0.005126953125
-0.01171875
0.0113525390625
-0.0205078125
0.01025390625
-0.008056640625
-0.0003662109375
0.00439453125
-0.0032958984375
0.0076904296875
-0.0069580078125
0.00732421875
-0.008056640625
0.0047607421875
-0.0025634765625
0.0032958984375
0.0018310546875
0.005126953125
-0.00146484375
0.0076904296875
-0.0025634765625
0.0054931640625
0.002197265625
-0.0047607421875
-0.0084228515625
0.0025634765625
-0.0032958984375
0.006591796875
0.0025634765625
0.003662109375
0.0003662109375
0.002197265625
0.0
0.000732421875
-0.0391845703125
0.04541015625
0.0047607421875
-0.00146484375
0.03955078125
-0.0479736328125
-0.0003662109375
-0.005859375
-0.0025634765625
0.0025634765625
-0.00146484375
0.00146484375
-0.0032958984375
0.002197265625
-0.0069580078125
0.0054931640625
-0.005859375
0.0025634765625
-0.0029296875
0.0010986328125
0.0029296875
-0.00146484375
0.0003662109375
0.0
0.0018310546875
-0.0032958984375
0.0
-0.0003662109375
0.0003662109375
-0.0025634765625
-0.0003662109375
-0.0018310546875
-0.0054931640625
0.0062255859375
-0.00439453125
0.0047607421875
-0.002197265625
0.0040283203125
0.002197265625
-0.0003662109375
-0.0040283203125
0.0003662109375
-0.005859375
0.0054931640625
-0.0040283203125
0.01025390625
0.0010986328125
0.000732421875
0.0025634765625
-0.0084228515625
-0.0223388671875
0.0069580078125
0.003662109375
0.032958984375
0.0205078125
-0.003662109375
-0.003662109375
-0.0267333984375
-0.0047607421875
0.003662109375
-0.0010986328125
-0.0018310546875
-0.0003662109375
-0.00146484375
-0.0025634765625
0.000732421875
-0.006591796875
0.002197265625
-0.00732421875
0.0025634765625
0.0025634765625
-0.000732421875
0.0032958984375
0.0018310546875
0.0032958984375
-0.003662109375
-0.0010986328125
0.0
0.0003662109375
-0.000732421875
0.002197265625
-0.0029296875
0.0003662109375
-0.0003662109375
-0.0003662109375
0.0
-0.002197265625
0.0018310546875
0.0018310546875
-0.00146484375
-0.002197265625
0.00146484375
-0.00146484375
0.0025634765625
-0.0032958984375
0.0040283203125
-0.0010986328125
-0.0003662109375
-0.0003662109375
-0.003662109375
-0.0084228515625
0.0003662109375
-0.02490234375
0.0509033203125
0.00439453125
0.0018310546875
0.027099609375
-0.0545654296875
-0.0029296875
0.0003662109375
-0.003662109375
0.0032958984375
-0.005126953125
0.0047607421875
-0.005126953125
0.00732421875
-0.0054931640625
0.00439453125
-0.0091552734375
0.0076904296875
0.0010986328125
0.0032958984375
0.006591796875
-0.0040283203125
0.0040283203125
0.0
-0.0296630859375
0.047607421875
-0.10693359375
0.1497802734375
-0.010986328125
0.029296875
0.1256103515625
-0.17431640625
0.06591796875
-0.1014404296875
0.006591796875
-0.005859375
0.0091552734375
-0.0142822265625
0.010986328125
-0.02197265625
0.0128173828125
-0.032958984375
0.00146484375
-0.0234375
-0.0230712890625
0.0281982421875
-0.0311279296875
0.0574951171875
-0.0179443359375
0.040283203125
-0.00439453125
0.0157470703125
-0.0047607421875
0.0069580078125
0.0
0.0018310546875
-0.0029296875
0.0025634765625
-0.0029296875
0.0032958984375
-0.0054931640625
0.0076904296875
-0.0091552734375
0.0084228515625
-0.00439453125
0.000732421875
-0.0029296875
0.0003662109375
0.00146484375
-0.000732421875
0.0
-0.000732421875
-0.000732421875
0.0
-0.00146484375
0.0
0.0010986328125
-0.0029296875
0.0010986328125
-0.0025634765625
-0.0010986328125
-0.00146484375
-0.0003662109375
-0.002197265625
-0.003662109375
0.00146484375
0.00146484375
-0.0025634765625
0.00146484375
-0.00146484375
0.00146484375
-0.002197265625
0.00146484375
-0.0025634765625
0.0003662109375
-0.000732421875
0.005859375
-0.0091552734375
0.0047607421875
-0.0087890625
-0.00146484375
-0.0032958984375
-0.01171875
0.032958984375
0.015380859375
-0.0087890625
0.0234375
-0.04541015625
0.005126953125
-0.0062255859375
0.005859375
-0.0029296875
0.0029296875
0.0010986328125
0.0
0.0062255859375
-0.005859375
0.0069580078125
-0.0003662109375
0.0018310546875
0.0025634765625
0.0
0.006591796875
-0.005126953125
0.005859375
-0.0054931640625
0.0029296875
-0.002197265625
0.0025634765625
-0.00146484375
0.0003662109375
-0.0003662109375
0.0010986328125
0.0010986328125
-0.000732421875
0.0029296875
0.0025634765625
0.000732421875
0.000732421875
0.0018310546875
0.0029296875
-0.00146484375
-0.000732421875
0.0003662109375
-0.0029296875
0.002197265625
0.006591796875
-0.0062255859375
0.0032958984375
-0.0032958984375
-0.0003662109375
0.0
-0.0523681640625
0.0340576171875
0.0054931640625
0.0146484375
0.053466796875
-0.03515625
-0.000732421875
-0.0179443359375
0.002197265625
-0.0047607421875
0.0010986328125
-0.000732421875
0.0
0.0010986328125
-0.0047607421875
0.0029296875
-0.0029296875
0.005126953125
-0.003662109375
0.0032958984375
0.0025634765625
-0.0054931640625
0.00439453125
-0.005126953125
0.000732421875
0.00146484375
0.0
0.0010986328125
-0.0018310546875
0.000732421875
0.0010986328125
-0.0018310546875
0.0
-0.0018310546875
0.0010986328125
0.0010986328125
0.0003662109375
0.000732421875
0.000732421875
-0.00146484375
-0.0010986328125
0.000732421875
-0.0032958984375
0.0
-0.00146484375
-0.00146484375
0.0010986328125
-0.00146484375
0.006591796875
-0.003662109375
0.0003662109375
-0.0003662109375
-0.005126953125
0.002197265625
-0.0205078125
0.0421142578125
0.00439453125
-0.00146484375
0.0205078125
-0.0439453125
0.0
-0.005126953125
0.0025634765625
-0.0032958984375
-0.0018310546875
0.0003662109375
-0.0010986328125
-0.000732421875
-0.005126953125
0.0040283203125
-0.0029296875
0.0025634765625
0.0010986328125
-0.002197265625
0.0010986328125
-0.002197265625
0.00439453125
-0.0040283203125
0.0018310546875
-0.0032958984375
0.00146484375
-0.0025634765625
-0.002197265625
0.0003662109375
-0.0018310546875
0.0018310546875
-0.002197265625
0.0025634765625
-0.00146484375
0.00146484375
0.0
0.0
-0.000732421875
0.0
0.0
-0.0029296875
-0.01025390625
0.0010986328125
-0.0003662109375
0.0
0.005859375
0.0
0.0
0.002197265625
-0.000732421875
0.0
-0.065185546875
0.076171875
0.002197265625
0.00439453125
0.0633544921875
-0.07470703125
-0.0003662109375
-0.00439453125
-0.0010986328125
0.0
-0.00146484375
0.0003662109375
-0.00439453125
0.002197265625
-0.005859375
0.003662109375
-0.0062255859375
0.003662109375
-0.00146484375
0.0003662109375
0.0047607421875
-0.002197265625
0.0025634765625
-0.00146484375
-0.0172119140625
0.034423828125
-0.087890625
0.09375
-0.0787353515625
0.1278076171875
0.098876953125
-0.1080322265625
0.1190185546875
-0.1885986328125
0.0120849609375
-0.0098876953125
0.0040283203125
-0.0091552734375
0.01171875
-0.019775390625
0.0146484375
-0.0274658203125
0.0062255859375
-0.0267333984375
-0.0201416015625
0.0216064453125
-0.0322265625
0.059326171875
-0.0194091796875
0.0421142578125
-0.0047607421875
0.0142822265625
0.0029296875
0.003662109375
0.0018310546875
0.0032958984375
0.003662109375
0.0
-0.0003662109375
0.000732421875
0.00146484375
0.000732421875
0.0010986328125
0.0018310546875
0.0
0.002197265625
0.0010986328125
0.0003662109375
0.0018310546875
-0.0010986328125
0.00146484375
0.0003662109375
-0.000732421875
0.0010986328125
0.0032958984375
-0.0025634765625
-0.000732421875
0.0018310546875
-0.0003662109375
0.0025634765625
0.0
0.0018310546875
0.0
0.000732421875
0.0010986328125
-0.0018310546875
0.000732421875
-0.000732421875
0.00146484375
-0.0010986328125
-0.0018310546875
0.00146484375
0.0003662109375
0.000732421875
-0.002197265625
-0.0003662109375
-0.0040283203125
-0.0029296875
-0.0032958984375
0.0003662109375
0.002197265625
0.005126953125
0.003662109375
0.002197265625
-0.00146484375
0.0003662109375
-0.05419921875
0.040283203125
0.00146484375
0.01171875
0.0556640625
-0.0391845703125
-0.0029296875
-0.0098876953125
-0.0010986328125
-0.0003662109375
-0.00146484375
0.000732421875
-0.0018310546875
0.002197265625
-0.002197265625
0.003662109375
-0.0069580078125
0.0054931640625
-0.0010986328125
0.00146484375
-0.000732421875
0.0003662109375
0.0010986328125
-0.005859375
0.0018310546875
-0.00732421875
0.000732421875
-0.0032958984375
0.0010986328125
-0.0040283203125
-0.002197265625
-0.000732421875
0.0010986328125
-0.0010986328125
-0.000732421875
0.00146484375
0.0010986328125
-0.000732421875
0.000732421875
-0.00146484375
-0.000732421875
0.0010986328125
0.0
-0.0054931640625
-0.0054931640625
-0.0029296875
0.000732421875
0.002197265625
0.0029296875
0.0025634765625
-0.0003662109375
0.0029296875
0.0
0.00146484375
-0.0443115234375
0.0531005859375
0.0
0.00146484375
0.044677734375
-0.0531005859375
-0.00146484375
-0.000732421875
-0.0029296875
0.002197265625
-0.0018310546875
0.0018310546875
-0.0062255859375
0.0040283203125
-0.006591796875
0.0040283203125
-0.0091552734375
0.00732421875
-0.0018310546875
0.0029296875
0.00439453125
-0.0032958984375
0.0032958984375
-0.0029296875
0.0040283203125
-0.002197265625
-0.0003662109375
0.000732421875
0.0025634765625
-0.00146484375
0.0029296875
-0.0003662109375
0.002197265625
0.0
0.0010986328125
0.0025634765625
0.003662109375
0.000732421875
0.0047607421875
-0.0054931640625
0.002197265625
-0.003662109375
0.000732421875
-0.0018310546875
-0.0032958984375
-0.000732421875
0.00146484375
0.002197265625
-0.0010986328125
0.01025390625
-0.000732421875
0.0010986328125
-0.0113525390625
0.0135498046875
-0.00439453125
0.041748046875
0.018310546875
-0.01318359375
0.0098876953125
-0.03955078125
0.0010986328125
-0.00439453125
-0.0047607421875
0.0029296875
0.0
0.002197265625
-0.0032958984375
0.002197265625
-0.0076904296875
0.006591796875
-0.00439453125
0.0047607421875
-0.000732421875
-0.0018310546875
0.0054931640625
-0.0069580078125
0.0029296875
-0.0018310546875
0.0018310546875
0.0
0.000732421875
-0.002197265625
0.00146484375
0.0003662109375
0.000732421875
0.0025634765625
0.0025634765625
0.00146484375
0.0029296875
-0.000732421875
0.0
0.0003662109375
0.00146484375
-0.000732421875
-0.00146484375
-0.0003662109375
0.0010986328125
-0.0062255859375
-0.0018310546875
-0.005859375
0.00146484375
0.0003662109375
0.0018310546875
0.006591796875
-0.0029296875
0.005126953125
-0.005859375
0.002197265625
-0.0179443359375
0.044677734375
0.01025390625
-0.0032958984375
0.01904296875
-0.0479736328125
0.0003662109375
-0.005859375
-0.0010986328125
0.0003662109375
-0.0018310546875
0.0032958984375
-0.00146484375
0.000732421875
-0.005859375
0.00146484375
-0.0025634765625
-0.0010986328125
0.00146484375
-0.00146484375
0.0047607421875
-0.0032958984375
0.0029296875
-0.002197265625
0.002197265625
-0.00146484375
0.0003662109375
-0.0025634765625
-0.000732421875
0.0
-0.002197265625
0.0018310546875
-0.003662109375
0.0040283203125
0.0025634765625
-0.0029296875
0.00146484375
-0.0040283203125
0.002197265625
-0.0018310546875
-0.00146484375
-0.00146484375
-0.00146484375
-0.0040283203125
-0.00439453125
-0.00439453125
-0.00146484375
0.002197265625
0.0062255859375
0.0025634765625
0.0
0.002197265625
0.000732421875
0.000732421875
-0.0611572265625
0.06884765625
-0.0010986328125
0.00732421875
0.0560302734375
-0.0655517578125
-0.0029296875
-0.0047607421875
0.000732421875
-0.0029296875
-0.0010986328125
0.0
-0.0010986328125
0.0003662109375
-0.0040283203125
0.0
-0.0040283203125
0.0029296875
-0.0025634765625
0.00146484375
0.002197265625
-0.00146484375
0.0040283203125
-0.0029296875
0.00146484375
-0.002197265625
0.000732421875
-0.0010986328125
-0.0018310546875
0.0
-0.0029296875
0.0032958984375
-0.002197265625
0.002197265625
0.0018310546875
-0.0018310546875
0.0003662109375
-0.00146484375
0.0
-0.0003662109375
-0.0003662109375
0.0
-0.000732421875
-0.0010986328125
0.0
-0.005859375
-0.0025634765625
-0.0025634765625
0.0040283203125
0.002197265625
0.00146484375
0.0010986328125
0.0
0.0
-0.013916015625
0.0084228515625
0.000732421875
0.027099609375
0.01904296875
-0.0128173828125
0.00146484375
-0.032958984375
-0.000732421875
-0.0010986328125
-0.0032958984375
0.00146484375
-0.00146484375
0.0
-0.00439453125
0.0029296875
-0.005859375
0.0040283203125
-0.0054931640625
0.003662109375
0.0
-0.0003662109375
0.00732421875
-0.006591796875
0.0029296875
-0.0040283203125
0.0010986328125
-0.00146484375
-0.0025634765625
0.0
-0.0018310546875
0.000732421875
-0.0029296875
0.0029296875
-0.00146484375
0.003662109375
0.0003662109375
0.0018310546875
0.0003662109375
-0.0018310546875
0.0032958984375
-0.003662109375
-0.0003662109375
-0.0003662109375
0.002197265625
-0.0069580078125
-0.00439453125
-0.0054931640625
0.0018310546875
-0.0003662109375
0.00732421875
0.0018310546875
0.000732421875
0.002197265625
0.0040283203125
-0.0040283203125
-0.0615234375
0.071044921875
0.005126953125
0.002197265625
0.064453125
-0.0736083984375
-0.002197265625
-0.0032958984375
-0.002197265625
0.0029296875
0.0
0.0010986328125
0.00146484375
-0.002197265625
-0.0032958984375
0.0025634765625
-0.0032958984375
0.0032958984375
0.00146484375
0.00146484375
0.0106201171875
-0.0029296875
0.012451171875
-0.01171875
0.01171875
-0.012451171875
0.006591796875
-0.005859375
0.0040283203125
-0.00146484375
0.0069580078125
-0.005126953125
0.008056640625
-0.0091552734375
0.0087890625
-0.006591796875
0.0032958984375
-0.0003662109375
0.0040283203125
0.0018310546875
-0.000732421875
0.002197265625
-0.002197265625
-0.0032958984375
0.002197265625
-0.0091552734375
0.0047607421875
-0.000732421875
0.00732421875
0.0047607421875
0.000732421875
0.006591796875
0.0
0.005859375
-0.0516357421875
0.0406494140625
0.0106201171875
0.006591796875
0.0611572265625
-0.0567626953125
0.000732421875
-0.030029296875
-0.0029296875
-0.0069580078125
-0.0113525390625
-0.0029296875
-0.0087890625
-0.00439453125
-0.0091552734375
-0.0025634765625
-0.009521484375
0.0025634765625
-0.0069580078125
0.0029296875
-0.00146484375
-0.002197265625
0.0003662109375
-0.005859375
-0.0018310546875
-0.0003662109375
-0.0062255859375
0.0076904296875
-0.0098876953125
0.0087890625
-0.005859375
0.0047607421875
-0.0062255859375
0.003662109375
-0.0054931640625
0.0062255859375
-0.006591796875
0.006591796875
-0.00439453125
0.0054931640625
-0.0032958984375
0.0029296875
-0.0062255859375
0.003662109375
0.0128173828125
-0.0157470703125
0.030029296875
-0.0347900390625
0.019775390625
-0.010986328125
-0.000732421875
0.008056640625
-0.0062255859375
0.0062255859375
-0.0260009765625
0.0216064453125
-0.0054931640625
0.03515625
0.0113525390625
-0.0025634765625
-0.0135498046875
-0.0120849609375
-0.0084228515625
0.01025390625
-0.0098876953125
0.008056640625
-0.0076904296875
0.009521484375
-0.009521484375
0.010986328125
-0.01171875
0.0113525390625
-0.0076904296875
0.0087890625
-0.0029296875
0.00439453125
0.0018310546875
-0.0003662109375
-0.0003662109375
0.002197265625
0.0003662109375
0.0032958984375
-0.0025634765625
0.0018310546875
-0.00146484375
0.0018310546875
-0.0018310546875
0.00146484375
-0.000732421875
-0.0018310546875
0.0
0.002197265625
-0.0010986328125
0.002197265625
0.0018310546875
-0.0018310546875
-0.002197265625
0.002197265625
0.000732421875
-0.005126953125
-0.003662109375
-0.0010986328125
0.0018310546875
0.0025634765625
0.005859375
0.002197265625
-0.000732421875
0.003662109375
-0.0029296875
0.0025634765625
-0.03076171875
0.0516357421875
0.005859375
-0.000732421875
0.029296875
-0.050537109375
-0.0010986328125
-0.0018310546875
-0.0018310546875
0.003662109375
-0.000732421875
0.002197265625
-0.0010986328125
0.0003662109375
-0.0069580078125
0.005126953125
-0.0040283203125
0.0040283203125
-0.0018310546875
0.0025634765625
0.0032958984375
0.0
0.0032958984375
-0.000732421875
0.0047607421875
-0.003662109375
0.00439453125
-0.0047607421875
0.000732421875
0.000732421875
0.0029296875
0.0
0.0
0.00146484375
0.002197265625
-0.000732421875
0.002197265625
-0.0010986328125
0.0069580078125
-0.0032958984375
0.005859375
-0.006591796875
0.0018310546875
-0.00439453125
-0.0010986328125
-0.0029296875
0.003662109375
-0.000732421875
0.0091552734375
0.0003662109375
0.000732421875
0.0025634765625
0.0018310546875
0.00439453125
-0.0472412109375
0.0589599609375
0.005126953125
-0.000732421875
0.04833984375
-0.054931640625
-0.0040283203125
0.0018310546875
0.0003662109375
0.003662109375
-0.00146484375
0.005126953125
-0.0010986328125
0.0025634765625
-0.00732421875
0.0091552734375
-0.006591796875
0.009521484375
-0.000732421875
0.0029296875
0.0054931640625
-0.002197265625
0.005126953125
-0.003662109375
0.0003662109375
0.0010986328125
0.0
0.0032958984375
-0.0018310546875
0.0029296875
0.0
0.0003662109375
-0.00146484375
0.00146484375
0.0025634765625
-0.002197265625
0.000732421875
-0.0025634765625
-0.0018310546875
0.0010986328125
-0.0003662109375
-0.0010986328125
-0.003662109375
-0.003662109375
-0.006591796875
0.0003662109375
-0.002197265625
0.006591796875
0.0047607421875
0.003662109375
-0.002197265625
0.0003662109375
-0.01025390625
0.003662109375
-0.0223388671875
0.03515625
0.0047607421875
0.000732421875
0.0135498046875
-0.03076171875
-0.0106201171875
0.00146484375
-0.00439453125
0.00146484375
-0.0047607421875
0.00146484375
-0.00439453125
0.0029296875
-0.00732421875
0.005126953125
-0.0047607421875
0.0025634765625
0.00439453125
-0.0047607421875
0.0076904296875
-0.0098876953125
0.0106201171875
-0.0106201171875
0.006591796875
-0.00732421875
0.0025634765625
-0.0047607421875
0.0003662109375
-0.0032958984375
0.00439453125
-0.005859375
0.0029296875
-0.00439453125
0.00146484375
-0.0032958984375
0.002197265625
-0.003662109375
0.0003662109375
-0.0010986328125
0.0047607421875
-0.00439453125
-0.002197265625
-0.00732421875
-0.0025634765625
-0.0018310546875
0.0032958984375
0.003662109375
0.0025634765625
0.0003662109375
-0.0010986328125
0.000732421875
-0.029296875
0.01904296875
0.008056640625
0.0157470703125
0.029296875
-0.018310546875
-0.00439453125
-0.0179443359375
-0.0029296875
0.00146484375
0.0
0.0018310546875
0.0
0.0
-0.0054931640625
0.0032958984375
-0.005859375
0.0054931640625
-0.005126953125
0.002197265625
0.0029296875
-0.0018310546875
0.0032958984375
-0.002197265625
0.0010986328125
-0.000732421875
-0.0029296875
0.00439453125
-0.0032958984375
0.005859375
0.000732421875
0.0018310546875
0.002197265625
-0.0018310546875
0.003662109375
-0.0018310546875
0.0010986328125
0.0032958984375
0.005126953125
0.00146484375
0.0032958984375
-0.00146484375
0.002197265625
-0.005859375
-0.00439453125
-0.00732421875
0.002197265625
-0.00146484375
0.0087890625
0.0076904296875
0.0
0.008056640625
0.0032958984375
-0.0003662109375
-0.05712890625
0.057861328125
0.00732421875
0.0069580078125
0.0611572265625
-0.0545654296875
-0.0029296875
-0.0010986328125
-0.0003662109375
0.0040283203125
-0.0010986328125
0.003662109375
-0.002197265625
0.003662109375
-0.006591796875
0.0054931640625
-0.003662109375
0.00732421875
-0.0029296875
0.00439453125
0.0018310546875
-0.00146484375
0.0029296875
-0.000732421875
-0.0106201171875
0.0223388671875
-0.064453125
0.0648193359375
-0.0926513671875
0.160430908203125
0.0772705078125
-0.08056640625
0.1204833984375
-0.205841064453125
0.0120849609375
-0.0087890625
0.0062255859375
-0.008056640625
0.0106201171875
-0.021240234375
0.0179443359375
-0.031494140625
0.0091552734375
-0.031494140625
-0.0128173828125
0.0106201171875
-0.0303955078125
0.0509033203125
-0.0205078125
0.0384521484375
-0.0054931640625
0.017578125
0.00146484375
0.0076904296875
0.0003662109375
0.005859375
0.0003662109375
-0.0029296875
-0.0003662109375
0.0018310546875
0.000732421875
0.0087890625
0.0018310546875
-0.00146484375
-0.0029296875
0.0010986328125
-0.000732421875
0.0025634765625
-0.0029296875
0.000732421875
-0.0010986328125
0.0003662109375
-0.0010986328125
-0.0025634765625
-0.003662109375
0.0
-0.0018310546875
0.0040283203125
-0.0003662109375
0.0018310546875
0.0025634765625
-0.0029296875
-0.0010986328125
-0.00146484375
0.000732421875
0.000732421875
-0.0003662109375
0.000732421875
0.0
-0.0010986328125
-0.002197265625
-0.002197265625
-0.002197265625
-0.0018310546875
0.0018310546875
-0.0010986328125
-0.0018310546875
-0.005126953125
0.000732421875
-0.0087890625
0.000732421875
0.00439453125
0.0010986328125
0.0069580078125
-0.0029296875
0.0010986328125
-0.04248046875
0.0201416015625
0.00146484375
0.0234375
0.0380859375
-0.017578125
-0.0010986328125
-0.02197265625
0.000732421875
-0.0010986328125
0.000732421875
-0.000732421875
-0.0040283203125
0.0047607421875
-0.0040283203125
0.002197265625
-0.0054931640625
0.0
-0.0076904296875
0.00732421875
-0.0003662109375
0.0040283203125
0.0018310546875
-0.0054931640625
0.0003662109375
-0.0062255859375
-0.0003662109375
-0.0010986328125
0.000732421875
-0.00146484375
-0.0025634765625
0.0003662109375
-0.00146484375
0.003662109375
0.0003662109375
-0.0018310546875
-0.0010986328125
0.0003662109375
0.0010986328125
0.0010986328125
-0.0029296875
0.0018310546875
-0.0010986328125
-0.0047607421875
-0.00146484375
-0.005859375
0.0018310546875
0.005859375
0.0025634765625
0.0040283203125
-0.0010986328125
0.0
-0.0120849609375
0.005126953125
-0.0010986328125
0.0322265625
0.012451171875
-0.0032958984375
-0.0018310546875
-0.0289306640625
-0.000732421875
0.0
-0.0010986328125
0.0
0.0
-0.0018310546875
-0.002197265625
0.003662109375
-0.005126953125
0.0047607421875
-0.0018310546875
0.0
0.0010986328125
-0.0010986328125
0.0069580078125
-0.006591796875
0.005126953125
-0.005126953125
0.0040283203125
-0.0032958984375
0.000732421875
-0.0018310546875
-0.0003662109375
-0.0010986328125
0.000732421875
-0.00146484375
0.0003662109375
-0.0032958984375
0.0040283203125
-0.0029296875
0.0018310546875
0.000732421875
0.0029296875
-0.002197265625
0.0003662109375
-0.0106201171875
-0.0032958984375
-0.005859375
0.0025634765625
0.0047607421875
0.003662109375
0.002197265625
0.0
-0.0018310546875
0.000732421875
-0.003662109375
-0.034423828125
0.0487060546875
0.000732421875
0.00146484375
0.0380859375
-0.05419921875
-0.0003662109375
-0.0054931640625
0.000732421875
-0.0029296875
0.0
-0.0010986328125
-0.0032958984375
-0.00146484375
-0.0040283203125
0.00146484375
-0.006591796875
0.00439453125
-0.000732421875
0.00146484375
0.0018310546875
0.0003662109375
0.0032958984375
-0.0032958984375
0.0
-0.0003662109375
0.0
0.0010986328125
0.0
0.0010986328125
-0.0032958984375
-0.0010986328125
0.0018310546875
-0.0032958984375
-0.000732421875
0.0003662109375
-0.0003662109375
-0.000732421875
0.0010986328125
-0.002197265625
0.0003662109375
-0.0032958984375
-0.005859375
-0.0062255859375
-0.0018310546875
-0.0003662109375
0.006591796875
0.0054931640625
0.0010986328125
-0.0003662109375
0.002197265625
-0.003662109375
-0.0545654296875
0.0413818359375
0.0040283203125
0.0084228515625
0.057861328125
-0.0465087890625
-0.0018310546875
-0.0142822265625
-0.000732421875
-0.00146484375
-0.0047607421875
0.0029296875
-0.0032958984375
0.0025634765625
-0.005126953125
0.00146484375
-0.0040283203125
0.0029296875
-0.000732421875
-0.000732421875
0.0040283203125
-0.002197265625
0.0084228515625
-0.005859375
-0.000732421875
0.00732421875
-0.05126953125
0.0655517578125
-0.1160888671875
0.199249267578125
0.0640869140625
-0.0743408203125
0.144287109375
-0.239166259765625
0.0179443359375
-0.0186767578125
0.00732421875
-0.00439453125
0.008056640625
-0.0150146484375
0.0142822265625
-0.0274658203125
0.012451171875
-0.0318603515625
-0.0069580078125
-0.0010986328125
-0.031494140625
0.0472412109375
-0.025634765625
0.053466796875
-0.0091552734375
0.027099609375
0.00146484375
0.005126953125
0.0010986328125
0.006591796875
-0.0010986328125
0.008056640625
0.00146484375
0.002197265625
-0.0003662109375
0.0010986328125
0.00146484375
0.0010986328125
0.0
0.000732421875
0.0
0.0010986328125
0.0
0.0025634765625
0.0
0.0
-0.0025634765625
0.006591796875
-0.00146484375
0.00439453125
0.0010986328125
0.00146484375
-0.0025634765625
0.0069580078125
0.0032958984375
-0.0040283203125
0.005126953125
-0.0106201171875
0.0047607421875
-0.006591796875
0.002197265625
-0.0032958984375
0.0010986328125
0.0010986328125
0.00146484375
-0.0018310546875
-0.00146484375
-0.003662109375
0.0
-0.005859375
-0.0062255859375
-0.0054931640625
0.0025634765625
-0.002197265625
0.005126953125
0.0040283203125
-0.00146484375
0.006591796875
-0.002197265625
0.0054931640625
-0.0380859375
0.03369140625
0.00439453125
0.0025634765625
0.0377197265625
-0.0318603515625
0.0018310546875
-0.0087890625
-0.0003662109375
-0.0025634765625
0.0
-0.0003662109375
-0.002197265625
0.002197265625
-0.0054931640625
0.005126953125
-0.0047607421875
0.00439453125
-0.0025634765625
0.000732421875
0.0010986328125
-0.0003662109375
-0.000732421875
-0.0047607421875
0.00146484375
-0.008056640625
-0.0003662109375
-0.000732421875
-0.000732421875
-0.0010986328125
-0.000732421875
-0.00146484375
0.0
-0.0025634765625
0.00146484375
-0.0025634765625
-0.002197265625
0.0062255859375
0.0
0.005126953125
0.0
-0.005126953125
-0.00439453125
-0.00732421875
-0.000732421875
0.0003662109375
0.0054931640625
0.0062255859375
0.0
0.005859375
-0.0032958984375
0.0040283203125
-0.052734375
0.0413818359375
0.0010986328125
0.0113525390625
0.0545654296875
-0.041748046875
-0.002197265625
-0.013916015625
-0.00146484375
-0.0003662109375
-0.0025634765625
0.0010986328125
-0.0047607421875
0.0029296875
-0.005126953125
0.0032958984375
-0.0062255859375
0.0032958984375
0.000732421875
0.00146484375
0.0010986328125
0.000732421875
0.003662109375
-0.0018310546875
0.0029296875
-0.002197265625
-0.00146484375
0.0010986328125
-0.002197265625
0.0003662109375
-0.0018310546875
0.000732421875
-0.0003662109375
0.0018310546875
-0.0025634765625
0.00146484375
-0.0003662109375
0.0029296875
0.0
0.00146484375
0.002197265625
-0.0025634765625
-0.000732421875
-0.0047607421875
-0.0029296875
-0.0029296875
0.000732421875
0.0062255859375
-0.00146484375
0.008056640625
-0.00146484375
0.0018310546875
-0.019775390625
0.009521484375
0.00732421875
0.024169921875
0.0223388671875
-0.0120849609375
-0.002197265625
-0.03076171875
0.0
-0.002197265625
-0.0010986328125
-0.0003662109375
0.0
-0.0032958984375
-0.0029296875
0.0018310546875
-0.0040283203125
0.0018310546875
-0.00439453125
-0.0010986328125
0.0029296875
-0.003662109375
0.0032958984375
-0.0010986328125
0.002197265625
-0.0025634765625
0.00146484375
-0.003662109375
0.0
-0.0018310546875
0.002197265625
-0.005859375
-0.00146484375
-0.0029296875
0.00146484375
-0.0029296875
0.00146484375
-0.0003662109375
0.002197265625
-0.0018310546875
0.0003662109375
-0.0025634765625
-0.0032958984375
-0.0032958984375
-0.0076904296875
-0.0040283203125
0.0010986328125
-0.0018310546875
0.0098876953125
0.0010986328125
-0.0003662109375
0.0040283203125
0.0025634765625
-0.00439453125
-0.05712890625
0.0655517578125
0.0018310546875
0.002197265625
0.0604248046875
-0.0703125
-0.0025634765625
-0.002197265625
-0.0018310546875
0.0003662109375
-0.00146484375
0.00146484375
0.000732421875
-0.00146484375
-0.003662109375
0.0025634765625
-0.003662109375
0.0054931640625
0.0003662109375
-0.0010986328125
0.0040283203125
-0.0025634765625
0.00439453125
-0.0010986328125
0.0018310546875
-0.0029296875
-0.00439453125
0.0091552734375
-0.0472412109375
0.0618896484375
-0.1182861328125
0.200347900390625
0.0362548828125
-0.03076171875
0.1402587890625
-0.225616455078125
0.029296875
-0.0421142578125
0.0054931640625
-0.00146484375
0.0047607421875
-0.00732421875
0.00732421875
-0.016845703125
0.01025390625
-0.025634765625
-0.0029296875
-0.0113525390625
-0.0208740234375
0.0322265625
-0.0289306640625
0.05859375
-0.0142822265625
0.0322265625
-0.0010986328125
0.01025390625
-0.00146484375
0.00732421875
0.000732421875
0.0062255859375
0.0
0.0076904296875
0.002197265625
0.000732421875
-0.0010986328125
0.0
-0.0003662109375
0.0010986328125
-0.0010986328125
0.00439453125
-0.0010986328125
0.0025634765625
0.000732421875
-0.0018310546875
-0.0003662109375
-0.003662109375
0.0025634765625
-0.0010986328125
-0.0003662109375
0.0018310546875
-0.0003662109375
-0.002197265625
-0.0010986328125
-0.0018310546875
0.002197265625
-0.0025634765625
0.0
0.0032958984375
0.0003662109375
0.00146484375
0.0029296875
-0.0025634765625
-0.0010986328125
-0.0003662109375
0.0010986328125
-0.000732421875
-0.0047607421875
-0.00439453125
0.0018310546875
-0.0025634765625
0.0054931640625
0.0025634765625
0.0018310546875
0.002197265625
0.0029296875
-0.0003662109375
-0.0260009765625
0.0267333984375
0.0047607421875
0.0040283203125
0.0311279296875
-0.0311279296875
0.0047607421875
-0.010986328125
-0.000732421875
0.0018310546875
-0.0025634765625
-0.002197265625
0.000732421875
-0.0040283203125
-0.0010986328125
0.005126953125
-0.00146484375
-0.002197265625
-0.00146484375
-0.005126953125
0.005126953125
-0.01025390625
0.00439453125
-0.00732421875
0.002197265625
-0.002197265625
-0.00146484375
0.0
-0.002197265625
-0.0029296875
-0.0010986328125
-0.0040283203125
-0.0025634765625
0.002197265625
0.00146484375
-0.005859375
-0.0003662109375
-0.0040283203125
0.000732421875
0.0010986328125
-0.002197265625
-0.000732421875
-0.0062255859375
-0.00439453125
0.0
0.00146484375
0.0047607421875
0.005859375
0.0010986328125
0.0029296875
-0.0018310546875
0.0
-0.041748046875
0.037353515625
0.000732421875
0.0106201171875
0.0439453125
-0.041748046875
-0.002197265625
-0.0091552734375
-0.0025634765625
0.0010986328125
-0.000732421875
-0.0025634765625
-0.0029296875
0.00146484375
-0.0025634765625
0.000732421875
-0.00439453125
0.000732421875
-0.0003662109375
0.0010986328125
0.003662109375
-0.00146484375
0.00439453125
0.000732421875
0.00146484375
0.000732421875
-0.000732421875
0.0
-0.0010986328125
-0.00146484375
-0.00146484375
-0.000732421875
0.0010986328125
0.0
0.0003662109375
0.00146484375
0.000732421875
0.00146484375
-0.0003662109375
0.0010986328125
0.000732421875
0.002197265625
0.0
0.00146484375
0.0
-0.003662109375
-0.002197265625
-0.0025634765625
0.0003662109375
0.0054931640625
0.0047607421875
0.008056640625
-0.0018310546875
0.008056640625
0.000732421875
0.0018310546875
-0.0406494140625
0.0556640625
0.0018310546875
0.0029296875
0.0421142578125
-0.0556640625
-0.002197265625
-0.0032958984375
-0.0003662109375
-0.0010986328125
-0.0025634765625
0.0025634765625
-0.002197265625
0.0025634765625
-0.0054931640625
0.0003662109375
-0.0040283203125
-0.0010986328125
0.0
0.0003662109375
0.0010986328125
0.000732421875
0.0029296875
-0.0018310546875
0.0010986328125
-0.0032958984375
0.0
-0.0025634765625
-0.00146484375
-0.0018310546875
0.0
-0.0032958984375
-0.0003662109375
0.0
0.0
0.00146484375
-0.0003662109375
0.0003662109375
-0.00146484375
0.0018310546875
0.000732421875
-0.0018310546875
-0.0003662109375
-0.0091552734375
-0.00439453125
-0.005126953125
0.0
0.0040283203125
0.005859375
0.0054931640625
0.0010986328125
0.0003662109375
0.000732421875
-0.0032958984375
-0.05126953125
0.06298828125
-0.00146484375
0.005859375
0.0509033203125
-0.0648193359375
-0.00439453125
-0.0047607421875
-0.002197265625
-0.0003662109375
-0.000732421875
-0.000732421875
-0.0032958984375
0.0025634765625
-0.005859375
0.0054931640625
-0.0069580078125
0.0069580078125
-0.003662109375
0.003662109375
-0.000732421875
0.0
0.00146484375
0.0029296875
-0.0018310546875
0.0087890625
0.0025634765625
0.00146484375
0.0029296875
-0.0010986328125
-0.0032958984375
0.005859375
-0.0040283203125
0.0069580078125
-0.00439453125
0.0084228515625
0.0
0.0029296875
-0.003662109375
0.0032958984375
-0.0025634765625
0.0032958984375
-0.000732421875
-0.0054931640625
-0.0062255859375
-0.0029296875
0.0040283203125
0.0025634765625
0.012451171875
0.0040283203125
0.008056640625
-0.0003662109375
0.0018310546875
0.0025634765625
-0.0523681640625
0.0736083984375
0.0003662109375
0.0047607421875
0.0618896484375
-0.0640869140625
0.0047607421875
0.0106201171875
0.002197265625
0.0172119140625
0.000732421875
0.0186767578125
-0.0018310546875
0.017578125
0.00146484375
0.0128173828125
-0.0032958984375
0.0128173828125
0.00439453125
0.0054931640625
0.00732421875
-0.006591796875
0.0076904296875
-0.0062255859375
0.0025634765625
-0.0025634765625
-0.0010986328125
-0.0062255859375
-0.002197265625
-0.0062255859375
-0.003662109375
-0.0047607421875
-0.000732421875
-0.0040283203125
0.00146484375
-0.0106201171875
0.0010986328125
-0.0087890625
-0.0025634765625
-0.0032958984375
-0.002197265625
-0.005126953125
-0.00439453125
-0.0098876953125
-0.0069580078125
-0.009521484375
-0.005126953125
0.0025634765625
-0.0032958984375
0.003662109375
0.0003662109375
-0.0069580078125
-0.0164794921875
0.0010986328125
-0.00146484375
0.0260009765625
0.017578125
-0.016845703125
0.0040283203125
-0.0399169921875
-0.00146484375
-0.0069580078125
-0.0062255859375
-0.0040283203125
-0.005126953125
-0.0010986328125
-0.0076904296875
0.002197265625
-0.00732421875
0.0
-0.0076904296875
-0.0018310546875
0.0
-0.003662109375
0.0032958984375
-0.0047607421875
0.0018310546875
-0.0032958984375
-0.021240234375
0.03369140625
-0.0911865234375
0.0941162109375
-0.0560302734375
0.09521484375
0.10400390625
-0.1248779296875
0.1025390625
-0.1710205078125
0.009521484375
-0.010986328125
0.005126953125
-0.015380859375
0.0084228515625
-0.0263671875
0.01318359375
-0.0322265625
0.0062255859375
-0.0311279296875
-0.0186767578125
0.019775390625
-0.02783203125
0.054931640625
-0.018310546875
0.041748046875
-0.005126953125
0.019775390625
-0.0010986328125
0.005126953125
0.0010986328125
0.00732421875
0.005859375
-0.0029296875
0.0003662109375
-0.00732421875
-0.0054931640625
0.005859375
-0.0054931640625
0.003662109375
-0.005859375
0.0029296875
-0.0025634765625
0.005859375
0.0029296875
0.000732421875
0.0003662109375
0.0069580078125
0.000732421875
0.0087890625
0.0029296875
0.002197265625
0.0010986328125
-0.00146484375
0.0032958984375
-0.0025634765625
0.000732421875
-0.00146484375
0.002197265625
0.0010986328125
0.0018310546875
-0.000732421875
0.002197265625
-0.0025634765625
0.0040283203125
-0.0018310546875
0.0003662109375
-0.00146484375
-0.0018310546875
0.00146484375
-0.00439453125
0.002197265625
-0.0040283203125
-0.0054931640625
-0.0025634765625
0.0029296875
0.005859375
0.0098876953125
0.0040283203125
0.0
0.00146484375
-0.0047607421875
-0.0428466796875
0.0340576171875
0.005126953125
0.005859375
0.05419921875
-0.0399169921875
-0.0018310546875
-0.006591796875
-0.000732421875
-0.0003662109375
0.00146484375
0.0010986328125
-0.000732421875
0.002197265625
-0.0010986328125
0.0
-0.00439453125
0.0032958984375
-0.0047607421875
0.0040283203125
-0.0025634765625
0.0040283203125
0.0025634765625
-0.005859375
0.000732421875
-0.00732421875
-0.01611328125
0.01611328125
-0.078369140625
0.09375
-0.0655517578125
0.107666015625
0.0897216796875
-0.10693359375
0.0966796875
-0.134765625
0.0084228515625
-0.0062255859375
0.00439453125
-0.01318359375
0.0062255859375
-0.0084228515625
0.010986328125
-0.018310546875
0.0120849609375
-0.030029296875
-0.0098876953125
-0.0047607421875
-0.0340576171875
0.04541015625
-0.022705078125
0.0498046875
-0.0047607421875
0.017578125
0.0003662109375
0.0054931640625
0.0
0.0025634765625
0.0018310546875
0.0003662109375
0.0010986328125
0.0
0.0018310546875
-0.0003662109375
0.0003662109375
0.0
-0.0029296875
0.000732421875
0.000732421875
-0.002197265625
0.0018310546875
-0.003662109375
0.0018310546875
-0.0018310546875
-0.000732421875
-0.0003662109375
0.0018310546875
-0.0029296875
0.0
0.0010986328125
-0.0010986328125
-0.000732421875
0.0010986328125
-0.00146484375
-0.0003662109375
0.00146484375
0.0
-0.0040283203125
-0.0032958984375
0.002197265625
-0.0029296875
0.0062255859375
-0.003662109375
0.0018310546875
-0.0010986328125
-0.003662109375
-0.0018310546875
-0.003662109375
-0.0018310546875
0.0054931640625
-0.000732421875
0.0084228515625
-0.003662109375
0.0032958984375
-0.040283203125
0.0234375
0.0054931640625
0.0179443359375
0.04541015625
-0.0263671875
-0.0025634765625
-0.0186767578125
0.0003662109375
-0.0018310546875
0.0025634765625
-0.000732421875
-0.000732421875
0.000732421875
-0.0018310546875
0.0010986328125
-0.00439453125
0.0040283203125
-0.0010986328125
-0.0032958984375
0.0010986328125
-0.00146484375
0.0003662109375
0.000732421875
0.0003662109375
-0.005126953125
0.0010986328125
-0.00439453125
0.003662109375
-0.0062255859375
0.00146484375
-0.005859375
0.0003662109375
0.0
0.0018310546875
-0.0018310546875
0.0040283203125
-0.00439453125
0.00146484375
-0.0010986328125
0.0010986328125
-0.006591796875
-0.002197265625
-0.0069580078125
0.0
0.0018310546875
0.0047607421875
0.000732421875
-0.0003662109375
-0.000732421875
0.000732421875
-0.000732421875
-0.041015625
0.0479736328125
0.0003662109375
0.0018310546875
0.041015625
-0.0498046875
0.0003662109375
-0.005859375
-0.000732421875
-0.002197265625
-0.0025634765625
-0.00146484375
-0.0029296875
0.0018310546875
-0.0084228515625
0.008056640625
-0.006591796875
0.005859375
-0.0003662109375
0.0
0.005126953125
-0.005126953125
0.002197265625
-0.0029296875
-0.032958984375
0.05126953125
-0.1219482421875
0.1790771484375
-0.008056640625
0.01904296875
0.141357421875
-0.2054443359375
0.063720703125
-0.0999755859375
0.009521484375
-0.0069580078125
0.005859375
-0.0120849609375
0.0120849609375
-0.0223388671875
0.015380859375
-0.0325927734375
0.0003662109375
-0.0194091796875
-0.024169921875
0.0347900390625
-0.0311279296875
0.0633544921875
-0.0120849609375
0.0391845703125
-0.0025634765625
0.0142822265625
0.0003662109375
0.0047607421875
0.0
0.0047607421875
-0.00146484375
0.006591796875
0.00146484375
0.0076904296875
0.0003662109375
0.0029296875
-0.000732421875
0.005126953125
-0.0010986328125
0.005126953125
0.002197265625
-0.00146484375
0.0003662109375
0.003662109375
-0.000732421875
-0.0003662109375
0.0003662109375
-0.002197265625
-0.0003662109375
0.00439453125
0.0
0.002197265625
-0.0003662109375
-0.0032958984375
0.00146484375
-0.0010986328125
-0.0010986328125
0.000732421875
0.0
0.0010986328125
0.0
0.0003662109375
-0.0003662109375
-0.0018310546875
0.000732421875
0.00146484375
-0.00146484375
-0.0032958984375
-0.0040283203125
-0.005126953125
-0.003662109375
0.0040283203125
0.0003662109375
0.0087890625
-0.000732421875
0.0040283203125
-0.0164794921875
0.010986328125
0.00439453125
0.022705078125
0.0179443359375
-0.01025390625
-0.0040283203125
-0.0208740234375
-0.0025634765625
-0.0003662109375
0.0003662109375
-0.0029296875
-0.0018310546875
0.0003662109375
-0.0032958984375
0.0076904296875
-0.005126953125
0.0076904296875
-0.0029296875
0.0029296875
0.0025634765625
-0.00146484375
-0.0003662109375
-0.0040283203125
-0.00146484375
-0.0025634765625
-0.0003662109375
-0.0025634765625
0.000732421875
-0.003662109375
-0.0003662109375
-0.0010986328125
0.000732421875
0.0018310546875
0.002197265625
-0.0010986328125
0.0025634765625
-0.0010986328125
0.0047607421875
-0.0018310546875
0.0003662109375
-0.0029296875
-0.00146484375
-0.0069580078125
-0.000732421875
-0.00146484375
0.0032958984375
0.005126953125
0.0032958984375
0.0
0.00146484375
-0.0018310546875
-0.0186767578125
0.0091552734375
0.0040283203125
0.0281982421875
0.022705078125
-0.012451171875
-0.0029296875
-0.0303955078125
0.0003662109375
-0.0032958984375
-0.00146484375
-0.00146484375
-0.0010986328125
0.0018310546875
-0.00439453125
0.0029296875
-0.008056640625
0.0040283203125
-0.0047607421875
0.0025634765625
-0.0003662109375
-0.00146484375
0.0040283203125
-0.00439453125
0.0018310546875
-0.0010986328125
0.0003662109375
0.0
0.0
-0.000732421875
-0.0003662109375
0.0
0.0
-0.003662109375
-0.0003662109375
-0.0032958984375
0.0
-0.0010986328125
-0.0029296875
-0.0003662109375
0.0
-0.0010986328125
-0.0010986328125
-0.005126953125
-0.006591796875
-0.00732421875
0.000732421875
-0.000732421875
0.006591796875
0.0047607421875
0.00146484375
0.0
0.000732421875
-0.0047607421875
-0.06005859375
0.064453125
0.00146484375
0.0054931640625
0.065185546875
-0.069580078125
-0.0018310546875
-0.006591796875
-0.000732421875
-0.000732421875
-0.0003662109375
0.0
-0.0025634765625
0.0010986328125
-0.003662109375
0.0
-0.0087890625
0.003662109375
-0.0029296875
0.0010986328125
0.0018310546875
-0.00146484375
0.00439453125
-0.0010986328125
0.0029296875
0.0
-0.0003662109375
0.0
0.002197265625
-0.0018310546875
0.0029296875
-0.000732421875
0.002197265625
0.0
0.0
-0.00146484375
0.0029296875
0.0
0.0018310546875
0.0029296875
0.002197265625
-0.002197265625
0.0010986328125
-0.0047607421875
-0.005126953125
0.0010986328125
0.00146484375
0.0069580078125
0.0040283203125
0.0076904296875
0.0018310546875
0.0003662109375
0.00146484375
0.0
-0.0494384765625
0.06591796875
-0.0010986328125
0.005859375
0.050537109375
-0.0589599609375
0.0003662109375
0.0018310546875
-0.0010986328125
0.0018310546875
-0.000732421875
0.0025634765625
-0.003662109375
0.01025390625
-0.0029296875
0.0091552734375
-0.005859375
0.0069580078125
-0.0003662109375
0.00439453125
0.005859375
-0.00146484375
0.0062255859375
-0.005859375
-0.0120849609375
0.028564453125
-0.075439453125
0.0765380859375
-0.0845947265625
0.144317626953125
0.08642578125
-0.0904541015625
0.1219482421875
-0.200714111328125
0.0106201171875
-0.006591796875
0.0040283203125
-0.0084228515625
0.00732421875
-0.0186767578125
0.013916015625
-0.025634765625
0.0069580078125
-0.0318603515625
-0.016845703125
0.0084228515625
-0.0303955078125
0.05126953125
-0.0263671875
0.044677734375
-0.0087890625
0.0172119140625
-0.00146484375
0.005126953125
-0.00146484375
0.003662109375
0.0010986328125
0.000732421875
0.000732421875
-0.0003662109375
0.0010986328125
-0.00146484375
-0.000732421875
-0.0003662109375
0.0010986328125
-0.0010986328125
-0.000732421875
-0.000732421875
-0.0010986328125
0.0
-0.000732421875
0.0
-0.000732421875
-0.00146484375
0.000732421875
-0.0029296875
-0.000732421875
-0.0018310546875
0.000732421875
-0.0025634765625
-0.000732421875
-0.00146484375
0.0018310546875
-0.0047607421875
0.0
-0.0029296875
0.0003662109375
-0.0010986328125
0.00146484375
-0.0010986328125
-0.00146484375
0.0003662109375
-0.0003662109375
-0.0010986328125
-0.002197265625
-0.000732421875
-0.0003662109375
-0.0029296875
-0.005126953125
-0.005859375
-0.0010986328125
-0.000732421875
0.00439453125
0.0047607421875
0.0018310546875
0.0
0.0018310546875
-0.003662109375
-0.0523681640625
0.049072265625
0.0040283203125
0.002197265625
0.05419921875
-0.05419921875
0.0
-0.0076904296875
-0.00146484375
-0.00146484375
-0.000732421875
-0.0003662109375
-0.0003662109375
-0.000732421875
-0.00439453125
0.002197265625
-0.0029296875
0.00439453125
-0.0032958984375
0.0032958984375
0.0
0.0
0.002197265625
-0.005859375
0.0032958984375
-0.0076904296875
0.0010986328125
-0.0032958984375
0.000732421875
-0.0010986328125
0.0018310546875
-0.00146484375
-0.0003662109375
0.0
0.0010986328125
0.0010986328125
0.0003662109375
0.000732421875
0.00146484375
0.00146484375
-0.000732421875
0.002197265625
-0.000732421875
-0.0003662109375
-0.0029296875
-0.0040283203125
-0.00146484375
0.002197265625
0.006591796875
0.003662109375
0.0032958984375
0.00146484375
0.000732421875
0.00146484375
-0.024169921875
0.0172119140625
0.008056640625
0.0216064453125
0.025634765625
-0.016845703125
-0.0040283203125
-0.0216064453125
0.0003662109375
0.0018310546875
-0.0029296875
0.0025634765625
-0.00146484375
0.0029296875
-0.0040283203125
0.006591796875
-0.005859375
0.00732421875
-0.0047607421875
0.005126953125
0.0018310546875
-0.0003662109375
0.00439453125
-0.00146484375
0.003662109375
-0.000732421875
0.00146484375
-0.000732421875
-0.0010986328125
0.0018310546875
-0.000732421875
0.0018310546875
-0.0029296875
0.003662109375
-0.000732421875
0.0040283203125
0.0
-0.000732421875
0.0
-0.0003662109375
-0.000732421875
0.0
-0.0003662109375
-0.000732421875
0.000732421875
-0.0062255859375
-0.006591796875
-0.0029296875
-0.0003662109375
0.003662109375
0.0025634765625
0.00439453125
-0.0010986328125
0.0029296875
-0.00439453125
0.0029296875
-0.0318603515625
0.046142578125
0.0054931640625
-0.0003662109375
0.0322265625
-0.0457763671875
0.0003662109375
-0.00439453125
-0.0018310546875
0.0003662109375
-0.00146484375
0.00146484375
-0.003662109375
0.0003662109375
-0.005126953125
0.002197265625
-0.0054931640625
0.0029296875
-0.000732421875
-0.00146484375
0.0054931640625
-0.0047607421875
0.0040283203125
-0.00439453125
0.003662109375
-0.0029296875
-0.00146484375
-0.0010986328125
0.0
-0.0029296875
0.0003662109375
-0.0018310546875
0.0
0.0010986328125
0.0010986328125
-0.000732421875
-0.0018310546875
-0.000732421875
0.0003662109375
0.0
-0.0003662109375
-0.0003662109375
0.00146484375
-0.0018310546875
-0.0047607421875
-0.0047607421875
-0.003662109375
0.002197265625
0.0054931640625
0.005859375
0.005126953125
-0.002197265625
0.00146484375
-0.003662109375
-0.035888671875
0.02197265625
0.008056640625
0.012451171875
0.0355224609375
-0.02197265625
-0.0047607421875
-0.0142822265625
-0.000732421875
-0.0010986328125
-0.0010986328125
0.0003662109375
-0.0003662109375
0.0003662109375
-0.005126953125
0.0032958984375
-0.006591796875
0.00439453125
-0.0040283203125
0.002197265625
0.0025634765625
-0.00146484375
0.0032958984375
-0.003662109375
0.00439453125
-0.0047607421875
0.002197265625
-0.000732421875
0.0010986328125
-0.0003662109375
0.002197265625
-0.00146484375
0.0
0.00146484375
0.002197265625
-0.00146484375
0.0
0.0003662109375
0.000732421875
0.0010986328125
0.0003662109375
-0.0003662109375
0.0010986328125
0.0018310546875
0.0018310546875
0.0003662109375
-0.0018310546875
-0.005126953125
-0.0025634765625
0.0
0.000732421875
0.0091552734375
0.0032958984375
0.0029296875
-0.000732421875
0.0003662109375
-0.015380859375
0.0142822265625
0.00146484375
0.0260009765625
0.019775390625
-0.0135498046875
0.002197265625
-0.025634765625
-0.0029296875
0.0032958984375
-0.0010986328125
0.0025634765625
-0.0025634765625
0.0029296875
-0.0025634765625
0.003662109375
-0.005859375
0.0069580078125
-0.00439453125
0.0054931640625
0.0025634765625
0.0003662109375
0.0047607421875
-0.00146484375
0.002197265625
-0.0018310546875
0.0
-0.0003662109375
0.000732421875
0.00146484375
-0.0032958984375
0.005859375
-0.0010986328125
0.0025634765625
0.0
0.0003662109375
0.0
0.0010986328125
0.0
0.0018310546875
-0.0003662109375
0.0003662109375
0.0003662109375
-0.0010986328125
-0.00146484375
0.000732421875
-0.0032958984375
-0.0062255859375
-0.003662109375
-0.002197265625
0.0047607421875
0.0025634765625
0.0018310546875
0.0010986328125
-0.0018310546875
0.0003662109375
-0.034423828125
0.0194091796875
0.005859375
0.0146484375
0.0377197265625
-0.0238037109375
-0.005859375
-0.015380859375
-0.000732421875
-0.0010986328125
-0.002197265625
-0.002197265625
-0.0003662109375
-0.0018310546875
-0.0032958984375
0.0010986328125
-0.0084228515625
0.005859375
-0.0032958984375
0.0010986328125
0.00146484375
-0.0029296875
0.005859375
-0.0054931640625
0.00146484375
-0.003662109375
0.000732421875
-0.0018310546875
0.0
-0.002197265625
-0.0018310546875
0.0
-0.0003662109375
0.0
-0.0003662109375
-0.0010986328125
0.002197265625
-0.002197265625
0.0003662109375
-0.0018310546875
0.00146484375
-0.002197265625
0.0003662109375
-0.00146484375
0.0
-0.003662109375
-0.0047607421875
-0.0047607421875
-0.0018310546875
0.00146484375
0.0069580078125
0.0040283203125
0.003662109375
0.00146484375
0.0018310546875
-0.0003662109375
-0.0509033203125
0.0369873046875
0.006591796875
0.0076904296875
0.0523681640625
-0.038818359375
-0.0032958984375
-0.0106201171875
0.0003662109375
-0.0003662109375
-0.0003662109375
0.0
0.0018310546875
-0.002197265625
-0.0032958984375
0.0018310546875
-0.0054931640625
0.00439453125
-0.0040283203125
0.0003662109375
0.0025634765625
-0.0032958984375
0.0054931640625
-0.003662109375
0.003662109375
-0.0032958984375
0.0025634765625
-0.00439453125
0.000732421875
-0.0025634765625
-0.0018310546875
0.00146484375
-0.031494140625
0.041015625
-0.1124267578125
0.158203125
-0.00732421875
0.0260009765625
0.1336669921875
-0.175048828125
0.0589599609375
-0.082763671875
0.0025634765625
-0.0047607421875
0.0032958984375
-0.009521484375
0.0076904296875
-0.0135498046875
0.0164794921875
-0.0245361328125
0.0142822265625
-0.031494140625
-0.0087890625
-0.006591796875
-0.0377197265625
0.0494384765625
-0.0311279296875
0.0604248046875
-0.006591796875
0.022705078125
-0.000732421875
0.005859375
0.000732421875
0.002197265625
-0.000732421875
0.0
0.0
0.002197265625
-0.0010986328125
0.0018310546875
0.0
0.0018310546875
-0.0010986328125
0.0025634765625
-0.0018310546875
0.0025634765625
0.00146484375
0.0025634765625
-0.000732421875
0.003662109375
0.0
0.0018310546875
-0.0018310546875
0.003662109375
0.0003662109375
0.0029296875
0.0003662109375
0.000732421875
-0.002197265625
0.0040283203125
0.0
0.0018310546875
-0.0003662109375
0.0010986328125
0.0
0.0010986328125
-0.000732421875
0.0010986328125
0.0
-0.0003662109375
-0.0018310546875
-0.0003662109375
0.0003662109375
-0.0047607421875
-0.0032958984375
-0.005126953125
-0.0003662109375
0.00146484375
0.005126953125
0.002197265625
-0.0018310546875
-0.0003662109375
-0.017578125
0.012451171875
0.00439453125
0.013916015625
0.01904296875
-0.015380859375
-0.00439453125
-0.0135498046875
-0.000732421875
-0.00146484375
-0.0003662109375
-0.0010986328125
-0.000732421875
0.000732421875
-0.000732421875
-0.0003662109375
-0.006591796875
0.003662109375
-0.0054931640625
0.005126953125
-0.0010986328125
-0.0010986328125
0.002197265625
-0.005126953125
0.0010986328125
-0.0069580078125
0.0010986328125
-0.0062255859375
0.000732421875
-0.000732421875
-0.0047607421875
0.0010986328125
-0.0333251953125
0.040283203125
-0.123779296875
0.160400390625
0.0172119140625
-0.0062255859375
0.147216796875
-0.1805419921875
0.0413818359375
-0.0556640625
0.0040283203125
-0.0069580078125
0.0025634765625
-0.009521484375
0.0091552734375
-0.013916015625
0.0142822265625
-0.0252685546875
0.012451171875
-0.028564453125
-0.013916015625
-0.0010986328125
-0.0377197265625
0.0498046875
-0.0274658203125
0.0545654296875
-0.00439453125
0.0172119140625
0.000732421875
0.0032958984375
-0.002197265625
0.0032958984375
0.0029296875
-0.0003662109375
0.00146484375
-0.0003662109375
-0.000732421875
0.000732421875
-0.000732421875
0.0
0.002197265625
-0.000732421875
0.00146484375
-0.00146484375
0.0
0.0
0.0025634765625
0.0
0.0003662109375
0.0
0.0029296875
-0.0018310546875
-0.0003662109375
0.0003662109375
-0.0003662109375
0.00146484375
0.0010986328125
0.0
0.000732421875
-0.000732421875
0.0003662109375
0.000732421875
-0.0018310546875
0.00439453125
0.00146484375
0.0
0.0
0.0
0.0003662109375
-0.002197265625
-0.0032958984375
-0.0029296875
0.0
0.005859375
0.0040283203125
0.0040283203125
-0.0018310546875
0.0040283203125
-0.031494140625
0.028564453125
0.01025390625
0.013916015625
0.034423828125
-0.02197265625
-0.0084228515625
-0.0106201171875
0.000732421875
-0.0003662109375
-0.0003662109375
0.000732421875
-0.002197265625
0.0029296875
-0.0029296875
0.0047607421875
-0.005859375
0.0076904296875
-0.0018310546875
0.00146484375
0.002197265625
-0.0003662109375
0.0018310546875
-0.0025634765625
0.0
-0.00732421875
0.00146484375
-0.0047607421875
-0.00146484375
-0.0010986328125
-0.000732421875
-0.0003662109375
0.00146484375
-0.0003662109375
-0.000732421875
-0.000732421875
0.00146484375
-0.0018310546875
0.00146484375
-0.0003662109375
0.00146484375
-0.000732421875
-0.0003662109375
-0.0062255859375
-0.0047607421875
-0.0047607421875
0.0010986328125
-0.000732421875
0.005859375
0.00146484375
0.00146484375
0.0
-0.0010986328125
0.00146484375
-0.044677734375
0.050537109375
0.002197265625
-0.002197265625
0.04833984375
-0.0538330078125
-0.0010986328125
-0.005126953125
-0.0032958984375
0.0003662109375
-0.00146484375
0.0
-0.0029296875
0.0
-0.0040283203125
0.0018310546875
-0.0069580078125
0.0047607421875
0.0
-0.0018310546875
0.0029296875
-0.0062255859375
0.0032958984375
-0.0054931640625
0.0029296875
-0.00439453125
-0.0018310546875
0.0
-0.00146484375
0.000732421875
-0.00146484375
-0.0003662109375
0.00146484375
-0.0010986328125
-0.0010986328125
0.0
0.0
-0.000732421875
0.0010986328125
-0.000732421875
0.0010986328125
-0.0018310546875
-0.0003662109375
-0.0047607421875
-0.0032958984375
-0.0029296875
0.0025634765625
0.0029296875
0.002197265625
0.00439453125
0.000732421875
0.0
-0.01171875
0.00732421875
-0.00146484375
0.0303955078125
0.0135498046875
-0.0076904296875
0.0047607421875
-0.0311279296875
0.0018310546875
-0.00146484375
-0.0003662109375
0.00146484375
0.0
0.0025634765625
-0.00439453125
0.006591796875
-0.005859375
0.0069580078125
-0.0076904296875
0.006591796875
0.0
0.00146484375
0.0076904296875
-0.006591796875
0.0029296875
-0.0029296875
0.0010986328125
0.00146484375
-0.000732421875
0.0025634765625
0.0003662109375
0.0003662109375
0.0
0.0
0.000732421875
0.00146484375
0.0
0.00146484375
0.000732421875
0.00146484375
0.000732421875
0.0018310546875
-0.0010986328125
0.0018310546875
-0.002197265625
-0.002197265625
-0.0018310546875
0.0010986328125
0.005859375
0.006591796875
0.0025634765625
0.0032958984375
0.0010986328125
0.0
-0.040283203125
0.0263671875
0.0062255859375
0.018310546875
0.043212890625
-0.024169921875
-0.0069580078125
-0.0128173828125
0.000732421875
0.0025634765625
-0.000732421875
0.0003662109375
-0.0010986328125
0.0
-0.0040283203125
0.0032958984375
-0.0047607421875
0.006591796875
-0.002197265625
0.0040283203125
0.0
-0.0003662109375
0.0069580078125
-0.006591796875
0.00439453125
-0.0047607421875
0.0010986328125
0.0025634765625
-0.0003662109375
0.0010986328125
0.000732421875
-0.0010986328125
0.0003662109375
0.0018310546875
-0.002197265625
0.000732421875
0.0010986328125
0.00146484375
0.00146484375
0.002197265625
0.0003662109375
0.0003662109375
-0.0010986328125
-0.003662109375
-0.0047607421875
-0.0069580078125
0.0
0.000732421875
0.0054931640625
0.006591796875
0.0010986328125
0.0
-0.0010986328125
-0.0018310546875
-0.05419921875
0.05419921875
0.002197265625
0.0054931640625
0.05712890625
-0.056396484375
-0.002197265625
-0.0087890625
-0.0018310546875
-0.0018310546875
-0.0025634765625
-0.00146484375
-0.0025634765625
0.0
-0.0029296875
0.0010986328125
-0.0069580078125
0.0040283203125
-0.0003662109375
-0.002197265625
0.0029296875
-0.0054931640625
0.0032958984375
-0.0040283203125
0.0003662109375
-0.0047607421875
0.0003662109375
-0.003662109375
-0.0003662109375
-0.0010986328125
-0.00146484375
-0.0010986328125
0.0003662109375
0.0003662109375
-0.0010986328125
0.0018310546875
0.002197265625
-0.002197265625
-0.0010986328125
0.000732421875
0.0
-0.0029296875
0.0
-0.0087890625
-0.0062255859375
-0.003662109375
0.00146484375
-0.000732421875
0.0032958984375
0.002197265625
-0.00146484375
0.0040283203125
0.0
0.000732421875
-0.0501708984375
0.0604248046875
0.0018310546875
-0.0003662109375
0.0531005859375
-0.0640869140625
-0.00146484375
-0.0018310546875
-0.00146484375
0.0003662109375
-0.0003662109375
0.0003662109375
-0.00439453125
0.0029296875
-0.00439453125
0.0025634765625
-0.005859375
0.0032958984375
-0.000732421875
0.0010986328125
0.002197265625
-0.0010986328125
0.0032958984375
-0.0025634765625
-0.0069580078125
0.0179443359375
-0.059326171875
0.0721435546875
-0.10693359375
0.189727783203125
0.0699462890625
-0.0791015625
0.141357421875
-0.232208251953125
0.01318359375
-0.0128173828125
0.0032958984375
-0.00439453125
0.0029296875
-0.013916015625
0.010986328125
-0.02490234375
0.01025390625
-0.032958984375
-0.009521484375
-0.0047607421875
-0.02783203125
0.0428466796875
-0.02783203125
0.0531005859375
-0.00732421875
0.021240234375
-0.000732421875
0.0018310546875
0.0010986328125
0.0018310546875
0.0003662109375
0.000732421875
0.0
0.0
0.0003662109375
-0.000732421875
-0.0003662109375
-0.0010986328125
0.003662109375
-0.002197265625
-0.0029296875
0.0003662109375
0.0003662109375
-0.0032958984375
-0.0003662109375
-0.003662109375
0.0
-0.0010986328125
0.0010986328125
-0.0018310546875
-0.0003662109375
0.000732421875
0.00146484375
-0.0010986328125
-0.0010986328125
-0.000732421875
0.0010986328125
-0.000732421875
-0.0029296875
0.0
0.000732421875
-0.0010986328125
0.0
-0.0010986328125
-0.0018310546875
0.0010986328125
0.0025634765625
0.000732421875
0.00146484375
0.0
-0.0018310546875
-0.003662109375
-0.00439453125
0.0
0.0040283203125
0.0032958984375
0.00146484375
0.0029296875
0.0
0.0003662109375
-0.0498046875
0.0347900390625
0.0029296875
0.01171875
0.0545654296875
-0.037353515625
-0.0032958984375
-0.009521484375
0.0018310546875
0.0
0.0003662109375
-0.0003662109375
-0.0003662109375
0.00146484375
-0.0010986328125
0.0029296875
-0.0047607421875
0.005859375
-0.0029296875
0.0025634765625
0.0018310546875
-0.0010986328125
0.00439453125
-0.0062255859375
0.0010986328125
-0.003662109375
0.00146484375
0.0
-0.00146484375
-0.0003662109375
0.000732421875
-0.00146484375
-0.0003662109375
0.0
0.0010986328125
0.0
0.003662109375
-0.0025634765625
-0.000732421875
0.0003662109375
0.00146484375
0.000732421875
-0.0029296875
-0.002197265625
-0.0003662109375
-0.002197265625
0.00146484375
0.0025634765625
0.0010986328125
0.0
0.0003662109375
-0.00146484375
-0.0260009765625
0.0179443359375
0.009521484375
0.01611328125
0.02783203125
-0.0194091796875
-0.0032958984375
-0.0208740234375
-0.0003662109375
0.00146484375
0.0029296875
0.0047607421875
-0.0003662109375
0.003662109375
-0.005126953125
0.0029296875
-0.0047607421875
0.0040283203125
-0.0069580078125
0.003662109375
0.0018310546875
0.0003662109375
0.0032958984375
-0.0032958984375
0.0018310546875
-0.00439453125
0.0
0.0029296875
-0.00439453125
0.00439453125
-0.006591796875
0.00146484375
-0.0054931640625
0.0025634765625
-0.0010986328125
0.0010986328125
0.0
-0.0010986328125
0.0010986328125
-0.000732421875
-0.00146484375
-0.000732421875
-0.0047607421875
-0.003662109375
-0.0010986328125
0.0018310546875
0.0069580078125
0.0087890625
0.0029296875
0.0029296875
-0.002197265625
0.0084228515625
-0.0516357421875
0.0406494140625
0.003662109375
0.0146484375
0.05712890625
-0.038818359375
-0.00146484375
-0.0186767578125
-0.0025634765625
0.002197265625
-0.0025634765625
0.0
-0.0040283203125
0.0032958984375
-0.0032958984375
0.002197265625
-0.0062255859375
0.003662109375
-0.0010986328125
-0.0003662109375
0.0025634765625
-0.00439453125
0.0029296875
-0.00439453125
0.0032958984375
-0.0040283203125
0.00146484375
-0.000732421875
-0.0010986328125
0.0032958984375
-0.0010986328125
0.0003662109375
0.005126953125
-0.0062255859375
0.002197265625
-0.0018310546875
0.0
-0.00439453125
-0.000732421875
-0.005126953125
0.000732421875
-0.006591796875
-0.003662109375
-0.00439453125
0.000732421875
0.0029296875
0.005859375
0.0029296875
-0.00146484375
0.0025634765625
-0.00146484375
0.0054931640625
-0.0406494140625
0.0516357421875
0.00146484375
0.005859375
0.03662109375
-0.040283203125
-0.0018310546875
-0.0018310546875
0.000732421875
-0.0018310546875
-0.002197265625
0.003662109375
-0.0025634765625
0.0032958984375
-0.0069580078125
0.0029296875
-0.0029296875
0.00439453125
0.0010986328125
0.000732421875
0.0047607421875
-0.0047607421875
0.0047607421875
-0.003662109375
0.002197265625
-0.0010986328125
0.0029296875
0.0010986328125
-0.00146484375
0.0018310546875
-0.0003662109375
0.0029296875
-0.00146484375
0.00439453125
0.00146484375
-0.0018310546875
0.00146484375
-0.00146484375
0.0010986328125
-0.0010986328125
0.0018310546875
-0.0098876953125
-0.0054931640625
-0.006591796875
-0.00146484375
0.005126953125
0.0018310546875
0.0084228515625
0.000732421875
0.0025634765625
0.000732421875
-0.0032958984375
-0.0501708984375
0.059326171875
0.0029296875
0.0003662109375
0.0523681640625
-0.0626220703125
0.0
-0.0076904296875
0.0
-0.00439453125
0.0
0.000732421875
-0.003662109375
0.0040283203125
-0.0054931640625
0.0029296875
-0.00732421875
0.003662109375
-0.0018310546875
0.002197265625
0.00439453125
-0.0062255859375
0.0032958984375
-0.0084228515625
0.0018310546875
-0.0018310546875
-0.0018310546875
0.0032958984375
-0.0003662109375
-0.0018310546875
-0.00146484375
-0.000732421875
-0.00146484375
0.003662109375
-0.000732421875
0.0025634765625
0.0
0.0003662109375
0.00146484375
-0.0018310546875
-0.0010986328125
-0.0040283203125
-0.005126953125
-0.0087890625
-0.000732421875
-0.000732421875
0.006591796875
0.0047607421875
0.0018310546875
-0.0010986328125
0.0
-0.0003662109375
-0.054931640625
0.0421142578125
0.005859375
0.009521484375
0.0615234375
-0.0494384765625
-0.000732421875
-0.0186767578125
0.00146484375
-0.0040283203125
0.0
-0.0018310546875
-0.0010986328125
-0.002197265625
-0.0029296875
-0.0010986328125
-0.0032958984375
-0.000732421875
-0.002197265625
-0.0018310546875
-0.0003662109375
0.0
0.0062255859375
-0.005859375
0.003662109375
-0.0047607421875
0.002197265625
-0.00146484375
0.0010986328125
-0.0010986328125
-0.000732421875
0.00146484375
-0.000732421875
-0.000732421875
-0.0010986328125
0.0
0.0003662109375
-0.000732421875
-0.00146484375
-0.000732421875
-0.0010986328125
0.0
0.0
-0.005126953125
-0.0029296875
-0.0025634765625
-0.0018310546875
0.005859375
0.003662109375
0.005126953125
-0.000732421875
0.0025634765625
-0.003662109375
-0.0010986328125
-0.0289306640625
0.0545654296875
0.0003662109375
0.005859375
0.029296875
-0.05126953125
-0.0010986328125
0.0
0.0
0.00146484375
-0.00146484375
0.0010986328125
-0.00146484375
0.002197265625
-0.002197265625
0.0047607421875
-0.00439453125
0.005126953125
0.00146484375
0.0029296875
0.0047607421875
-0.0010986328125
0.00732421875
-0.0029296875
0.0047607421875
-0.0018310546875
0.0025634765625
-0.0032958984375
0.00146484375
0.0
-0.0003662109375
0.0018310546875
-0.000732421875
0.0040283203125
0.0003662109375
0.003662109375
0.003662109375
-0.0018310546875
0.0010986328125
0.0018310546875
0.000732421875
-0.0018310546875
-0.005126953125
-0.0010986328125
0.0018310546875
0.002197265625
0.0062255859375
0.0047607421875
-0.00439453125
0.0106201171875
-0.0010986328125
0.0047607421875
-0.0545654296875
0.06005859375
0.0025634765625
0.008056640625
0.05712890625
-0.057861328125
0.0003662109375
-0.0069580078125
-0.0029296875
0.000732421875
-0.0029296875
0.0040283203125
-0.000732421875
0.002197265625
-0.0040283203125
0.00146484375
-0.00439453125
0.0047607421875
-0.003662109375
0.00439453125
0.0025634765625
-0.0040283203125
0.0032958984375
-0.00439453125
-0.013916015625
0.0322265625
-0.068115234375
0.0640869140625
-0.0721435546875
0.123809814453125
0.082763671875
-0.0791015625
0.10546875
-0.176910400390625
0.0098876953125
-0.006591796875
0.005859375
-0.01171875
0.00732421875
-0.016845703125
0.0098876953125
-0.0194091796875
0.0062255859375
-0.027099609375
-0.012451171875
0.006591796875
-0.027099609375
0.0406494140625
-0.01611328125
0.029296875
-0.0054931640625
0.016845703125
0.0003662109375
0.0069580078125
-0.0010986328125
0.0018310546875
-0.00146484375
0.0040283203125
0.00146484375
-0.0010986328125
0.0010986328125
-0.005126953125
0.000732421875
-0.002197265625
-0.0018310546875
0.0018310546875
0.000732421875
-0.003662109375
0.0003662109375
0.005859375
0.0
0.0076904296875
0.00146484375
-0.0010986328125
-0.0003662109375
-0.0029296875
-0.0025634765625
-0.0003662109375
-0.0018310546875
0.002197265625
0.00146484375
-0.0025634765625
-0.0010986328125
-0.005126953125
-0.000732421875
-0.0054931640625
-0.0010986328125
-0.0018310546875
-0.0032958984375
0.0047607421875
-0.0029296875
0.003662109375
-0.0025634765625
0.0018310546875
-0.0025634765625
-0.0018310546875
-0.005126953125
-0.00732421875
0.0018310546875
-0.00146484375
0.003662109375
0.005859375
0.0003662109375
0.0018310546875
-0.0069580078125
0.000732421875
-0.0157470703125
0.034423828125
0.005859375
0.003662109375
0.013916015625
-0.028564453125
0.000732421875
-0.0062255859375
-0.0018310546875
-0.00146484375
-0.002197265625
0.0040283203125
-0.0025634765625
0.003662109375
-0.00439453125
0.0040283203125
-0.0076904296875
0.0047607421875
-0.00146484375
0.0
0.0029296875
-0.0018310546875
0.002197265625
-0.0062255859375
0.002197265625
-0.0054931640625
0.0
-0.0018310546875
0.000732421875
-0.0025634765625
-0.0010986328125
0.0047607421875
0.0018310546875
0.0029296875
0.0018310546875
-0.00146484375
0.0010986328125
-0.002197265625
0.003662109375
-0.00439453125
0.000732421875
0.0010986328125
0.0
-0.0018310546875
-0.0018310546875
-0.0040283203125
0.0040283203125
0.0029296875
0.0032958984375
0.0029296875
0.0
0.0029296875
-0.0003662109375
-0.0010986328125
-0.0234375
0.0457763671875
0.005859375
0.0025634765625
0.0252685546875
-0.0472412109375
-0.0003662109375
-0.00439453125
-0.0025634765625
-0.0025634765625
-0.0018310546875
0.0010986328125
-0.0040283203125
0.00439453125
-0.006591796875
0.0040283203125
-0.005859375
0.0054931640625
-0.0018310546875
0.0054931640625
0.0032958984375
-0.0047607421875
0.0010986328125
-0.0054931640625
0.002197265625
-0.0010986328125
-0.002197265625
-0.0010986328125
-0.000732421875
-0.003662109375
0.00146484375
-0.0032958984375
-0.00146484375
-0.0003662109375
0.000732421875
-0.002197265625
-0.0003662109375
-0.0032958984375
0.0010986328125
-0.0032958984375
0.0003662109375
-0.0040283203125
0.000732421875
-0.0098876953125
-0.00146484375
-0.0047607421875
0.00146484375
0.000732421875
0.0025634765625
-0.0029296875
-0.0003662109375
-0.0025634765625
-0.0186767578125
0.005126953125
0.005126953125
0.0194091796875
0.025634765625
-0.0157470703125
0.0
-0.0325927734375
0.00146484375
-0.0032958984375
-0.00146484375
0.003662109375
-0.0010986328125
0.0
0.0
0.000732421875
-0.005859375
0.00732421875
-0.0032958984375
0.0032958984375
0.00146484375
0.000732421875
0.00439453125
-0.0003662109375
0.0032958984375
-0.0025634765625
0.00146484375
0.0018310546875
-0.0003662109375
0.0047607421875
-0.0018310546875
0.0018310546875
-0.0003662109375
0.0003662109375
-0.000732421875
0.0040283203125
0.0
0.00439453125
-0.002197265625
0.0010986328125
-0.00146484375
0.000732421875
-0.0032958984375
-0.0003662109375
-0.006591796875
0.002197265625
0.0010986328125
0.0032958984375
0.00439453125
-0.0003662109375
0.0
0.0018310546875
-0.00439453125
0.002197265625
-0.028564453125
0.0450439453125
0.0040283203125
-0.00146484375
0.0311279296875
-0.052001953125
-0.0010986328125
-0.0040283203125
-0.0029296875
0.003662109375
-0.0003662109375
0.0032958984375
-0.0025634765625
0.0025634765625
-0.0025634765625
0.005126953125
-0.00439453125
0.006591796875
0.0
0.0032958984375
0.0047607421875
-0.0040283203125
0.0054931640625
-0.0025634765625
0.0040283203125
0.0018310546875
-0.000732421875
0.000732421875
-0.002197265625
0.0091552734375
-0.0391845703125
0.0523681640625
-0.112060546875
0.184234619140625
0.0281982421875
-0.0194091796875
0.134033203125
-0.210235595703125
0.03369140625
-0.0487060546875
0.003662109375
-0.0003662109375
0.005126953125
-0.0091552734375
0.009521484375
-0.0150146484375
0.01318359375
-0.02490234375
0.002197265625
-0.021240234375
-0.018310546875
0.025634765625
-0.028564453125
0.05859375
-0.01611328125
0.0362548828125
-0.002197265625
0.0146484375
-0.0003662109375
0.008056640625
0.00146484375
0.000732421875
-0.00146484375
0.0029296875
-0.00146484375
0.0054931640625
-0.0010986328125
0.0018310546875
-0.0010986328125
0.0010986328125
-0.0003662109375
0.0010986328125
0.0010986328125
-0.00146484375
-0.00146484375
0.0018310546875
-0.00146484375
0.000732421875
0.002197265625
-0.0018310546875
-0.0018310546875
0.0025634765625
-0.000732421875
0.0025634765625
-0.0010986328125
-0.0003662109375
0.0
-0.0010986328125
0.0
-0.0003662109375
-0.00146484375
-0.0010986328125
0.0
-0.000732421875
0.00146484375
-0.003662109375
-0.0025634765625
-0.006591796875
-0.0025634765625
-0.0003662109375
0.00732421875
0.002197265625
0.0025634765625
0.0
-0.003662109375
0.0040283203125
-0.0245361328125
0.0230712890625
0.0018310546875
-0.000732421875
0.0274658203125
-0.027099609375
0.000732421875
-0.005859375
0.000732421875
-0.002197265625
-0.000732421875
-0.000732421875
-0.003662109375
0.005859375
-0.0054931640625
0.0029296875
-0.006591796875
0.00146484375
-0.00146484375
-0.0010986328125
0.0
-0.0040283203125
0.00146484375
-0.0054931640625
0.0018310546875
-0.0047607421875
0.0029296875
-0.0032958984375
0.0
-0.002197265625
-0.0003662109375
-0.0029296875
0.002197265625
-0.003662109375
0.00146484375
-0.0003662109375
0.0025634765625
-0.0003662109375
-0.000732421875
-0.0003662109375
0.0
-0.0010986328125
-0.005126953125
-0.0025634765625
0.0
-0.00146484375
0.005859375
0.0032958984375
0.0
0.0040283203125
0.00146484375
-0.00439453125
-0.05126953125
0.0479736328125
0.0025634765625
0.0084228515625
0.052001953125
-0.0531005859375
-0.0010986328125
-0.00732421875
-0.000732421875
-0.0003662109375
-0.000732421875
-0.0010986328125
-0.003662109375
0.0029296875
-0.0062255859375
0.0025634765625
-0.005126953125
0.0018310546875
-0.002197265625
0.0003662109375
0.0029296875
-0.003662109375
0.0018310546875
-0.0018310546875
0.0032958984375
-0.0029296875
-0.000732421875
-0.00146484375
-0.002197265625
0.000732421875
0.0010986328125
-0.0018310546875
-0.0010986328125
-0.000732421875
0.000732421875
-0.002197265625
-0.000732421875
-0.002197265625
0.0
-0.00146484375
0.000732421875
-0.0032958984375
-0.005126953125
-0.0018310546875
-0.0047607421875
0.0010986328125
0.00439453125
-0.00146484375
0.0040283203125
-0.0040283203125
-0.002197265625
-0.003662109375
-0.0531005859375
0.0380859375
0.0062255859375
0.0076904296875
0.0596923828125
-0.046875
0.0
-0.01318359375
0.0
0.0010986328125
-0.0010986328125
0.0032958984375
-0.002197265625
0.005126953125
-0.00146484375
0.0029296875
-0.0047607421875
0.0069580078125
-0.0010986328125
0.00732421875
0.0029296875
0.0029296875
0.005859375
-0.00146484375
0.0040283203125
-0.003662109375
0.0003662109375
0.003662109375
0.000732421875
0.0054931640625
0.0010986328125
0.002197265625
0.002197265625
0.000732421875
-0.0003662109375
0.003662109375
0.000732421875
0.0047607421875
-0.000732421875
0.0032958984375
0.000732421875
0.00146484375
-0.0010986328125
0.0018310546875
-0.003662109375
0.0047607421875
0.00146484375
0.005859375
0.0003662109375
0.0029296875
0.0
0.0
-0.0362548828125
0.01904296875
0.0069580078125
0.0223388671875
0.037353515625
-0.0157470703125
-0.0047607421875
-0.0223388671875
-0.0003662109375
-0.002197265625
-0.000732421875
-0.0029296875
0.000732421875
-0.00146484375
-0.0029296875
0.0032958984375
-0.0054931640625
0.005126953125
-0.0040283203125
0.0025634765625
0.0032958984375
-0.002197265625
0.005859375
-0.0047607421875
0.0025634765625
-0.0025634765625
0.0010986328125
0.002197265625
-0.0025634765625
-0.0003662109375
-0.0018310546875
-0.0010986328125
-0.0003662109375
0.0032958984375
0.0018310546875
-0.0010986328125
0.000732421875
-0.0029296875
0.0003662109375
-0.0018310546875
-0.000732421875
0.0
-0.0032958984375
0.000732421875
-0.0069580078125
-0.003662109375
-0.0018310546875
-0.0010986328125
0.0087890625
0.000732421875
0.0018310546875
0.0003662109375
0.0010986328125
-0.0010986328125
-0.052001953125
0.056396484375
-0.0018310546875
0.00439453125
0.0501708984375
-0.05712890625
-0.003662109375
-0.002197265625
-0.000732421875
-0.00146484375
-0.0029296875
0.0
-0.00146484375
0.0018310546875
-0.0047607421875
0.0018310546875
-0.005859375
0.002197265625
0.0003662109375
-0.000732421875
0.00146484375
-0.0018310546875
0.0040283203125
-0.0054931640625
0.0025634765625
-0.0062255859375
0.00146484375
-0.00439453125
0.0003662109375
-0.0018310546875
0.002197265625
-0.003662109375
-0.0062255859375
0.008056640625
-0.0399169921875
0.0260009765625
-0.0205078125
0.0391845703125
0.0391845703125
-0.02490234375
0.038818359375
-0.0648193359375
0.0098876953125
-0.0098876953125
-0.000732421875
0.00146484375
-0.0003662109375
-0.0062255859375
0.0032958984375
-0.005126953125
0.0003662109375
-0.0091552734375
-0.0069580078125
-0.008056640625
-0.01171875
0.008056640625
-0.006591796875
0.0106201171875
0.005126953125
-0.0003662109375
0.0047607421875
-0.00146484375
0.0025634765625
-0.0003662109375
0.0003662109375
0.00146484375
0.0003662109375
-0.0003662109375
0.0010986328125
-0.00146484375
-0.0003662109375
-0.0003662109375
0.0010986328125
-0.002197265625
-0.000732421875
-0.0003662109375
0.0003662109375
-0.000732421875
0.0010986328125
-0.0010986328125
0.0025634765625
-0.0003662109375
0.0018310546875
-0.0003662109375
0.00146484375
-0.00146484375
0.0
0.0010986328125
-0.002197265625
0.0029296875
0.00146484375
0.0018310546875
0.000732421875
0.005126953125
0.000732421875
0.000732421875
-0.000732421875
0.00146484375
-0.0025634765625
0.000732421875
-0.0018310546875
0.00146484375
0.002197265625
0.005126953125
0.0029296875
0.0010986328125
-0.00146484375
0.0047607421875
-0.0457763671875
0.032958984375
0.00439453125
0.018310546875
0.047607421875
-0.0223388671875
-0.0040283203125
-0.0091552734375
-0.000732421875
0.005126953125
-0.0003662109375
0.0054931640625
-0.003662109375
0.005859375
-0.005126953125
0.006591796875
-0.006591796875
0.009521484375
-0.0003662109375
0.005126953125
0.00146484375
-0.0003662109375
0.003662109375
-0.0054931640625
0.00439453125
-0.0069580078125
-0.0029296875
0.0054931640625
-0.0047607421875
0.0087890625
-0.005126953125
0.005126953125
-0.0040283203125
0.0084228515625
-0.00439453125
0.013916015625
-0.00439453125
0.0128173828125
-0.005126953125
0.008056640625
-0.00439453125
0.008056640625
-0.003662109375
0.003662109375
-0.006591796875
0.01025390625
-0.0040283203125
0.02197265625
-0.006591796875
0.0234375
-0.0120849609375
0.02490234375
-0.0260009765625
0.0325927734375
0.0003662109375
0.043212890625
0.0135498046875
0.012451171875
-0.009521484375
0.0025634765625
-0.0135498046875
0.035186767578125
-0.017578125
0.036651611328125
-0.0062255859375
0.0230712890625
-0.002197265625
0.0164794921875
-0.002197265625
0.017578125
-0.003662109375
0.0157470703125
0.0047607421875
0.0076904296875
0.0120849609375
0.0032958984375
0.0098876953125
-0.002197265625
0.005859375
-0.00146484375
0.000732421875
-0.00146484375
0.0047607421875
-0.0106201171875
0.008056640625
-0.01611328125
0.02783203125
-0.0369873046875
0.032958984375
-0.048370361328125
0.0186767578125
-0.046539306640625
0.021240234375
-0.0640869140625
0.0281982421875
-0.0780029296875
0.018310546875
-0.0611572265625
0.0098876953125
-0.028564453125
0.013916015625
-0.0172119140625
0.009521484375
-0.017578125
0.009521484375
-0.018310546875
-0.022705078125
-0.00146484375
0.0091552734375
0.009521484375
0.0318603515625
-0.0194091796875
-0.0106201171875
-0.01904296875
-0.0047607421875
-0.0010986328125
-0.0003662109375
-0.00732421875
0.003662109375
-0.0098876953125
0.00146484375
-0.003662109375
-0.00439453125
-0.00146484375
-0.0032958984375
-0.0025634765625
0.0018310546875
-0.003662109375
0.008056640625
-0.0091552734375
0.006591796875
-0.01025390625
0.0047607421875
-0.009521484375
0.000732421875
-0.00439453125
-0.0040283203125
-0.000732421875
-0.0047607421875
-0.0003662109375
-0.003662109375
0.0003662109375
-0.002197265625
-0.000732421875
-0.006591796875
0.0018310546875
-0.00439453125
0.000732421875
-0.0062255859375
-0.0018310546875
-0.01171875
-0.0018310546875
-0.0054931640625
0.0003662109375
0.0
0.003662109375
-0.003662109375
0.003662109375
-0.0062255859375
0.0010986328125
-0.0648193359375
0.0662841796875
-0.0029296875
0.0087890625
0.059326171875
-0.064453125
-0.00439453125
-0.003662109375
-0.00439453125
0.0040283203125
-0.0032958984375
0.003662109375
-0.0062255859375
0.0062255859375
-0.0069580078125
0.0091552734375
-0.0087890625
0.0113525390625
-0.003662109375
0.0047607421875
0.000732421875
0.00146484375
0.0032958984375
-0.000732421875
0.0018310546875
-0.0025634765625
-0.0003662109375
0.0025634765625
-0.000732421875
0.00439453125
-0.0029296875
0.0040283203125
-0.0010986328125
-0.0003662109375
-0.0010986328125
0.00146484375
0.0
0.00439453125
-0.0025634765625
0.00146484375
-0.0018310546875
0.0018310546875
-0.0003662109375
-0.0040283203125
-0.0054931640625
-0.0025634765625
0.00146484375
0.0003662109375
0.0040283203125
0.002197265625
-0.002197265625
0.0047607421875
-0.0047607421875
0.003662109375
-0.0457763671875
0.0552978515625
0.0025634765625
0.0032958984375
0.0457763671875
-0.0494384765625
0.00146484375
-0.003662109375
0.000732421875
-0.002197265625
-0.0003662109375
0.0025634765625
-0.003662109375
0.005126953125
-0.0040283203125
0.006591796875
-0.005126953125
0.006591796875
-0.0010986328125
-0.000732421875
0.0029296875
-0.0040283203125
0.0047607421875
-0.003662109375
0.003662109375
-0.003662109375
0.0
-0.00146484375
0.0003662109375
-0.002197265625
-0.0010986328125
-0.0018310546875
0.0018310546875
-0.0025634765625
-0.000732421875
0.0029296875
-0.00439453125
0.0062255859375
-0.0054931640625
0.005859375
-0.00439453125
0.006591796875
-0.0018310546875
-0.00146484375
-0.0069580078125
0.0
0.0
0.00732421875
0.00146484375
0.0084228515625
-0.002197265625
0.0062255859375
0.00146484375
0.0054931640625
-0.0567626953125
0.071044921875
0.0069580078125
0.0076904296875
0.0611572265625
-0.0615234375
-0.0029296875
0.0010986328125
-0.00439453125
0.003662109375
-0.0025634765625
0.002197265625
-0.003662109375
0.0032958984375
-0.00732421875
-0.00146484375
-0.0091552734375
0.0003662109375
-0.0047607421875
-0.0003662109375
0.0054931640625
-0.0087890625
0.006591796875
-0.01171875
0.005126953125
-0.01025390625
0.0003662109375
-0.005859375
0.0
-0.005126953125
-0.0010986328125
-0.0040283203125
-0.000732421875
-0.0029296875
0.000732421875
-0.003662109375
-0.0010986328125
-0.003662109375
0.000732421875
-0.0062255859375
-0.0018310546875
-0.003662109375
0.0003662109375
-0.00146484375
0.0010986328125
-0.0076904296875
0.0
-0.0087890625
0.00439453125
-0.00732421875
0.0054931640625
-0.0618896484375
0.0040283203125
-0.174346923828125
0.0029296875
-0.40838623046875
-0.03515625
-0.52777099609375
0.00732421875
-0.236236572265625
0.0439453125
0.838714599609375
-0.0040283203125
1.0
-0.0010986328125
0.660369873046875
0.0047607421875
0.181671142578125
0.006591796875
-0.0194091796875
0.002197265625
-0.056793212890625
-0.0142822265625
-0.089019775390625
-0.017578125
-0.0948486328125
-0.0091552734375
-0.0889892578125
-0.005126953125
-0.056396484375
-0.005126953125
-0.0377197265625
-0.000732421875
-0.05126953125
-0.0164794921875
-0.0311279296875
-0.08349609375
0.05419921875
-0.07177734375
0.0472412109375
0.09521484375
-0.196319580078125
0.1124267578125
-0.195953369140625
0.0069580078125
-0.03076171875
0.003662109375
-0.04833984375
0.0098876953125
-0.0516357421875
0.0150146484375
-0.0615234375
0.018310546875
-0.069580078125
-0.003662109375
-0.047607421875
-0.0333251953125
0.0091552734375
-0.03369140625
0.03369140625
-0.0091552734375
-0.000732421875
-0.002197265625
-0.02197265625
-0.0040283203125
-0.018310546875
-0.0032958984375
-0.0164794921875
-0.00439453125
-0.015380859375
-0.0047607421875
-0.0157470703125
-0.0054931640625
-0.015380859375
-0.0003662109375
-0.0120849609375
0.0010986328125
-0.011016845703125
0.002197265625
-0.016143798828125
0.0018310546875
-0.017578125
0.0025634765625
-0.0128173828125
0.006591796875
-0.01611328125
0.00146484375
-0.015380859375
0.0
-0.0113525390625
0.0003662109375
-0.0106201171875
0.0010986328125
-0.0091552734375
0.0018310546875
-0.0113525390625
0.0029296875
-0.0120849609375
0.005126953125
-0.0098876953125
0.0032958984375
-0.0076904296875
0.00146484375
-0.0091552734375
-0.0003662109375
-0.0091552734375
0.0029296875
-0.0106201171875
0.0029296875
-0.0186767578125
0.01025390625
-0.0128173828125
0.012451171875
-0.005126953125
0.0040283203125
-0.0087890625
0.0
-0.0106201171875
-0.0523681640625
0.025634765625
0.0018310546875
0.0032958984375
0.0479736328125
-0.038818359375
-0.002197265625
-0.01611328125
0.0003662109375
-0.0091552734375
-0.000732421875
-0.0069580078125
-0.002197265625
-0.0029296875
-0.0062255859375
0.000732421875
-0.006591796875
-0.0010986328125
-0.0032958984375
-0.0047607421875
0.00146484375
-0.003662109375
0.0
-0.0069580078125
0.0018310546875
-0.0098876953125
0.0
-0.005126953125
-0.0032958984375
-0.002197265625
-0.0054931640625
-0.00439453125
-0.0347900390625
0.03955078125
-0.1116943359375
0.144287109375
0.0186767578125
-0.0172119140625
0.134765625
-0.1651611328125
0.03369140625
-0.0472412109375
0.0032958984375
-0.0098876953125
0.00439453125
-0.0120849609375
0.0076904296875
-0.0135498046875
0.0157470703125
-0.02783203125
0.010986328125
-0.0333251953125
-0.01025390625
-0.0069580078125
-0.0355224609375
0.046142578125
-0.0260009765625
0.0523681640625
-0.005859375
0.016845703125
-0.0010986328125
0.00146484375
0.0025634765625
-0.0010986328125
0.0003662109375
-0.00146484375
-0.0003662109375
0.0
-0.000732421875
0.0
0.0
-0.000732421875
0.0
-0.00146484375
-0.0003662109375
-0.002197265625
-0.0029296875
-0.0003662109375
-0.0018310546875
0.0003662109375
0.0003662109375
-0.0003662109375
-0.0029296875
0.0003662109375
-0.0018310546875
0.0010986328125
-0.002197265625
0.0
-0.00146484375
0.0
-0.000732421875
0.0003662109375
0.0003662109375
-0.0010986328125
-0.0003662109375
0.0010986328125
-0.00146484375
0.0003662109375
0.002197265625
-0.0029296875
0.0003662109375
-0.002197265625
0.0
-0.0018310546875
-0.000732421875
-0.0029296875
0.0032958984375
0.0010986328125
0.0040283203125
0.0032958984375
0.0029296875
-0.0003662109375
-0.0340576171875
0.024169921875
0.0091552734375
0.01318359375
0.04248046875
-0.0245361328125
-0.0062255859375
-0.0120849609375
-0.0003662109375
0.002197265625
-0.0018310546875
0.0032958984375
-0.00146484375
0.0018310546875
-0.00146484375
0.0032958984375
-0.005859375
0.009521484375
-0.00439453125
0.006591796875
0.0
0.0025634765625
0.002197265625
-0.00146484375
0.0025634765625
-0.005859375
0.003662109375
-0.003662109375
0.0
0.0010986328125
-0.0003662109375
0.000732421875
0.0010986328125
-0.00146484375
0.0
0.002197265625
0.0010986328125
0.0040283203125
0.0003662109375
0.0040283203125
0.003662109375
-0.0003662109375
0.00146484375
-0.0047607421875
-0.0054931640625
-0.008056640625
0.00146484375
-0.000732421875
0.0069580078125
0.0062255859375
0.0029296875
0.0018310546875
-0.0010986328125
0.0018310546875
-0.047607421875
0.0289306640625
0.00439453125
0.018310546875
0.0523681640625
-0.0311279296875
-0.0018310546875
-0.02197265625
-0.0003662109375
0.00146484375
-0.0003662109375
0.0003662109375
-0.0040283203125
0.0
-0.0040283203125
0.0069580078125
-0.006591796875
0.005859375
-0.0029296875
-0.000732421875
0.000732421875
-0.0032958984375
0.0054931640625
-0.0062255859375
0.005126953125
-0.005126953125
-0.0003662109375
0.000732421875
-0.002197265625
0.0010986328125
-0.0018310546875
-0.0010986328125
0.0003662109375
-0.0003662109375
-0.000732421875
0.0003662109375
0.0003662109375
0.0018310546875
-0.000732421875
-0.000732421875
-0.0010986328125
-0.0003662109375
-0.0003662109375
0.000732421875
-0.0029296875
-0.0062255859375
-0.000732421875
-0.00146484375
0.0025634765625
0.0040283203125
0.0025634765625
0.0010986328125
-0.000732421875
-0.0010986328125
-0.0238037109375
0.012451171875
0.00439453125
0.0223388671875
0.022705078125
-0.01171875
-0.0047607421875
-0.022705078125
-0.002197265625
-0.00146484375
-0.0010986328125
0.0003662109375
-0.00146484375
-0.0003662109375
-0.0018310546875
0.0010986328125
-0.0062255859375
0.0025634765625
-0.0054931640625
0.000732421875
0.0003662109375
-0.0003662109375
0.003662109375
-0.00146484375
0.005859375
-0.0054931640625
0.0003662109375
-0.0025634765625
0.0
-0.0003662109375
-0.0003662109375
-0.0029296875
0.0003662109375
-0.0029296875
0.0
-0.000732421875
-0.0003662109375
-0.0010986328125
0.0
0.0003662109375
0.0
0.0029296875
0.0003662109375
0.0
-0.0029296875
-0.005126953125
-0.005859375
0.0
0.0
0.005126953125
0.0047607421875
0.003662109375
-0.002197265625
0.0032958984375
0.0010986328125
0.0
-0.0556640625
0.0714111328125
0.00146484375
0.0025634765625
0.060791015625
-0.072509765625
-0.0032958984375
-0.002197265625
-0.0029296875
0.000732421875
-0.0010986328125
0.0
-0.000732421875
0.0
-0.0040283203125
0.0032958984375
-0.008056640625
0.0047607421875
-0.0018310546875
0.0010986328125
0.0025634765625
-0.0010986328125
0.005859375
-0.005126953125
0.003662109375
-0.00439453125
0.0010986328125
-0.000732421875
0.0003662109375
-0.000732421875
-0.0003662109375
0.000732421875
-0.0003662109375
0.0029296875
0.000732421875
0.000732421875
0.0032958984375
-0.0010986328125
0.0
0.0018310546875
0.002197265625
0.00146484375
0.0003662109375
0.0029296875
-0.002197265625
-0.0029296875
0.0
-0.0010986328125
0.0040283203125
0.0087890625
0.003662109375
0.0054931640625
0.0
0.0
-0.022705078125
0.0164794921875
0.0062255859375
0.0208740234375
0.0263671875
-0.0135498046875
-0.0062255859375
-0.0106201171875
-0.0018310546875
0.0150146484375
-0.0003662109375
0.00732421875
0.0010986328125
-0.0040283203125
0.002197265625
-0.000732421875
-0.0040283203125
0.0040283203125
-0.0054931640625
0.0003662109375
-0.003662109375
0.0054931640625
0.0018310546875
0.0032958984375
0.003662109375
-0.00439453125
0.0010986328125
-0.0010986328125
0.000732421875
-0.0029296875
0.0010986328125
-0.0032958984375
0.00146484375
-0.002197265625
-0.0010986328125
0.000732421875
-0.0010986328125
0.00146484375
-0.0010986328125
-0.000732421875
0.0018310546875
-0.0029296875
0.0018310546875
-0.0047607421875
-0.0018310546875
-0.003662109375
-0.0032958984375
-0.0003662109375
0.0003662109375
0.0029296875
0.0032958984375
0.0054931640625
-0.000732421875
0.002197265625
-0.01171875
0.00439453125
-0.0091552734375
0.03515625
0.0098876953125
-0.0018310546875
0.005859375
-0.0333251953125
-0.0029296875
-0.0010986328125
-0.0003662109375
0.0018310546875
-0.00146484375
0.0040283203125
0.0
0.0032958984375
-0.0047607421875
0.0003662109375
-0.0069580078125
0.0032958984375
0.0
0.0003662109375
0.0010986328125
-0.0029296875
0.0018310546875
0.0047607421875
0.00146484375
-0.0018310546875
0.000732421875
-0.0054931640625
0.0
0.0040283203125
0.000732421875
0.00732421875
0.0003662109375
-0.0040283203125
0.0010986328125
-0.0018310546875
0.0040283203125
0.0047607421875
0.0054931640625
0.00146484375
0.005126953125
0.002197265625
0.002197265625
-0.0040283203125
0.002197265625
-0.0029296875
0.006591796875
-0.0003662109375
0.0106201171875
0.000732421875
0.0040283203125
-0.0025634765625
-0.000732421875
0.0
-0.032958984375
0.052734375
0.0047607421875
-0.0054931640625
0.040283203125
-0.0615234375
0.0
-0.01025390625
-0.0003662109375
-0.0120849609375
-0.00146484375
-0.0135498046875
-0.0029296875
-0.0087890625
-0.0040283203125
-0.0025634765625
-0.0076904296875
-0.00146484375
-0.00146484375
-0.01171875
0.0018310546875
-0.01025390625
0.00146484375
-0.005126953125
-0.002197265625
-0.0047607421875
-0.0029296875
-0.000732421875
-0.000732421875
-0.0003662109375
-0.003662109375
0.000732421875
-0.003662109375
0.0
-0.0010986328125
0.0
-0.0003662109375
0.0010986328125
-0.005859375
0.00146484375
-0.0047607421875
0.0040283203125
-0.00732421875
0.0
-0.00439453125
0.0054931640625
0.0032958984375
0.008056640625
0.00146484375
0.0018310546875
0.0010986328125
0.0040283203125
-0.03076171875
0.0201416015625
0.0062255859375
0.0216064453125
0.0322265625
-0.015380859375
-0.0029296875
-0.0205078125
-0.0010986328125
-0.000732421875
-0.0003662109375
0.0010986328125
-0.0025634765625
0.003662109375
-0.00732421875
0.0047607421875
-0.005859375
0.0054931640625
-0.005859375
0.00439453125
0.0003662109375
0.002197265625
0.003662109375
-0.0029296875
0.0032958984375
-0.0040283203125
-0.0157470703125
0.0318603515625
-0.0699462890625
0.0692138671875
-0.0831298828125
0.141387939453125
0.08203125
-0.0838623046875
0.120849609375
-0.194122314453125
0.0087890625
-0.0047607421875
0.003662109375
-0.0087890625
0.005126953125
-0.016845703125
0.012451171875
-0.021240234375
0.009521484375
-0.029296875
-0.0128173828125
0.0032958984375
-0.0281982421875
0.047607421875
-0.025634765625
0.049072265625
-0.010986328125
0.0245361328125
-0.0018310546875
0.0069580078125
0.000732421875
0.0025634765625
0.0
0.0025634765625
0.00146484375
0.0
0.002197265625
0.000732421875
0.0010986328125
-0.0003662109375
0.0040283203125
-0.00439453125
0.000732421875
-0.0025634765625
0.0025634765625
-0.0010986328125
0.0010986328125
0.00146484375
-0.000732421875
0.0029296875
0.0010986328125
0.000732421875
0.0010986328125
-0.00146484375
0.0032958984375
-0.000732421875
0.0025634765625
0.000732421875
0.0025634765625
0.0
0.0
0.000732421875
-0.0003662109375
0.002197265625
-0.0018310546875
0.0040283203125
0.0003662109375
0.0018310546875
0.0032958984375
0.0010986328125
-0.000732421875
0.0
-0.0025634765625
0.000732421875
0.0010986328125
0.00439453125
0.0040283203125
0.0087890625
0.0018310546875
0.0047607421875
-0.029296875
0.019775390625
0.0113525390625
0.0135498046875
0.03662109375
-0.029296875
-0.005126953125
-0.019775390625
0.0
-0.0018310546875
0.000732421875
-0.0032958984375
-0.003662109375
0.002197265625
-0.0025634765625
0.0032958984375
-0.0047607421875
0.0062255859375
-0.0054931640625
0.005126953125
0.000732421875
-0.0003662109375
0.0
-0.0025634765625
-0.0003662109375
-0.005126953125
-0.000732421875
-0.00732421875
0.0003662109375
-0.000732421875
-0.000732421875
0.0040283203125
0.0
-0.002197265625
-0.0003662109375
-0.00146484375
-0.0010986328125
0.0029296875
-0.0003662109375
0.0029296875
-0.0032958984375
0.0003662109375
0.0
-0.005859375
-0.0040283203125
-0.002197265625
0.0003662109375
0.002197265625
0.0032958984375
0.0018310546875
-0.0003662109375
0.00439453125
-0.0032958984375
0.0032958984375
-0.019775390625
0.032958984375
0.006591796875
-0.0032958984375
0.021240234375
-0.03662109375
0.000732421875
-0.0010986328125
-0.0040283203125
0.0018310546875
-0.0040283203125
0.000732421875
-0.0047607421875
0.0040283203125
-0.005859375
0.005859375
-0.0032958984375
0.0010986328125
0.000732421875
-0.003662109375
0.005126953125
-0.0040283203125
0.0018310546875
-0.0010986328125
0.0010986328125
-0.0010986328125
-0.0018310546875
0.0010986328125
-0.0010986328125
0.0
0.0
-0.0010986328125
0.0
-0.0018310546875
0.000732421875
-0.00146484375
-0.0003662109375
0.0
0.0018310546875
-0.0003662109375
-0.0010986328125
-0.0010986328125
-0.006591796875
-0.005859375
-0.003662109375
0.002197265625
0.005859375
0.0032958984375
0.0032958984375
-0.00146484375
-0.000732421875
0.0
-0.050537109375
0.041015625
0.0029296875
0.0098876953125
0.05419921875
-0.04541015625
-0.00146484375
-0.0142822265625
0.000732421875
-0.0032958984375
0.0003662109375
-0.0025634765625
-0.000732421875
-0.00146484375
-0.0018310546875
-0.0010986328125
-0.00732421875
0.0018310546875
-0.00146484375
-0.0010986328125
0.003662109375
-0.0029296875
0.003662109375
-0.005126953125
-0.0029296875
0.0018310546875
-0.038818359375
0.0560302734375
-0.126708984375
0.193756103515625
0.016845703125
-0.0157470703125
0.147216796875
-0.224884033203125
0.0421142578125
-0.06591796875
0.0091552734375
-0.005859375
0.005126953125
-0.013916015625
0.0087890625
-0.02197265625
0.0128173828125
-0.03076171875
0.0010986328125
-0.01904296875
-0.0263671875
0.03369140625
-0.03515625
0.0626220703125
-0.0157470703125
0.0380859375
-0.0040283203125
0.012451171875
0.0003662109375
0.003662109375
0.0003662109375
0.0040283203125
0.0010986328125
0.0029296875
0.002197265625
0.0
0.0010986328125
0.0003662109375
-0.0003662109375
0.002197265625
0.0
0.0
0.0032958984375
0.000732421875
-0.00146484375
0.0062255859375
0.000732421875
0.00146484375
0.002197265625
-0.00146484375
0.000732421875
0.0025634765625
0.000732421875
0.0029296875
-0.0003662109375
0.002197265625
0.0018310546875
0.002197265625
0.0003662109375
0.0025634765625
0.0025634765625
0.002197265625
-0.0003662109375
0.0029296875
0.0003662109375
0.002197265625
0.0010986328125
0.0032958984375
-0.0003662109375
0.002197265625
-0.000732421875
-0.0010986328125
-0.00439453125
0.0
0.0029296875
0.00732421875
0.00439453125
0.0084228515625
0.0
0.0032958984375
-0.046875
0.0322265625
0.0047607421875
0.0146484375
0.0472412109375
-0.02783203125
-0.0029296875
-0.0113525390625
0.0025634765625
0.0
-0.0003662109375
-0.0003662109375
-0.00146484375
0.0003662109375
-0.005859375
0.0062255859375
-0.008056640625
0.0084228515625
-0.006591796875
0.0062255859375
-0.0018310546875
0.0040283203125
0.0018310546875
-0.0032958984375
0.0
-0.005859375
0.0032958984375
-0.0062255859375
0.00146484375
-0.0040283203125
0.00146484375
-0.0010986328125
0.0018310546875
-0.002197265625
0.0029296875
-0.003662109375
0.002197265625
-0.0018310546875
0.00146484375
-0.00146484375
0.000732421875
-0.0018310546875
-0.00439453125
-0.0032958984375
-0.0062255859375
-0.0029296875
-0.000732421875
0.0025634765625
0.005859375
0.0029296875
0.0010986328125
0.0
-0.00146484375
0.0003662109375
-0.0516357421875
0.06005859375
0.00146484375
0.0018310546875
0.052734375
-0.062255859375
-0.0025634765625
-0.0054931640625
0.0003662109375
-0.0032958984375
0.0
-0.00146484375
-0.003662109375
0.0018310546875
-0.0062255859375
0.0032958984375
-0.006591796875
0.0025634765625
0.0003662109375
-0.003662109375
0.0032958984375
-0.0047607421875
0.005126953125
-0.0054931640625
0.002197265625
-0.0040283203125
0.0
-0.0010986328125
-0.0003662109375
-0.0018310546875
0.0
-0.0032958984375
0.0018310546875
-0.00439453125
-0.000732421875
-0.0018310546875
0.0003662109375
-0.00146484375
0.0003662109375
-0.002197265625
0.002197265625
-0.0029296875
0.0010986328125
-0.0054931640625
-0.0025634765625
-0.0040283203125
0.0018310546875
0.002197265625
0.0032958984375
0.0029296875
0.0003662109375
-0.0003662109375
-0.0040283203125
0.00146484375
-0.0135498046875
0.0399169921875
0.006591796875
-0.0029296875
0.0179443359375
-0.0421142578125
-0.00439453125
0.0032958984375
-0.003662109375
0.0032958984375
0.0010986328125
-0.0025634765625
-0.0018310546875
0.000732421875
-0.0025634765625
0.002197265625
-0.003662109375
0.0018310546875
0.0032958984375
-0.00146484375
0.0076904296875
-0.005859375
0.005859375
-0.0047607421875
0.00146484375
-0.0010986328125
0.0
-0.0010986328125
0.0003662109375
0.0
0.0003662109375
0.0018310546875
0.0010986328125
0.000732421875
-0.0003662109375
0.0
0.0018310546875
-0.00146484375
0.0
0.0032958984375
0.0010986328125
0.000732421875
0.000732421875
-0.0084228515625
-0.0040283203125
-0.00146484375
0.0018310546875
0.005859375
0.0032958984375
0.0054931640625
0.00146484375
0.0018310546875
-0.005126953125
0.005126953125
-0.01904296875
0.0377197265625
0.0062255859375
-0.000732421875
0.0201416015625
-0.03515625
0.000732421875
-0.0018310546875
-0.0018310546875
0.0029296875
-0.0010986328125
0.003662109375
-0.0032958984375
0.0029296875
-0.0029296875
0.0025634765625
-0.0032958984375
0.005859375
0.0
0.0010986328125
0.000732421875
-0.0025634765625
0.000732421875
0.0003662109375
-0.0216064453125
0.041015625
-0.095947265625
0.107666015625
-0.03662109375
0.0692138671875
0.1072998046875
-0.1241455078125
0.081298828125
-0.1351318359375
0.0084228515625
-0.0040283203125
0.0029296875
-0.005859375
0.0084228515625
-0.0205078125
0.0120849609375
-0.0260009765625
0.0040283203125
-0.0238037109375
-0.0216064453125
0.02197265625
-0.0318603515625
0.0560302734375
-0.016845703125
0.0347900390625
-0.0018310546875
0.0087890625
0.0003662109375
0.000732421875
0.000732421875
0.0
0.00146484375
0.0
-0.0003662109375
-0.00146484375
-0.000732421875
-0.0010986328125
-0.0018310546875
0.0003662109375
0.0
-0.002197265625
-0.000732421875
-0.0010986328125
0.0
-0.0003662109375
0.0
-0.000732421875
-0.00146484375
-0.0010986328125
-0.002197265625
-0.0032958984375
-0.0018310546875
-0.00146484375
0.002197265625
-0.00146484375
-0.0003662109375
-0.0003662109375
0.0
0.0
0.0003662109375
-0.0018310546875
0.0
0.00146484375
-0.0003662109375
-0.0003662109375
-0.0018310546875
-0.0029296875
-0.0003662109375
-0.00146484375
-0.002197265625
0.0003662109375
0.000732421875
-0.0054931640625
-0.0032958984375
-0.005126953125
0.0003662109375
0.00146484375
0.0032958984375
0.0047607421875
-0.00146484375
0.002197265625
-0.0128173828125
0.009521484375
0.000732421875
0.016845703125
0.015380859375
-0.012451171875
-0.0003662109375
-0.017578125
0.0018310546875
-0.0029296875
0.0003662109375
-0.002197265625
-0.0025634765625
0.0029296875
-0.003662109375
0.0029296875
-0.0062255859375
0.003662109375
-0.005126953125
0.005126953125
-0.000732421875
0.0
0.003662109375
-0.003662109375
0.002197265625
-0.005859375
0.003662109375
-0.0076904296875
0.00146484375
-0.003662109375
0.000732421875
-0.0018310546875
0.002197265625
-0.0032958984375
0.0
-0.000732421875
0.0032958984375
-0.0003662109375
0.0010986328125
-0.0029296875
0.000732421875
-0.000732421875
0.0
0.0018310546875
-0.000732421875
-0.0047607421875
-0.0029296875
-0.0032958984375
0.0003662109375
0.0032958984375
0.0047607421875
0.000732421875
-0.0003662109375
0.0003662109375
-0.01318359375
0.009521484375
0.005859375
0.0172119140625
0.017578125
-0.01171875
-0.003662109375
-0.0194091796875
0.0
-0.0010986328125
0.0
-0.0010986328125
-0.0025634765625
0.0
-0.002197265625
0.0029296875
-0.0069580078125
0.0069580078125
-0.005126953125
0.003662109375
0.0003662109375
-0.0010986328125
0.0054931640625
-0.0054931640625
0.0047607421875
-0.0040283203125
0.0
-0.0010986328125
0.0
-0.000732421875
-0.0003662109375
0.0010986328125
0.0010986328125
0.000732421875
0.0
0.0003662109375
0.000732421875
-0.0003662109375
0.0
-0.0003662109375
0.0003662109375
0.0003662109375
0.0003662109375
0.000732421875
-0.0018310546875
-0.0054931640625
-0.0003662109375
-0.0025634765625
0.002197265625
0.0047607421875
0.003662109375
0.003662109375
0.000732421875
0.0029296875
-0.021240234375
0.017578125
0.0069580078125
0.0205078125
0.0234375
-0.0164794921875
-0.006591796875
-0.0179443359375
-0.0040283203125
0.0047607421875
-0.002197265625
0.0040283203125
-0.0032958984375
0.0018310546875
-0.0032958984375
0.002197265625
-0.005126953125
0.005859375
-0.00146484375
0.00146484375
0.0069580078125
-0.0032958984375
0.00439453125
-0.0032958984375
0.00439453125
-0.0010986328125
0.0032958984375
0.0003662109375
-0.0010986328125
-0.0003662109375
-0.0025634765625
0.0010986328125
0.0
0.0003662109375
0.0003662109375
0.0
0.0
-0.0003662109375
0.0003662109375
0.0003662109375
-0.00146484375
0.000732421875
0.0
-0.002197265625
0.0
-0.005859375
0.0032958984375
-0.0025634765625
0.00439453125
0.0047607421875
0.003662109375
0.002197265625
0.0010986328125
-0.0003662109375
-0.024169921875
0.0142822265625
0.0069580078125
0.0186767578125
0.0234375
-0.01318359375
-0.005859375
-0.0208740234375
-0.002197265625
-0.0018310546875
-0.0010986328125
-0.0010986328125
-0.0018310546875
0.0003662109375
-0.005126953125
0.0025634765625
-0.008056640625
0.00439453125
-0.00732421875
0.00439453125
-0.0003662109375
-0.0018310546875
0.005126953125
-0.00732421875
0.0047607421875
-0.0032958984375
-0.0318603515625
0.0494384765625
-0.111328125
0.1453857421875
-0.018310546875
0.0384521484375
0.1263427734375
-0.169921875
0.0714111328125
-0.116455078125
0.0062255859375
-0.0062255859375
0.003662109375
-0.01025390625
0.008056640625
-0.0208740234375
0.0146484375
-0.030029296875
0.0032958984375
-0.024169921875
-0.0234375
0.02490234375
-0.03369140625
0.0611572265625
-0.0201416015625
0.041748046875
-0.0032958984375
0.0120849609375
0.0
0.0029296875
0.0018310546875
0.000732421875
0.0003662109375
0.0010986328125
0.00146484375
0.0025634765625
0.0003662109375
0.000732421875
0.0
-0.000732421875
0.0029296875
-0.0025634765625
0.0
-0.00146484375
0.0
-0.002197265625
-0.00146484375
0.00146484375
0.0
0.003662109375
0.00146484375
0.0
0.00146484375
-0.0010986328125
0.000732421875
-0.00146484375
0.0
-0.0003662109375
-0.0003662109375
0.0003662109375
-0.000732421875
0.00146484375
0.00146484375
0.0010986328125
-0.000732421875
0.002197265625
0.000732421875
0.0
0.0
0.0003662109375
-0.0003662109375
0.0018310546875
0.0
-0.003662109375
-0.008056640625
-0.0010986328125
0.002197265625
0.0010986328125
0.006591796875
0.00439453125
0.0
0.0047607421875
-0.009521484375
0.009521484375
-0.006591796875
0.0120849609375
0.0113525390625
-0.0069580078125
0.008056640625
-0.0091552734375
-0.000732421875
0.002197265625
-0.002197265625
0.0032958984375
0.0
0.000732421875
-0.00146484375
0.0040283203125
-0.003662109375
0.0076904296875
-0.005126953125
0.0084228515625
-0.0010986328125
0.0018310546875
0.000732421875
-0.0018310546875
0.000732421875
-0.005126953125
0.0029296875
-0.0069580078125
0.0
0.000732421875
0.00146484375
-0.002197265625
-0.000732421875
-0.0018310546875
0.0
0.00146484375
0.00146484375
-0.0010986328125
0.000732421875
-0.000732421875
0.0025634765625
-0.0010986328125
0.0003662109375
-0.0025634765625
-0.0010986328125
-0.006591796875
-0.0032958984375
-0.0029296875
0.002197265625
0.003662109375
0.0032958984375
0.0003662109375
-0.0003662109375
-0.0010986328125
-0.024169921875
0.0164794921875
0.006591796875
0.0201416015625
0.0245361328125
-0.0164794921875
-0.0087890625
-0.0047607421875
-0.0018310546875
0.0150146484375
