0.288604736328125
-0.60321044921875
0.47613525390625
-0.749725341796875
0.46148681640625
-0.146514892578125
0.0377197265625
0.0
-1.0
0.0
-1.0
0.0
-0.178375244140625
0.0
0.0
0.0
0.0
1.0
0.0
0.0
0.0
-1.0
0.0
0.0
0.0
0.0
0.0
0.0
0.0
0.0
0.0
0.0
0.264434814453125
1.0
1.0
1.0
1.0
0.39556884765625
0.0
-0.264068603515625
-1.0
-0.669158935546875
-1.0
-0.168121337890625
0.216827392578125
0.668426513671875
0.46441650390625
0.43218994140625
0.286041259765625
0.0003662109375
-0.03662109375
0.0
-0.139892578125
-0.121246337890625
-0.032958984375
-1.0
0.059326171875
-1.0
0.309844970703125
0.0
0.856658935546875
0.0
0.795135498046875
0.0
0.207305908203125
0.0
0.0
0.0
-0.174346923828125
0.0
-0.784149169921875
1.0
-0.829559326171875
1.0
-0.301422119140625
0.0003662109375
-0.132568359375
0.0003662109375
-0.069580078125
0.0003662109375
0.0032958984375
0.0
-0.054229736328125
-0.0003662109375
-0.36663818359375
-0.0003662109375
-0.290435791015625
0.0
0.0
0.0
0.0
0.0
0.0
0.0
0.0
0.0003662109375
0.0
0.0
0.0
-0.0003662109375
0.0
0.0
0.0
0.0
0.0
0.0
0.0
0.0
0.0
0.0
0.0
0.0
0.0
0.0
0.0
0.0
0.0
0.0
0.0
0.0
0.098541259765625
0.0
0.267730712890625
-0.080230712890625
0.53289794921875
-0.51934814453125
0.38421630859375
-0.62994384765625
0.191162109375
-0.60357666015625
0.0289306640625
-0.342437744140625
-0.204345703125
0.000732421875
-0.112457275390625
-0.1175537109375
-0.196319580078125
-0.0391845703125
-0.245361328125
-0.008819580078125
-0.152374267578125
-0.040313720703125
-0.072174072265625
0.040313720703125
0.068511962890625
0.172149658203125
0.332183837890625
0.07470703125
0.497711181640625
-0.172515869140625
0.38677978515625
-0.297393798828125
-0.0677490234375
0.063018798828125
-0.251617431640625
0.47247314453125
0.0322265625
0.2373046875
0.1505126953125
-0.005157470703125
0.03662109375
0.118316650390625
-0.1607666015625
0.34576416015625
-0.250518798828125
0.282379150390625
-0.201812744140625
0.0498046875
-0.2559814453125
0.1453857421875
-0.410186767578125
0.48822021484375
-0.33038330078125
0.35565185546875
-0.095977783203125
0.01025390625
0.0
0.0
0.0
0.0
0.0
0.0
0.0
0.0
0.0
0.0
0.0
0.0
0.830657958984375
-0.693328857421875
1.0
-1.0
0.00146484375
-0.463653564453125
-0.339141845703125
-0.143218994140625
-0.264434814453125
-0.106964111328125
-0.106964111328125
-0.13037109375
-0.009521484375
-0.112060546875
0.010986328125
-0.0758056640625
0.0406494140625
-0.095977783203125
0.02197265625
-0.0369873046875
-0.047607421875
0.0029296875
0.035919189453125
0.03076171875
0.085357666015625
0.002197265625
0.0311279296875
-0.0399169921875
0.052001953125
0.013580322265625
0.1124267578125
0.0399169921875
0.0823974609375
0.0692138671875
0.03515625
0.0509033203125
0.0615234375
0.0186767578125
0.0146484375
0.024169921875
0.0234375
0.02197265625
0.030029296875
0.005126953125
-0.0087890625
0.0120849609375
-0.008056640625
0.0146484375
0.0076904296875
-0.021240234375
0.080596923828125
-0.0380859375
0.079864501953125
-0.0098876953125
0.0091552734375
0.01025390625
-0.01171875
0.0164794921875
-0.043243408203125
0.01318359375
-0.0029296875
0.0369873046875
0.013580322265625
0.0340576171875
-0.008056640625
0.0106201171875
-0.038116455078125
0.0245361328125
-0.075103759765625
0.0406494140625
-0.04833984375
0.052734375
-0.0908203125
0.056396484375
-0.1541748046875
0.054962158203125
-0.0732421875
0.060821533203125
0.0560302734375
0.054931640625
0.03955078125
0.0435791015625
0.005859375
0.040283203125
-0.0062255859375
0.0322265625
-0.0076904296875
0.025634765625
-0.019775390625
0.029296875
-0.031494140625
0.044677734375
-0.040283203125
0.0501708984375
-0.0439453125
0.03955078125
-0.03662109375
0.04248046875
-0.131866455078125
0.0157470703125
-0.065216064453125
0.085723876953125
0.06005859375
0.04248046875
0.0391845703125
-0.056793212890625
0.01611328125
-0.005859375
-0.006591796875
-0.005126953125
-0.018310546875
-0.0069580078125
-0.0084228515625
-0.00732421875
0.022705078125
-0.0032958984375
0.018310546875
0.015380859375
-0.0069580078125
0.0234375
-0.02197265625
0.005859375
-0.0146484375
-0.0032958984375
0.005126953125
-0.0032958984375
0.005859375
-0.01171875
-0.009521484375
0.000732421875
0.0245361328125
0.0201416015625
0.052032470703125
0.0150146484375
0.023834228515625
0.0062255859375
0.0146484375
0.002227783203125
-0.012847900390625
0.020904541015625
0.0120849609375
0.03076171875
0.045806884765625
-0.0084228515625
0.0347900390625
-0.0252685546875
0.049072265625
-0.0087890625
0.029296875
-0.000732421875
0.005126953125
0.0
0.025634765625
-0.009918212890625
0.0333251953125
-0.0029296875
0.044677734375
0.014312744140625
0.0494384765625
0.0157470703125
0.0069580078125
-0.00146484375
0.0260009765625
-0.0018310546875
0.053466796875
-0.00146484375
-0.0380859375
-0.016510009765625
-0.0545654296875
-0.014678955078125
0.0260009765625
-0.0157470703125
0.168121337890625
-0.0531005859375
0.209869384765625
-0.087158203125
0.049072265625
-0.0699462890625
0.0970458984375
-0.0084228515625
0.0985107421875
-0.0216064453125
-0.019775390625
-0.041748046875
0.0076904296875
-0.0135498046875
-0.0421142578125
-0.00439453125
-0.0772705078125
0.0084228515625
0.0062255859375
0.0047607421875
0.0450439453125
-0.0018310546875
0.046875
-0.0076904296875
0.027099609375
0.0010986328125
-0.008056640625
0.0128173828125
-0.021240234375
0.0205078125
-0.0322265625
0.0186767578125
-0.028564453125
0.009521484375
-0.0252685546875
0.0098876953125
-0.03955078125
0.01904296875
-0.035888671875
0.022705078125
-0.01611328125
0.0142822265625
-0.0135498046875
-0.0010986328125
-0.131500244140625
-0.002197265625
-0.0908203125
0.04833984375
0.018310546875
0.00732421875
-0.023834228515625
-0.0318603515625
-0.0157470703125
0.0113525390625
-0.0380859375
0.0084228515625
-0.041015625
0.006591796875
-0.0201416015625
0.0054931640625
-0.015380859375
0.010986328125
-0.01318359375
0.018310546875
-0.0150146484375
0.008056640625
-0.0216064453125
0.01025390625
-0.0223388671875
0.016845703125
-0.0047607421875
0.008056640625
0.00146484375
0.003662109375
-0.0054931640625
0.0164794921875
-0.01318359375
0.0274658203125
-0.0040283203125
0.019805908203125
0.01611328125
0.007720947265625
-0.034423828125
-0.006256103515625
0.009521484375
0.052001953125
0.0384521484375
0.005523681640625
-0.0062255859375
-0.061187744140625
0.01171875
-0.017974853515625
0.005859375
-0.0172119140625
0.0069580078125
-0.0194091796875
0.0113525390625
-0.021240234375
0.030029296875
-0.0201416015625
0.0560302734375
-0.0135498046875
0.0523681640625
-0.0062255859375
0.02490234375
0.0040283203125
-0.00146484375
0.019775390625
-0.0194091796875
0.029296875
-0.0281982421875
0.024169921875
-0.0340576171875
0.037384033203125
-0.0208740234375
0.046905517578125
-0.00146484375
0.029296875
-0.0142822265625
0.0164794921875
-0.013916015625
0.0018310546875
-0.0384521484375
-0.0040283203125
-0.003662109375
0.03076171875
0.03515625
0.0142822265625
-0.01171875
-0.01318359375
-0.015380859375
0.0091552734375
0.00439453125
0.0025634765625
0.02197265625
-0.0076904296875
0.0172119140625
-0.0029296875
0.005859375
0.01025390625
-0.0157470703125
0.017578125
-0.0135498046875
0.0146484375
0.0120849609375
0.0062255859375
-0.0106201171875
0.0032958984375
-0.032958984375
0.0010986328125
-0.0245361328125
-0.0018310546875
-0.015380859375
0.010986328125
-0.0025634765625
0.0216064453125
0.0146484375
0.0135498046875
0.0252685546875
0.0120849609375
-0.027099609375
0.0040283203125
0.052734375
0.0618896484375
0.0970458984375
0.0157470703125
0.0091552734375
-0.0457763671875
0.010986328125
0.0040283203125
0.022705078125
0.0
0.045074462890625
-0.008056640625
0.045074462890625
-0.01025390625
-0.026763916015625
-0.0032958984375
-0.051666259765625
0.0047607421875
-0.030029296875
0.0135498046875
-0.057861328125
0.0098876953125
-0.0567626953125
0.0010986328125
-0.038818359375
-0.003662109375
-0.041748046875
-0.005859375
-0.0252685546875
0.0025634765625
0.005126953125
0.0128173828125
-0.000732421875
0.0128173828125
-0.016845703125
0.006591796875
-0.03369140625
-0.003662109375
-0.0208740234375
0.022705078125
0.0087890625
0.0172119140625
-0.002197265625
-0.0157470703125
-0.0084228515625
-0.0040283203125
-0.0047607421875
0.0
-0.0179443359375
-0.0010986328125
-0.02783203125
0.0010986328125
-0.0128173828125
0.0003662109375
0.0260009765625
0.003662109375
0.0501708984375
0.003662109375
0.04541015625
0.003662109375
0.04248046875
-0.002197265625
0.0377197265625
-0.005859375
0.0340576171875
-0.005859375
0.0311279296875
-0.0040283203125
0.0281982421875
0.0040283203125
-0.02197265625
0.0164794921875
-0.043212890625
0.0135498046875
-0.018310546875
-0.01171875
0.0084228515625
-0.003662109375
0.035888671875
0.0322265625
0.008056640625
0.0120849609375
0.0146484375
-0.0201416015625
0.0150146484375
-0.0010986328125
-0.010986328125
0.0091552734375
-0.0146484375
0.00146484375
-0.008056640625
-0.0091552734375
0.0439453125
-0.0113525390625
0.0120849609375
-0.002197265625
-0.0439453125
-0.0032958984375
-0.0234375
-0.0018310546875
-0.0087890625
-0.0084228515625
0.01611328125
-0.0146484375
0.02197265625
-0.0054931640625
-0.00439453125
0.0029296875
-0.0230712890625
0.013916015625
-0.0113525390625
0.0087890625
-0.002197265625
-0.015380859375
0.046142578125
-0.0054931640625
0.0545654296875
0.01171875
0.0047607421875
-0.01171875
0.0128173828125
-0.0172119140625
0.0289306640625
-0.010986328125
0.022705078125
-0.010986328125
0.0091552734375
-0.0087890625
0.0018310546875
-0.008056640625
-0.0018310546875
-0.003662109375
0.000732421875
0.0029296875
0.009185791015625
0.0003662109375
0.010650634765625
-0.0032958984375
-0.017608642578125
-0.005859375
-0.039581298828125
-0.010986328125
-0.0333251953125
0.000732421875
-0.01611328125
0.008056640625
-0.0164794921875
0.0084228515625
-0.0263671875
0.006591796875
-0.0428466796875
-0.0062255859375
0.0040283203125
0.01904296875
0.0208740234375
0.0084228515625
-0.0263671875
-0.025634765625
-0.022705078125
-0.01171875
-0.0245361328125
-0.0047607421875
-0.0325927734375
-0.002197265625
-0.0347900390625
-0.0025634765625
-0.0252685546875
-0.0003662109375
-0.000732421875
-0.0018310546875
0.0069580078125
0.0003662109375
-0.0054931640625
0.00439453125
-0.0047607421875
0.000732421875
-0.0150146484375
-0.000732421875
-0.0194091796875
-0.008056640625
-0.01611328125
-0.0047607421875
-0.0069580078125
0.005126953125
-0.0025634765625
0.0106201171875
-0.0098876953125
0.0098876953125
-0.006591796875
-0.005126953125
-0.068115234375
0.0091552734375
-0.0128173828125
0.037353515625
0.0413818359375
-0.0018310546875
-0.012451171875
-0.0245361328125
-0.006591796875
0.0029296875
-0.0164794921875
0.0032958984375
-0.0245361328125
0.0029296875
-0.032958984375
0.01171875
-0.033721923828125
0.0172119140625
-0.022735595703125
0.0205078125
-0.010986328125
0.01171875
-0.0062255859375
0.0047607421875
0.0
0.005126953125
-0.00439453125
-0.000732421875
-0.0164794921875
-0.0010986328125
-0.0146484375
0.01904296875
-0.010986328125
0.03076171875
-0.0054931640625
0.0186767578125
-0.00732421875
0.0194091796875
-0.0692138671875
0.0120849609375
0.015380859375
0.0509033203125
0.072509765625
0.00146484375
-0.005126953125
-0.0509033203125
0.005126953125
0.0010986328125
0.00732421875
-0.0025634765625
0.003662109375
0.0018310546875
-0.00146484375
0.01025390625
0.0069580078125
0.002197265625
0.0245361328125
-0.000732421875
0.0238037109375
0.0
0.021636962890625
-0.005859375
0.036651611328125
-0.0010986328125
0.0406494140625
-0.00439453125
0.052001953125
-0.030029296875
0.059326171875
-0.035888671875
0.065185546875
-0.01318359375
0.0714111328125
-0.0040283203125
0.06005859375
-0.015380859375
0.06298828125
-0.0120849609375
-0.01611328125
-0.0186767578125
0.043243408203125
0.0208740234375
0.110260009765625
-0.0186767578125
0.0487060546875
-0.066650390625
0.0413818359375
-0.021240234375
0.0267333984375
-0.021240234375
0.0296630859375
-0.0142822265625
0.0179443359375
-0.0208740234375
0.0087890625
-0.02197265625
0.019775390625
-0.012451171875
0.0274658203125
-0.0087890625
0.015380859375
-0.0091552734375
0.0054931640625
-0.0087890625
0.0
-0.0025634765625
0.0084228515625
-0.00732421875
0.0208740234375
-0.0047607421875
0.022705078125
0.002197265625
0.0201416015625
0.005859375
0.005859375
0.0062255859375
0.0040283203125
-0.013916015625
-0.02490234375
0.012451171875
-0.0128173828125
0.025634765625
-0.008056640625
-0.0186767578125
-0.059326171875
-0.021240234375
-0.04833984375
-0.0098876953125
-0.0472412109375
-0.009521484375
-0.052734375
-0.0084228515625
-0.049072265625
-0.0047607421875
-0.034088134765625
0.0029296875
-0.019805908203125
0.0091552734375
-0.0267333984375
0.0087890625
-0.027099609375
0.0003662109375
-0.02197265625
-0.0010986328125
-0.008056640625
0.0029296875
-0.00732421875
-0.0084228515625
-0.008056640625
-0.005126953125
-0.0032958984375
0.012451171875
0.0018310546875
0.0150146484375
-0.0003662109375
0.0087890625
-0.0069580078125
0.0029296875
-0.0809326171875
0.003662109375
-0.0135498046875
0.0443115234375
0.0523681640625
-0.0010986328125
-0.0186767578125
-0.038818359375
-0.01025390625
0.0040283203125
-0.0194091796875
-0.00146484375
-0.0234375
-0.0032958984375
-0.01318359375
-0.0054931640625
-0.0054931640625
0.0032958984375
-0.0040283203125
0.0135498046875
-0.008056640625
0.01171875
-0.0087890625
0.0054931640625
-0.0069580078125
0.002197265625
-0.005859375
0.0029296875
-0.00439453125
0.0029296875
-0.0047607421875
-0.0025634765625
-0.005859375
-0.005859375
-0.0029296875
0.0062255859375
0.0003662109375
0.01171875
-0.0040283203125
0.0069580078125
-0.006591796875
0.0091552734375
-0.0736083984375
0.0010986328125
0.01025390625
0.05126953125
0.076171875
-0.00146484375
-0.0069580078125
-0.0560302734375
-0.005126953125
0.000732421875
-0.0113525390625
-0.0010986328125
-0.0091552734375
-0.0054931640625
-0.005859375
-0.00732421875
-0.0010986328125
-0.0018310546875
0.01171875
0.0098876953125
0.0087890625
0.0120849609375
0.0047607421875
0.00439453125
0.0098876953125
-0.000732421875
0.0025634765625
0.0018310546875
-0.005126953125
0.003662109375
-0.0120849609375
-0.0025634765625
-0.0172119140625
-0.00439453125
-0.0084228515625
0.010986328125
0.0010986328125
0.0216064453125
-0.0003662109375
0.012451171875
-0.0040283203125
0.0076904296875
-0.0556640625
0.0025634765625
0.0179443359375
0.0574951171875
0.052734375
0.0084228515625
-0.0208740234375
-0.0487060546875
-0.010986328125
0.009521484375
-0.0098876953125
0.0076904296875
-0.003662109375
-0.002197265625
-0.01025390625
0.0
-0.005126953125
0.002197265625
0.00439453125
0.00732421875
0.0084228515625
0.006591796875
0.008056640625
0.0029296875
0.0047607421875
0.0003662109375
0.000732421875
0.0
-0.0003662109375
0.0047607421875
0.0091552734375
-0.006591796875
0.01318359375
-0.0179443359375
0.0113525390625
-0.00146484375
0.0216064453125
-0.0003662109375
0.0234375
-0.01025390625
0.0208740234375
-0.013916015625
-0.0069580078125
-0.0322265625
0.0340576171875
-0.0091552734375
0.050537109375
-0.005126953125
0.0032958984375
-0.0267333984375
0.0087890625
-0.0164794921875
0.0062255859375
-0.0087890625
0.0
0.0029296875
-0.0069580078125
0.000732421875
0.00732421875
-0.0106201171875
0.0263671875
-0.0120849609375
0.0322265625
-0.0029296875
0.0142822265625
0.008056640625
0.00439453125
0.002197265625
0.0054931640625
-0.003662109375
-0.000732421875
-0.00146484375
0.0091552734375
-0.0029296875
0.0157470703125
-0.0091552734375
0.0201416015625
-0.000732421875
0.0238037109375
0.0069580078125
0.022369384765625
0.002197265625
0.024200439453125
0.0025634765625
-0.030059814453125
0.0032958984375
0.0494384765625
0.027099609375
0.076934814453125
-0.0076904296875
-0.002197265625
-0.0391845703125
0.0296630859375
-0.0025634765625
0.044677734375
0.00439453125
0.031494140625
0.006591796875
0.02490234375
0.00146484375
0.034423828125
-0.0098876953125
0.0260009765625
-0.0084228515625
0.0054931640625
0.0
-0.0179443359375
0.0010986328125
-0.0135498046875
0.0010986328125
-0.0091552734375
-0.0010986328125
-0.0234375
-0.008056640625
-0.0340576171875
-0.01318359375
-0.030029296875
-0.003662109375
-0.0263671875
0.010986328125
-0.022705078125
0.006591796875
-0.0223388671875
-0.0029296875
-0.063751220703125
-0.005859375
-0.019775390625
0.038818359375
0.016876220703125
0.0098876953125
-0.0296630859375
-0.0380859375
-0.031890869140625
-0.0087890625
-0.025299072265625
-0.0010986328125
-0.02490234375
-0.0018310546875
-0.0274658203125
-0.006591796875
-0.019775390625
-0.0040283203125
-0.0142822265625
0.0062255859375
-0.0091552734375
0.0098876953125
-0.00732421875
0.002197265625
-0.008056640625
0.0003662109375
-0.0069580078125
-0.002197265625
-0.0069580078125
0.0010986328125
-0.01171875
0.0010986328125
-0.01171875
-0.00732421875
-0.0062255859375
0.0054931640625
-0.00732421875
0.015380859375
-0.00439453125
0.0076904296875
-0.00732421875
0.0054931640625
-0.0823974609375
0.0062255859375
0.0029296875
0.0494384765625
0.065185546875
-0.005126953125
-0.0186767578125
-0.052734375
-0.0091552734375
-0.0025634765625
-0.009521484375
-0.002197265625
-0.0157470703125
-0.0032958984375
-0.013916015625
-0.0062255859375
-0.0069580078125
-0.00146484375
0.0003662109375
0.006591796875
0.0029296875
0.0084228515625
-0.000732421875
0.0032958984375
-0.0025634765625
0.0025634765625
-0.0040283203125
0.0054931640625
-0.0018310546875
0.000732421875
-0.0040283203125
-0.0054931640625
-0.0069580078125
-0.00146484375
-0.0029296875
0.0091552734375
0.000732421875
0.0146484375
0.0025634765625
0.008056640625
0.00146484375
0.0076904296875
-0.0732421875
-0.005859375
0.0106201171875
0.0413818359375
0.08203125
0.0003662109375
0.0029296875
-0.0589599609375
0.00732421875
-0.00732421875
0.003662109375
-0.00439453125
0.0032958984375
-0.013916015625
0.00439453125
-0.0150146484375
0.008056640625
-0.0076904296875
0.0296630859375
-0.0201416015625
0.0377197265625
-0.0238037109375
0.0289306640625
-0.0164794921875
0.038818359375
-0.026031494140625
0.046875
-0.028961181640625
0.0362548828125
-0.0223388671875
0.0234375
-0.0164794921875
0.01171875
-0.002197265625
0.015045166015625
0.0029296875
0.020172119140625
0.008056640625
-0.0032958984375
0.015380859375
-0.017974853515625
-0.0018310546875
-0.039581298828125
0.020172119140625
0.0029296875
0.037017822265625
0.0267333984375
-0.0032958984375
-0.012451171875
-0.006591796875
-0.0069580078125
0.00732421875
-0.0084228515625
0.006591796875
-0.0076904296875
0.013916015625
-0.005126953125
0.0106201171875
-0.0003662109375
0.0054931640625
0.0087890625
0.010986328125
0.0003662109375
0.012451171875
-0.0069580078125
0.006591796875
-0.006591796875
-0.0054931640625
-0.0076904296875
-0.0076904296875
-0.00439453125
-0.009521484375
-0.000732421875
-0.015380859375
0.0054931640625
-0.005859375
0.0069580078125
0.008056640625
0.0018310546875
0.005126953125
0.00146484375
0.0062255859375
-0.0509033203125
0.0062255859375
0.0238037109375
0.041015625
0.0684814453125
-0.0003662109375
-0.0142822265625
-0.041748046875
-0.0098876953125
-0.002197265625
-0.006591796875
0.0047607421875
-0.01025390625
0.0040283203125
-0.0076904296875
-0.0025634765625
0.0054931640625
0.0003662109375
0.021240234375
0.000732421875
0.021240234375
0.0040283203125
0.013214111328125
0.0087890625
0.019073486328125
0.0029296875
0.0142822265625
0.0018310546875
0.0010986328125
0.0018310546875
-0.013916015625
-0.006591796875
-0.017608642578125
0.0025634765625
-0.011016845703125
0.0128173828125
-0.0025634765625
0.0098876953125
-0.003662109375
0.0018310546875
-0.053466796875
0.0003662109375
0.006591796875
0.0399169921875
0.027099609375
0.003662109375
-0.0296630859375
-0.0413818359375
-0.0194091796875
-0.0062255859375
-0.0325927734375
0.0029296875
-0.031494140625
0.002197265625
-0.0263671875
-0.0029296875
-0.018310546875
-0.0047607421875
-0.0091552734375
0.00146484375
-0.00732421875
0.0069580078125
-0.01025390625
0.00732421875
-0.01318359375
0.0047607421875
-0.0179443359375
-0.000732421875
-0.0164794921875
-0.0010986328125
-0.009521484375
-0.0076904296875
-0.0128173828125
-0.00439453125
-0.009521484375
0.01171875
-0.000732421875
0.0172119140625
0.0
0.009521484375
-0.0010986328125
0.0047607421875
-0.0838623046875
0.0098876953125
-0.003662109375
0.04833984375
0.0750732421875
-0.0069580078125
-0.005859375
-0.05126953125
-0.0029296875
-0.00146484375
-0.0003662109375
-0.00146484375
-0.005859375
-0.005859375
-0.005126953125
-0.00439453125
0.000732421875
0.0025634765625
0.0029296875
0.009521484375
0.0029296875
0.008056640625
0.0003662109375
0.00146484375
0.000732421875
0.0010986328125
0.0018310546875
0.0003662109375
0.00439453125
-0.00439453125
0.0029296875
-0.00732421875
-0.0025634765625
0.00439453125
0.000732421875
0.0113525390625
0.0025634765625
0.0084228515625
-0.005126953125
0.0062255859375
-0.0201416015625
-0.00439453125
-0.0303955078125
0.0487060546875
0.0076904296875
0.0263671875
0.0223388671875
-0.0362548828125
-0.003662109375
-0.0076904296875
-0.0047607421875
-0.000732421875
-0.00439453125
-0.0054931640625
-0.008056640625
-0.01025390625
-0.005126953125
-0.00732421875
0.0003662109375
0.00732421875
0.005859375
0.01611328125
0.0010986328125
0.0135498046875
-0.003662109375
0.01025390625
-0.0032958984375
0.0076904296875
-0.005859375
0.005859375
-0.003662109375
-0.0018310546875
-0.005126953125
-0.006591796875
-0.0069580078125
0.01171875
0.002197265625
0.0172119140625
0.0091552734375
0.00732421875
0.0
0.0084228515625
-0.041015625
-0.000732421875
0.0157470703125
0.0428466796875
0.050537109375
0.0062255859375
0.005859375
-0.0487060546875
0.01611328125
-0.0098876953125
0.0106201171875
-0.005126953125
-0.00146484375
-0.00146484375
-0.003662109375
-0.008056640625
0.0003662109375
-0.006591796875
0.0076904296875
-0.000732421875
0.0172119140625
-0.005126953125
0.0135498046875
-0.003662109375
0.0084228515625
-0.008056640625
0.002197265625
-0.009521484375
0.0010986328125
-0.00439453125
0.0018310546875
-0.00732421875
-0.002197265625
-0.0054931640625
0.009521484375
-0.000732421875
0.0106201171875
0.0084228515625
0.0029296875
0.0062255859375
0.00439453125
-0.010986328125
-0.06298828125
-0.0047607421875
0.0120849609375
0.04248046875
0.076904296875
-0.0047607421875
0.002197265625
-0.046142578125
0.0018310546875
-0.00439453125
0.0010986328125
-0.0084228515625
-0.0076904296875
0.0003662109375
-0.0098876953125
0.0010986328125
0.0054931640625
-0.005859375
0.015380859375
0.0018310546875
0.009521484375
0.00146484375
0.005859375
-0.002197265625
0.005126953125
-0.0010986328125
0.0003662109375
-0.0029296875
0.005126953125
-0.0010986328125
0.005859375
-0.0098876953125
0.0047607421875
0.0010986328125
0.005126953125
0.0113525390625
0.0029296875
0.002197265625
0.0010986328125
0.0069580078125
-0.0457763671875
-0.0025634765625
0.02490234375
0.0340576171875
0.0567626953125
0.0003662109375
-0.01171875
-0.041015625
0.0025634765625
-0.0040283203125
0.0025634765625
-0.0032958984375
-0.00732421875
-0.000732421875
-0.0142822265625
-0.0084228515625
-0.003662109375
-0.0135498046875
0.0106201171875
-0.0054931640625
0.013916015625
0.005126953125
0.0040283203125
0.0054931640625
-0.005126953125
-0.002197265625
-0.0091552734375
-0.0025634765625
-0.006591796875
-0.003662109375
-0.00732421875
-0.0106201171875
-0.0120849609375
-0.000732421875
-0.003662109375
0.0025634765625
-0.0003662109375
0.0062255859375
-0.005859375
0.009521484375
-0.032958984375
-0.00732421875
-0.01025390625
0.032958984375
0.022705078125
0.0172119140625
-0.0003662109375
-0.0318603515625
-0.005859375
-0.015380859375
-0.0069580078125
-0.0062255859375
-0.01025390625
-0.0032958984375
-0.0142822265625
-0.0029296875
-0.0076904296875
-0.005126953125
0.00146484375
-0.00146484375
0.0018310546875
0.008056640625
-0.00146484375
0.0047607421875
-0.0029296875
0.0010986328125
-0.0062255859375
0.0
-0.00439453125
0.0
0.00146484375
-0.0062255859375
-0.005126953125
-0.0076904296875
0.00146484375
0.0054931640625
0.006591796875
0.0113525390625
-0.000732421875
0.00732421875
-0.0040283203125
0.0098876953125
-0.082763671875
0.003662109375
0.0062255859375
0.046875
0.0816650390625
-0.0032958984375
-0.003662109375
-0.0545654296875
-0.003662109375
-0.000732421875
-0.0040283203125
-0.0010986328125
-0.008056640625
-0.003662109375
-0.0091552734375
-0.005859375
-0.0054931640625
0.0
-0.003662109375
0.0076904296875
0.0010986328125
0.0087890625
0.0003662109375
0.0029296875
0.0
0.0
-0.0018310546875
-0.0003662109375
0.0040283203125
-0.005126953125
0.005126953125
-0.00732421875
-0.00439453125
0.0098876953125
0.000732421875
0.01904296875
-0.0018310546875
0.010986328125
-0.0040283203125
0.008056640625
-0.027099609375
-0.0010986328125
-0.010986328125
0.0380859375
0.0322265625
0.0135498046875
0.0164794921875
-0.0340576171875
0.000732421875
-0.0069580078125
-0.003662109375
0.0010986328125
-0.003662109375
0.005126953125
-0.0069580078125
0.0010986328125
-0.0040283203125
-0.0047607421875
0.0084228515625
0.0018310546875
0.0142822265625
0.0076904296875
0.0087890625
0.0040283203125
-0.0010986328125
0.0040283203125
-0.00439453125
-0.0018310546875
-0.0010986328125
-0.0003662109375
-0.002197265625
0.0018310546875
-0.0091552734375
-0.0062255859375
-0.0003662109375
0.0029296875
0.0076904296875
0.01318359375
0.0032958984375
0.0076904296875
0.0
0.008056640625
-0.0765380859375
0.0040283203125
0.0157470703125
0.0369873046875
0.0831298828125
-0.0087890625
-0.0087890625
-0.0516357421875
-0.00146484375
-0.0047607421875
-0.0010986328125
0.0
-0.0040283203125
-0.000732421875
-0.00439453125
-0.0087890625
0.0025634765625
-0.0135498046875
0.0087890625
-0.005859375
0.009521484375
0.0054931640625
0.0040283203125
-0.00146484375
-0.0003662109375
-0.000732421875
-0.0003662109375
0.006591796875
-0.0010986328125
0.00146484375
0.002197265625
-0.0091552734375
0.000732421875
-0.005126953125
0.0054931640625
0.006591796875
0.005126953125
0.010986328125
0.0003662109375
0.0069580078125
0.0025634765625
-0.0186767578125
-0.043212890625
0.00439453125
0.0025634765625
0.0391845703125
0.0439453125
-0.0084228515625
-0.0040283203125
-0.0260009765625
-0.005859375
-0.0029296875
-0.0062255859375
-0.000732421875
-0.0098876953125
-0.0018310546875
-0.0091552734375
-0.008056640625
-0.0029296875
-0.0025634765625
0.00146484375
0.0054931640625
0.0047607421875
0.0069580078125
0.0
0.0040283203125
-0.0029296875
-0.0029296875
-0.0010986328125
-0.0032958984375
-0.0003662109375
-0.0029296875
-0.002197265625
-0.0076904296875
-0.0040283203125
0.0025634765625
0.0003662109375
0.0128173828125
0.003662109375
0.005859375
0.0047607421875
0.0018310546875
-0.0164794921875
-0.00732421875
-0.0146484375
0.0318603515625
0.0245361328125
0.015380859375
0.01904296875
-0.03662109375
-0.002197265625
-0.0146484375
-0.002197265625
-0.0047607421875
-0.005859375
-0.0047607421875
-0.0091552734375
-0.0076904296875
-0.0025634765625
-0.0047607421875
0.0040283203125
0.0018310546875
0.01025390625
0.0062255859375
0.00732421875
0.003662109375
0.0010986328125
0.0
-0.0003662109375
-0.000732421875
0.0
-0.0018310546875
0.0010986328125
-0.0062255859375
-0.002197265625
-0.010986328125
-0.00146484375
0.000732421875
0.00439453125
0.0091552734375
0.008056640625
0.0069580078125
0.00146484375
0.0040283203125
-0.01171875
-0.0098876953125
-0.027099609375
0.0289306640625
0.0120849609375
0.0208740234375
0.0274658203125
-0.03369140625
-0.0025634765625
-0.0164794921875
0.0003662109375
-0.005126953125
-0.0040283203125
-0.006591796875
-0.005859375
-0.005859375
-0.0032958984375
-0.005126953125
-0.002197265625
0.005126953125
0.005126953125
0.0091552734375
0.003662109375
0.005126953125
-0.00146484375
0.0018310546875
0.0
-0.000732421875
0.000732421875
-0.000732421875
0.000732421875
-0.0010986328125
0.0003662109375
-0.0062255859375
-0.0025634765625
-0.002197265625
-0.0010986328125
0.0084228515625
0.0029296875
0.01318359375
-0.0003662109375
0.0076904296875
0.0003662109375
0.0040283203125
-0.078369140625
-0.0069580078125
0.008056640625
0.0391845703125
0.08349609375
0.005126953125
-0.005126953125
-0.0457763671875
-0.0010986328125
-0.0018310546875
-0.00439453125
-0.000732421875
-0.0076904296875
-0.0018310546875
-0.01025390625
-0.005126953125
-0.003662109375
-0.0040283203125
0.006591796875
0.00439453125
0.006591796875
0.01025390625
0.00439453125
0.005126953125
0.00146484375
-0.0003662109375
-0.0010986328125
0.0
-0.0010986328125
0.005859375
0.0010986328125
-0.0032958984375
-0.00439453125
-0.010986328125
0.000732421875
-0.0003662109375
0.006591796875
0.012451171875
0.0029296875
0.0120849609375
0.005126953125
0.01025390625
-0.07763671875
0.002197265625
0.010986328125
0.038818359375
0.0823974609375
0.0032958984375
-0.0084228515625
-0.046142578125
-0.0010986328125
-0.0062255859375
-0.0018310546875
-0.0018310546875
-0.0069580078125
0.0025634765625
-0.00732421875
-0.0084228515625
0.0054931640625
-0.01171875
0.0120849609375
0.0003662109375
0.0128173828125
-0.0029296875
0.0069580078125
0.0018310546875
-0.0018310546875
0.0062255859375
-0.0010986328125
-0.0076904296875
0.000732421875
-0.0018310546875
0.0032958984375
-0.0032958984375
0.0003662109375
-0.0113525390625
0.002197265625
0.0029296875
0.0062255859375
0.012451171875
0.0032958984375
0.0087890625
-0.0010986328125
0.00732421875
-0.0721435546875
0.0040283203125
0.0113525390625
0.0377197265625
0.07763671875
-0.0069580078125
-0.00439453125
-0.046875
-0.002197265625
-0.0025634765625
-0.00439453125
-0.0029296875
-0.0106201171875
-0.0029296875
-0.010986328125
-0.0032958984375
-0.00146484375
-0.0069580078125
0.0069580078125
-0.0025634765625
0.00732421875
0.002197265625
0.0018310546875
-0.0003662109375
-0.0003662109375
0.0003662109375
-0.00146484375
0.00146484375
-0.0025634765625
-0.00146484375
-0.0025634765625
-0.01025390625
-0.006591796875
0.0003662109375
0.0003662109375
0.00732421875
0.00439453125
0.003662109375
0.0010986328125
0.005859375
-0.00439453125
-0.0087890625
-0.0318603515625
0.0142822265625
0.009521484375
0.0303955078125
0.0322265625
-0.0157470703125
-0.0047607421875
-0.024169921875
-0.00439453125
-0.0029296875
-0.008056640625
-0.00146484375
-0.01025390625
-0.00732421875
-0.0032958984375
-0.0062255859375
0.0018310546875
0.0018310546875
0.0047607421875
0.0076904296875
0.0054931640625
0.0047607421875
-0.00146484375
0.00146484375
-0.0018310546875
0.0
-0.002197265625
-0.000732421875
-0.0025634765625
-0.003662109375
-0.0010986328125
-0.0098876953125
-0.0018310546875
0.00146484375
0.0025634765625
0.010986328125
0.00732421875
0.0076904296875
0.005859375
0.0032958984375
-0.0208740234375
-0.0076904296875
-0.0157470703125
0.032958984375
0.0230712890625
0.0142822265625
0.0172119140625
-0.0369873046875
0.00146484375
-0.0135498046875
0.0018310546875
-0.0054931640625
0.00146484375
-0.0087890625
0.00146484375
-0.0128173828125
0.0047607421875
-0.0091552734375
0.0087890625
0.000732421875
0.0142822265625
0.0120849609375
0.0120849609375
0.0069580078125
0.0069580078125
0.002197265625
0.00732421875
0.0025634765625
0.013916015625
0.0
0.01025390625
0.00732421875
0.006591796875
0.0087890625
0.0076904296875
0.0054931640625
0.003662109375
0.024169921875
0.0032958984375
0.018310546875
0.0069580078125
-0.017578125
-0.0205078125
-0.0201416015625
-0.006591796875
0.009521484375
0.03369140625
0.0325927734375
0.0062255859375
0.025634765625
-0.01025390625
-0.0054931640625
-0.01318359375
-0.005126953125
-0.00146484375
0.044677734375
-0.0062255859375
0.0399169921875
-0.019775390625
0.0135498046875
-0.013916015625
-0.0029296875
0.000732421875
-0.0208740234375
0.0040283203125
-0.0032958984375
-0.010986328125
0.03955078125
-0.003662109375
0.0076904296875
0.0054931640625
-0.0289306640625
-0.0025634765625
0.04248046875
0.01025390625
0.017578125
0.0135498046875
-0.0172119140625
0.0040283203125
0.0128173828125
0.016845703125
-0.0076904296875
0.018310546875
-0.02490234375
-0.0252685546875
-0.0025634765625
0.030029296875
-0.037353515625
0.060791015625
-0.0252685546875
-0.01171875
0.018310546875
-0.0113525390625
-0.018310546875
-0.008056640625
-0.022705078125
-0.0150146484375
-0.009521484375
-0.016845703125
-0.003662109375
-0.0032958984375
-0.0205078125
0.01025390625
-0.0274658203125
0.01025390625
-0.0157470703125
-0.0003662109375
-0.0054931640625
-0.0164794921875
0.0054931640625
-0.018310546875
0.0076904296875
-0.00732421875
0.0032958984375
-0.00439453125
0.00439453125
-0.00439453125
0.00146484375
-0.0018310546875
-0.002197265625
-0.005859375
-0.002197265625
-0.00732421875
0.00439453125
0.00146484375
0.0120849609375
0.00439453125
0.00439453125
0.0010986328125
-0.0029296875
-0.05859375
-0.01171875
0.024169921875
0.0457763671875
0.09228515625
0.0084228515625
0.0084228515625
-0.047607421875
0.00146484375
0.0010986328125
0.0018310546875
0.0054931640625
-0.005859375
0.006591796875
-0.0018310546875
-0.00732421875
0.0186767578125
-0.0146484375
0.0333251953125
-0.006591796875
0.0194091796875
0.0025634765625
0.013580322265625
0.0032958984375
0.023468017578125
-0.0113525390625
0.005126953125
-0.0003662109375
0.0
0.0142822265625
0.0120849609375
-0.0091552734375
0.0054931640625
-0.01611328125
0.0003662109375
0.005859375
0.000732421875
0.0205078125
-0.015380859375
0.0106201171875
-0.0234375
-0.0029296875
-0.067779541015625
-0.0032958984375
-0.00439453125
0.06005859375
0.057891845703125
0.0032958984375
0.0289306640625
-0.053466796875
0.0421142578125
-0.0076904296875
-0.0040283203125
-0.0135498046875
-0.0450439453125
-0.0179443359375
-0.050201416015625
-0.0274658203125
-0.031890869140625
-0.018310546875
-0.018310546875
-0.0029296875
-0.02197265625
0.0296630859375
-0.0208740234375
-0.0029296875
-0.0487060546875
-0.002197265625
-0.0772705078125
0.044677734375
-0.054931640625
0.040283203125
-0.027099609375
-0.0238037109375
-0.0435791015625
0.0025634765625
-0.04541015625
0.0853271484375
-0.005859375
0.0120849609375
-0.0010986328125
-0.03515625
-0.0787353515625
0.0194091796875
0.0234375
0.032958984375
0.08349609375
-0.012451171875
-0.002197265625
-0.013916015625
0.0234375
-0.0040283203125
0.0018310546875
0.016845703125
0.00146484375
0.043212890625
-0.002197265625
0.0450439453125
-0.0003662109375
0.031494140625
0.0362548828125
0.031494140625
0.0091552734375
0.0
-0.0223388671875
0.022705078125
-0.01318359375
0.064849853515625
0.00732421875
-0.0216064453125
0.016845703125
-0.057891845703125
0.0113525390625
-0.0230712890625
0.0010986328125
0.0252685546875
0.0113525390625
0.0399169921875
0.0164794921875
0.0040283203125
0.008056640625
-0.01171875
0.0135498046875
-0.016845703125
0.008056640625
0.0003662109375
-0.04833984375
-0.01904296875
0.03515625
0.042510986328125
0.0560302734375
0.0384521484375
-0.019775390625
-0.041778564453125
0.0069580078125
-0.0091552734375
-0.0032958984375
-0.0084228515625
-0.0069580078125
-0.01025390625
-0.002197265625
-0.0113525390625
0.006591796875
-0.0098876953125
0.0040283203125
-0.0260009765625
0.0025634765625
-0.04833984375
0.0087890625
0.0010986328125
0.0106201171875
0.0618896484375
0.0040283203125
0.0479736328125
0.008056640625
0.013916015625
0.0040283203125
0.008056640625
0.00146484375
-0.0003662109375
0.006591796875
-0.0150146484375
-0.0146484375
0.019073486328125
-0.0205078125
0.0194091796875
-0.0084228515625
0.0135498046875
-0.0684814453125
-0.01904296875
0.0303955078125
-0.0010986328125
0.0640869140625
0.089752197265625
-0.0318603515625
0.099609375
-0.01025390625
0.0618896484375
-0.0223388671875
0.009521484375
-0.029296875
-0.0047607421875
-0.0150146484375
-0.0205078125
0.00732421875
-0.038818359375
0.0069580078125
-0.0439453125
0.00439453125
-0.0208740234375
0.008056640625
-0.0084228515625
0.01171875
-0.052001953125
0.005126953125
-0.0450439453125
0.0076904296875
-0.016143798828125
0.0084228515625
-0.019439697265625
-0.005859375
0.012115478515625
-0.0047607421875
0.027130126953125
-0.0003662109375
0.06298828125
0.00146484375
0.097412109375
0.00146484375
0.0443115234375
-0.0377197265625
-0.0054931640625
0.0369873046875
0.03662109375
0.0626220703125
0.024169921875
-0.02783203125
-0.01611328125
-0.03369140625
-0.01904296875
0.0069580078125
-0.047607421875
0.0260009765625
-0.0303955078125
0.003662109375
0.0091552734375
-0.009521484375
0.0728759765625
-0.009521484375
0.079833984375
0.0150146484375
0.0230712890625
0.0025634765625
0.0230712890625
-0.01611328125
0.0076904296875
-0.0091552734375
-0.0322265625
-0.022705078125
-0.0252685546875
-0.0142822265625
-0.03369140625
0.008056640625
-0.049072265625
-0.0084228515625
-0.037353515625
-0.00439453125
-0.029296875
0.005859375
-0.027099609375
0.00439453125
-0.0230712890625
-0.0626220703125
-0.0509033203125
0.032958984375
0.00732421875
0.1124267578125
-0.0098876953125
-0.01318359375
-0.083160400390625
-0.03955078125
-0.0069580078125
-0.0135498046875
-0.0091552734375
0.0062255859375
-0.021270751953125
-0.0062255859375
0.0018310546875
-0.0172119140625
-0.0816650390625
-0.0069580078125
-0.0662841796875
0.018310546875
0.09375
0.0098876953125
0.125274658203125
-0.010986328125
0.047637939453125
-0.0146484375
-0.0029296875
-0.009521484375
-0.0201416015625
0.005859375
-0.01318359375
0.0029296875
0.0677490234375
0.00439453125
0.1300048828125
0.0010986328125
0.1728515625
-0.005859375
0.178741455078125
0.003662109375
0.104766845703125
-0.054931640625
-0.003662109375
0.017578125
0.0172119140625
0.0736083984375
0.005859375
-0.0003662109375
-0.076904296875
0.00732421875
-0.052032470703125
0.00732421875
-0.045440673828125
0.0
-0.040283203125
-0.0113525390625
-0.041015625
0.0018310546875
-0.0487060546875
0.02197265625
-0.034423828125
0.022705078125
-0.0157470703125
0.0150146484375
-0.012451171875
0.006591796875
-0.01171875
0.0120849609375
-0.0670166015625
-0.0032958984375
-0.0714111328125
-0.010986328125
0.002197265625
-0.005126953125
0.0245361328125
-0.0003662109375
0.0223388671875
0.0018310546875
0.1614990234375
-0.013916015625
0.47064208984375
-0.0823974609375
0.33074951171875
0.032958984375
0.006591796875
0.0728759765625
0.0003662109375
-0.046142578125
0.0
-0.021240234375
0.0
-0.017578125
0.0
-0.0146484375
-0.0069580078125
-0.0172119140625
-0.059356689453125
-0.0087890625
-0.109893798828125
0.00146484375
-0.0882568359375
0.002197265625
-0.0640869140625
0.010986328125
-0.0780029296875
0.006591796875
-0.078369140625
-0.000732421875
-0.072509765625
0.0135498046875
-0.101470947265625
-0.005126953125
-0.098541259765625
-0.0076904296875
-0.071044921875
0.0216064453125
-0.0750732421875
0.0076904296875
-0.069580078125
-0.00146484375
-0.060791015625
-0.0457763671875
-0.137725830078125
0.05419921875
-0.183502197265625
0.1201171875
-0.216064453125
0.03076171875
-0.310577392578125
0.025634765625
-0.158599853515625
0.01611328125
0.0615234375
0.005859375
0.09521484375
-0.00732421875
0.181304931640625
0.002197265625
0.169952392578125
0.021240234375
0.066650390625
0.0179443359375
-0.043212890625
-0.000732421875
-0.1435546875
-0.012451171875
-0.0765380859375
0.0113525390625
-0.022705078125
0.01171875
-0.0186767578125
-0.0098876953125
-0.019805908203125
-0.0047607421875
-0.028594970703125
-0.005859375
-0.04248046875
-0.0128173828125
-0.0908203125
-0.059326171875
-0.126708984375
0.0032958984375
0.0
0.032958984375
0.239898681640625
-0.0472412109375
0.269561767578125
-0.064453125
0.1717529296875
-0.1219482421875
-0.0087890625
-0.12890625
-0.087158203125
-0.069580078125
0.1182861328125
-0.0150146484375
0.199249267578125
0.010986328125
0.156768798828125
0.0303955078125
0.043212890625
0.0303955078125
-0.057861328125
0.008056640625
-0.04541015625
-0.005859375
-0.03515625
-0.0113525390625
-0.01904296875
-0.0018310546875
-0.049468994140625
0.0135498046875
-0.0347900390625
0.0318603515625
0.109161376953125
0.0252685546875
0.1219482421875
-0.0029296875
0.09521484375
-0.064453125
0.0802001953125
0.0311279296875
0.072509765625
0.0955810546875
0.0238037109375
0.0205078125
-0.0736083984375
0.0234375
-0.0648193359375
0.016845703125
-0.0574951171875
0.0157470703125
-0.0618896484375
0.00146484375
-0.073974609375
-0.0509033203125
-0.073974609375
-0.0076904296875
-0.084259033203125
0.046875
-0.079864501953125
0.00732421875
-0.064453125
-0.0128173828125
-0.0615234375
-0.01025390625
-0.06591796875
-0.0106201171875
-0.05859375
-0.0135498046875
-0.046875
-0.005126953125
-0.043212890625
-0.005126953125
-0.035888671875
-0.07177734375
-0.0450439453125
0.024169921875
-0.034423828125
0.071044921875
-0.048004150390625
-0.0223388671875
-0.061553955078125
-0.0069580078125
-0.03515625
-0.013916015625
-0.0318603515625
-0.0216064453125
-0.02490234375
-0.0194091796875
-0.0208740234375
-0.0113525390625
-0.0281982421875
0.00732421875
-0.0322265625
0.0146484375
-0.0234375
0.0062255859375
-0.018310546875
-0.002197265625
-0.018310546875
-0.008056640625
-0.016845703125
-0.006591796875
-0.016845703125
-0.0018310546875
-0.0040283203125
0.005859375
0.00732421875
0.009521484375
0.0029296875
0.0032958984375
-0.0047607421875
-0.0721435546875
-0.0029296875
-0.0069580078125
0.0340576171875
0.057861328125
-0.0032958984375
-0.005126953125
-0.0369873046875
-0.0003662109375
-0.002197265625
-0.005126953125
0.0029296875
-0.008056640625
0.002197265625
-0.0076904296875
-0.005126953125
-0.00146484375
-0.005859375
0.006591796875
-0.0025634765625
0.0087890625
0.0062255859375
0.005859375
0.01171875
-0.002197265625
0.0062255859375
-0.005126953125
-0.0062255859375
-0.00732421875
-0.0029296875
0.0
0.005126953125
0.0047607421875
0.0084228515625
0.0029296875
0.00732421875
-0.022705078125
0.0032958984375
-0.003662109375
0.0238037109375
0.0252685546875
0.0172119140625
-0.0029296875
-0.0098876953125
-0.0087890625
-0.0029296875
-0.006591796875
0.005859375
-0.009521484375
0.0
-0.009521484375
-0.0032958984375
-0.00439453125
0.0025634765625
-0.003662109375
0.0106201171875
0.0029296875
0.0157470703125
0.009521484375
0.0135498046875
0.002197265625
0.0076904296875
-0.000732421875
-0.0062255859375
-0.00146484375
-0.005859375
-0.0010986328125
0.0146484375
0.0091552734375
0.01904296875
0.005859375
0.0091552734375
0.0018310546875
0.0128173828125
-0.0633544921875
-0.0003662109375
0.0084228515625
0.0413818359375
0.0721435546875
0.01318359375
-0.0029296875
-0.0362548828125
0.0025634765625
0.0029296875
0.000732421875
-0.000732421875
-0.0010986328125
-0.0029296875
-0.0010986328125
-0.0032958984375
0.0032958984375
0.0025634765625
0.01025390625
0.0120849609375
0.013916015625
0.0120849609375
0.0084228515625
0.0054931640625
0.003662109375
-0.0029296875
0.0029296875
-0.0084228515625
0.003662109375
0.00732421875
0.0135498046875
0.0164794921875
0.01318359375
0.01611328125
0.005126953125
0.0267333984375
-0.0640869140625
0.016845703125
0.01611328125
0.044342041015625
0.0655517578125
-0.0146484375
-0.018310546875
-0.064117431640625
-0.0029296875
-0.008056640625
-0.005126953125
0.005126953125
-0.005126953125
0.0106201171875
-0.0032958984375
0.005859375
-0.002197265625
0.0010986328125
0.0091552734375
-0.0025634765625
0.0135498046875
0.0040283203125
0.008056640625
0.005859375
0.0040283203125
-0.0025634765625
0.003662109375
-0.0076904296875
0.00146484375
0.0069580078125
0.0029296875
0.0164794921875
0.0084228515625
0.005859375
0.00146484375
0.010986328125
-0.0655517578125
0.0120849609375
0.0252685546875
0.037017822265625
0.076904296875
-0.00732421875
-0.0098876953125
-0.043975830078125
0.00146484375
-0.005126953125
0.0076904296875
-0.0047607421875
0.0032958984375
0.003662109375
-0.0047607421875
0.0040283203125
0.0084228515625
-0.0091552734375
0.0208740234375
-0.0040283203125
0.021240234375
0.0098876953125
0.01611328125
0.0032958984375
0.0062255859375
0.000732421875
0.005859375
-0.0032958984375
0.0054931640625
-0.002197265625
0.0054931640625
0.01171875
0.01318359375
0.0120849609375
0.01025390625
0.0087890625
-0.0516357421875
0.0032958984375
0.017578125
0.039215087890625
0.0556640625
0.0
-0.022705078125
-0.043243408203125
-0.0120849609375
-0.0047607421875
-0.0113525390625
-0.00146484375
-0.009521484375
-0.0018310546875
-0.01025390625
-0.0010986328125
-0.006591796875
0.0
-0.0003662109375
0.0003662109375
-0.0003662109375
0.005126953125
-0.00146484375
0.0018310546875
-0.010986328125
-0.0040283203125
-0.012451171875
-0.00732421875
-0.012451171875
0.00146484375
-0.009521484375
0.009521484375
-0.003662109375
0.0128173828125
-0.0106201171875
0.01025390625
-0.0509033203125
0.000732421875
0.0025634765625
0.034820556640625
0.0274658203125
0.005157470703125
-0.0281982421875
-0.034088134765625
-0.0150146484375
-0.006622314453125
-0.01025390625
-0.000732421875
-0.0135498046875
0.0003662109375
-0.0142822265625
-0.0003662109375
-0.008056640625
0.0003662109375
0.0003662109375
0.0032958984375
0.0032958984375
0.011383056640625
0.0054931640625
0.009185791015625
0.006591796875
0.0
0.0029296875
-0.0054931640625
0.00439453125
-0.0040283203125
0.006591796875
0.0084228515625
0.009521484375
0.0164794921875
0.008056640625
0.0076904296875
0.0010986328125
-0.0018310546875
-0.02197265625
0.02490234375
0.005126953125
0.0216064453125
0.024169921875
-0.0205078125
-0.002197265625
-0.0157470703125
0.0003662109375
-0.0025634765625
-0.005126953125
-0.0040283203125
-0.008056640625
-0.0032958984375
0.0010986328125
-0.00439453125
0.0084228515625
-0.0010986328125
0.0091552734375
0.0062255859375
0.00439453125
0.0084228515625
0.003662109375
0.002197265625
0.0018310546875
-0.008056640625
-0.0010986328125
-0.0120849609375
0.000732421875
0.0047607421875
0.0040283203125
0.0164794921875
0.003662109375
0.0091552734375
0.0
0.01318359375
-0.07470703125
-0.003662109375
0.0091552734375
0.0421142578125
0.0772705078125
0.006591796875
-0.0054931640625
-0.0501708984375
0.0025634765625
-0.00146484375
0.0032958984375
-0.0003662109375
-0.0003662109375
-0.0018310546875
-0.002197265625
-0.0010986328125
0.006591796875
0.0040283203125
0.01904296875
0.0098876953125
0.0223388671875
0.0113525390625
0.0201416015625
0.0032958984375
0.017578125
0.0
0.0142822265625
-0.003662109375
0.0076904296875
0.0010986328125
0.0069580078125
0.0087890625
-0.012451171875
0.00732421875
-0.0238037109375
0.008056640625
-0.02197265625
-0.00732421875
-0.008056640625
0.017578125
0.02490234375
0.0274658203125
0.0172119140625
-0.013916015625
0.00732421875
-0.0120849609375
0.0084228515625
0.002197265625
-0.01025390625
0.00439453125
-0.01171875
0.002197265625
-0.000732421875
-0.0062255859375
0.01318359375
-0.0084228515625
0.03076171875
0.0047607421875
0.024169921875
0.0106201171875
0.0113525390625
0.00146484375
0.01025390625
0.03076171875
0.01318359375
0.076904296875
0.008056640625
0.0860595703125
0.0146484375
0.062255859375
0.0234375
0.02783203125
0.01025390625
0.016845703125
-0.06298828125
0.01318359375
0.031524658203125
0.04248046875
0.100738525390625
-0.0087890625
0.0186767578125
-0.0552978515625
0.0322265625
-0.013916015625
0.029296875
-0.00732421875
0.0179443359375
-0.0010986328125
0.01611328125
-0.0069580078125
0.0157470703125
-0.01025390625
0.0260009765625
-0.01904296875
0.032958984375
-0.0084228515625
0.024169921875
0.0003662109375
0.008056640625
-0.01611328125
0.01025390625
-0.0208740234375
0.0018310546875
-0.01171875
-0.015380859375
-0.000732421875
-0.0003662109375
0.00146484375
-0.012451171875
0.000732421875
-0.0362548828125
-0.017578125
-0.0498046875
0.0120849609375
-0.0201416015625
0.0216064453125
0.0135498046875
-0.0267333984375
-0.0084228515625
-0.0260009765625
-0.041015625
-0.0091552734375
-0.062255859375
-0.0076904296875
-0.049102783203125
-0.0120849609375
-0.038848876953125
-0.01318359375
-0.06005859375
-0.0087890625
-0.0611572265625
0.00146484375
-0.0450439453125
0.0010986328125
-0.044677734375
-0.002197265625
-0.0377197265625
-0.0040283203125
-0.03515625
-0.015380859375
-0.035888671875
-0.0098876953125
-0.0274658203125
0.0069580078125
-0.019775390625
0.01025390625
-0.01904296875
0.003662109375
-0.05712890625
-0.0029296875
0.0054931640625
0.0439453125
0.034423828125
-0.00146484375
-0.0179443359375
-0.053466796875
-0.003662109375
-0.0087890625
-0.0062255859375
-0.0069580078125
-0.008056640625
-0.0091552734375
-0.0142822265625
-0.00732421875
-0.010986328125
-0.00439453125
0.0032958984375
-0.0054931640625
0.00732421875
0.0029296875
0.0010986328125
0.00732421875
0.0
-0.0018310546875
0.000732421875
-0.0054931640625
-0.0010986328125
-0.009521484375
-0.0032958984375
-0.006591796875
0.0025634765625
0.0054931640625
0.005859375
0.010986328125
0.002197265625
0.006591796875
0.0091552734375
-0.0087890625
-0.053863525390625
0.0150146484375
0.0010986328125
0.034423828125
0.060455322265625
-0.0135498046875
-0.0003662109375
-0.0263671875
0.0087890625
-0.0018310546875
0.0087890625
0.0040283203125
-0.005126953125
-0.00146484375
-0.0091552734375
-0.0128173828125
-0.000732421875
-0.0091552734375
0.005126953125
0.0029296875
0.008056640625
0.0025634765625
0.0084228515625
-0.00439453125
0.0062255859375
-0.0025634765625
0.0069580078125
-0.0040283203125
0.0084228515625
-0.010986328125
0.0047607421875
-0.000732421875
0.005126953125
0.010986328125
0.005859375
0.0128173828125
0.0018310546875
0.00732421875
-0.0194091796875
-0.00439453125
-0.013916015625
0.0391845703125
0.0252685546875
0.0128173828125
0.0186767578125
-0.0340576171875
-0.0032958984375
0.0
-0.005126953125
0.006591796875
-0.0054931640625
0.0010986328125
-0.0098876953125
0.0003662109375
-0.0120849609375
0.0025634765625
-0.0076904296875
0.0062255859375
-0.00439453125
0.015380859375
-0.0025634765625
0.0120849609375
0.006591796875
-0.00439453125
0.01171875
-0.0084228515625
0.008056640625
-0.0054931640625
0.0040283203125
-0.005126953125
-0.0040283203125
0.005126953125
0.00146484375
0.0106201171875
0.0076904296875
0.006591796875
0.0069580078125
-0.0040283203125
-0.0281982421875
-0.005859375
0.0201416015625
0.019775390625
0.052734375
0.0091552734375
0.005126953125
-0.02197265625
0.008056640625
-0.0084228515625
0.003662109375
-0.00439453125
0.002197265625
-0.0054931640625
-0.0018310546875
0.0054931640625
0.00146484375
-0.0040283203125
0.0135498046875
-0.01318359375
0.019775390625
0.0
0.013916015625
0.005859375
0.0087890625
-0.0003662109375
0.0076904296875
-0.0025634765625
0.006591796875
-0.0040283203125
0.010986328125
-0.0128173828125
0.0106201171875
0.00146484375
0.0135498046875
0.0208740234375
0.0205078125
0.0040283203125
0.0157470703125
0.0025634765625
-0.052734375
0.0146484375
0.02783203125
0.04833984375
0.0860595703125
-0.0146484375
0.0091552734375
-0.053466796875
0.01904296875
0.0029296875
0.009521484375
0.0003662109375
0.0018310546875
0.00146484375
0.0142822265625
-0.00439453125
0.0263671875
-0.0146484375
0.034454345703125
-0.000732421875
0.025299072265625
0.0106201171875
0.0025634765625
0.002197265625
-0.012115478515625
-0.0054931640625
-0.014678955078125
-0.008056640625
-0.0150146484375
-0.0098876953125
-0.0146484375
-0.0018310546875
-0.017578125
0.005859375
-0.0252685546875
0.01025390625
-0.02197265625
0.0076904296875
-0.049072265625
-0.005859375
-0.0421142578125
0.0391845703125
-0.005126953125
0.0186767578125
-0.0091552734375
-0.0377197265625
-0.0172119140625
-0.01611328125
-0.021240234375
-0.0047607421875
-0.01904296875
-0.0025634765625
-0.0223388671875
-0.003662109375
-0.0172119140625
-0.00439453125
-0.0069580078125
0.000732421875
-0.0040283203125
0.0054931640625
-0.0047607421875
0.0040283203125
-0.0106201171875
0.0025634765625
-0.0106201171875
-0.002197265625
-0.009521484375
-0.0047607421875
-0.0091552734375
-0.0087890625
-0.0179443359375
0.00146484375
-0.0142822265625
0.0150146484375
-0.005859375
0.010986328125
-0.010986328125
0.0084228515625
-0.0150146484375
-0.006591796875
-0.038818359375
0.0369873046875
0.0069580078125
0.02490234375
0.0340576171875
-0.044677734375
-0.000732421875
-0.021240234375
-0.000732421875
-0.0018310546875
0.0003662109375
-0.0076904296875
0.0018310546875
-0.0113525390625
-0.000732421875
-0.0084228515625
0.005126953125
-0.00146484375
0.0113525390625
0.003662109375
0.0106201171875
0.0032958984375
0.0076904296875
-0.00146484375
0.0084228515625
-0.0062255859375
0.005126953125
-0.00732421875
0.003662109375
-0.0113525390625
0.003662109375
-0.005859375
0.00732421875
0.000732421875
0.0106201171875
0.0
0.005859375
-0.0010986328125
-0.017578125
-0.0084228515625
-0.0128173828125
0.0428466796875
0.028564453125
0.01025390625
0.0205078125
-0.043212890625
-0.0040283203125
-0.0047607421875
-0.003662109375
-0.003662109375
-0.0025634765625
-0.0025634765625
-0.0047607421875
-0.003662109375
-0.0025634765625
-0.0047607421875
0.00439453125
0.0032958984375
0.0087890625
0.01025390625
0.0098876953125
0.009521484375
0.0076904296875
0.0032958984375
0.0029296875
0.002197265625
0.0032958984375
0.00146484375
0.0040283203125
-0.0040283203125
-0.0029296875
-0.0010986328125
0.0
0.009521484375
0.0087890625
0.0172119140625
0.00439453125
0.0150146484375
0.0113525390625
-0.0157470703125
-0.07177734375
0.0128173828125
0.0062255859375
0.0509033203125
0.087890625
-0.0142822265625
0.0003662109375
-0.030029296875
0.008056640625
0.0010986328125
0.00732421875
0.000732421875
0.0032958984375
0.0018310546875
0.00439453125
-0.0047607421875
0.010986328125
-0.01025390625
0.021240234375
-0.0054931640625
0.0201416015625
0.00732421875
0.01904296875
0.0047607421875
0.0135498046875
-0.0087890625
0.00439453125
-0.0010986328125
0.0084228515625
-0.0010986328125
0.005126953125
-0.0047607421875
0.00439453125
0.0054931640625
0.0106201171875
0.01611328125
0.013916015625
0.009521484375
0.013916015625
-0.0069580078125
-0.065185546875
0.00732421875
0.00439453125
0.0501708984375
0.0849609375
-0.0032958984375
0.0216064453125
-0.0421142578125
0.0245361328125
-0.000732421875
0.021270751953125
-0.0010986328125
0.019805908203125
0.002197265625
0.021240234375
0.0
0.015380859375
-0.0054931640625
0.02490234375
-0.00146484375
0.0179443359375
0.0
0.00732421875
0.000732421875
0.0150146484375
-0.0032958984375
0.000732421875
-0.005859375
-0.013916015625
-0.0069580078125
-0.0325927734375
-0.0087890625
-0.047637939453125
0.0032958984375
-0.039947509765625
0.010986328125
-0.0311279296875
0.00439453125
-0.0260009765625
-0.0018310546875
-0.1036376953125
0.009521484375
-0.022705078125
0.0479736328125
0.0556640625
-0.0150146484375
-0.0208740234375
-0.05419921875
-0.0281982421875
-0.0040283203125
-0.0380859375
-0.00146484375
-0.0347900390625
-0.0029296875
-0.029296875
-0.0069580078125
-0.0201416015625
-0.0054931640625
-0.0087890625
0.0
-0.00732421875
0.003662109375
-0.01025390625
0.0029296875
-0.006591796875
0.0010986328125
-0.0084228515625
0.0003662109375
-0.0069580078125
-0.0084228515625
-0.0076904296875
-0.0098876953125
-0.0091552734375
0.0076904296875
-0.0025634765625
0.010986328125
-0.0003662109375
0.005859375
0.0040283203125
-0.00146484375
-0.078369140625
0.0128173828125
0.000732421875
0.041015625
0.076171875
-0.0146484375
-0.0076904296875
-0.038818359375
-0.0029296875
-0.0025634765625
-0.0062255859375
-0.0032958984375
-0.0076904296875
-0.003662109375
-0.009521484375
-0.0025634765625
-0.003662109375
0.0003662109375
0.0054931640625
0.0047607421875
0.0069580078125
0.008056640625
0.0018310546875
0.0010986328125
-0.0010986328125
0.000732421875
0.0
0.0
0.002197265625
-0.0120849609375
0.0010986328125
-0.0040283203125
0.0029296875
0.008056640625
0.0084228515625
0.01171875
0.0091552734375
0.0087890625
0.01171875
-0.0084228515625
-0.0516357421875
0.0267333984375
0.005859375
0.0281982421875
0.0648193359375
-0.0263671875
0.00146484375
-0.0172119140625
0.00732421875
-0.002197265625
0.00146484375
0.0010986328125
-0.0062255859375
0.0032958984375
0.0
-0.0029296875
0.006591796875
-0.003662109375
0.010986328125
0.006591796875
0.009521484375
0.0098876953125
0.0054931640625
0.00146484375
0.003662109375
-0.0018310546875
0.0054931640625
-0.00439453125
0.005859375
-0.008056640625
0.0003662109375
0.0047607421875
0.0087890625
0.008056640625
0.012451171875
0.0047607421875
0.0076904296875
0.003662109375
-0.0054931640625
-0.0106201171875
-0.0179443359375
0.0340576171875
0.01904296875
0.0230712890625
0.0260009765625
-0.0263671875
0.0018310546875
-0.012451171875
-0.0003662109375
-0.002197265625
-0.0010986328125
0.00439453125
-0.0040283203125
0.0
-0.0032958984375
-0.005859375
0.006591796875
-0.006591796875
0.0135498046875
-0.000732421875
0.0128173828125
0.005126953125
0.0076904296875
0.002197265625
0.0091552734375
-0.0047607421875
0.0113525390625
-0.0069580078125
0.0106201171875
-0.0040283203125
0.008056640625
0.00146484375
0.01171875
0.012451171875
0.0194091796875
0.0120849609375
0.0223388671875
0.005859375
-0.00732421875
0.0032958984375
0.0391845703125
0.03662109375
0.077667236328125
0.0032958984375
0.041778564453125
-0.040283203125
0.0157470703125
-0.0087890625
-0.021240234375
-0.00146484375
-0.018707275390625
0.0025634765625
-0.011016845703125
-0.000732421875
-0.01171875
-0.008056640625
-0.0087890625
-0.0087890625
-0.0047607421875
0.00146484375
-0.0054931640625
0.005126953125
-0.013916015625
-0.0003662109375
-0.0172119140625
0.0
-0.0223388671875
-0.0040283203125
-0.021240234375
-0.01025390625
-0.0194091796875
0.0018310546875
-0.0172119140625
0.01025390625
-0.013916015625
0.0062255859375
-0.016845703125
0.000732421875
-0.0615234375
0.0025634765625
0.0025634765625
0.0523681640625
0.034423828125
-0.0025634765625
-0.03369140625
-0.0516357421875
-0.021240234375
-0.00439453125
-0.017578125
-0.002197265625
-0.016845703125
-0.0032958984375
-0.015380859375
-0.00732421875
-0.01318359375
-0.0029296875
-0.006591796875
0.00439453125
-0.0025634765625
0.009521484375
-0.0062255859375
0.008056640625
-0.0076904296875
0.00146484375
-0.005859375
-0.00146484375
-0.006591796875
-0.006591796875
-0.0076904296875
-0.010986328125
-0.0047607421875
0.005859375
0.0
0.0150146484375
0.0032958984375
0.0087890625
0.0003662109375
0.003662109375
-0.050537109375
-0.0003662109375
0.0194091796875
0.0596923828125
0.0531005859375
-0.00146484375
-0.017578125
-0.0618896484375
-0.0003662109375
-0.0040283203125
0.0029296875
-0.0029296875
-0.0018310546875
-0.006591796875
-0.0029296875
-0.006591796875
-0.0025634765625
-0.00146484375
-0.002197265625
0.005859375
0.00439453125
0.0113525390625
0.006591796875
0.0047607421875
0.0040283203125
-0.0018310546875
-0.0018310546875
-0.0040283203125
-0.0025634765625
-0.0069580078125
0.0
-0.0106201171875
0.002197265625
0.0069580078125
0.006591796875
0.016845703125
0.005126953125
0.00439453125
0.0010986328125
0.005126953125
-0.060791015625
0.0032958984375
0.0245361328125
0.054931640625
0.069580078125
-0.005859375
-0.012451171875
-0.066650390625
0.005126953125
-0.0054931640625
0.0025634765625
-0.0010986328125
-0.0018310546875
-0.0018310546875
-0.0018310546875
-0.0018310546875
0.0010986328125
-0.005859375
0.0054931640625
-0.0029296875
0.01025390625
0.0054931640625
0.010986328125
0.0003662109375
0.010986328125
-0.002197265625
0.008056640625
-0.0032958984375
0.0054931640625
-0.005859375
0.003662109375
-0.0091552734375
0.002197265625
0.003662109375
0.0040283203125
0.0106201171875
0.00439453125
-0.003662109375
-0.000732421875
0.008056640625
-0.0706787109375
0.0054931640625
0.024169921875
0.03662109375
0.079833984375
0.000732421875
-0.0157470703125
-0.044677734375
-0.0029296875
-0.0025634765625
-0.0029296875
-0.0029296875
-0.0076904296875
0.000732421875
-0.009521484375
0.00146484375
-0.005126953125
-0.0076904296875
0.0054931640625
-0.005859375
0.0106201171875
0.005126953125
0.005859375
0.0047607421875
-0.0003662109375
-0.0029296875
-0.0029296875
-0.0029296875
-0.0010986328125
-0.0054931640625
-0.0010986328125
-0.0076904296875
-0.0003662109375
0.00439453125
0.005126953125
0.01318359375
0.0062255859375
0.006591796875
0.0
0.006591796875
-0.072509765625
0.0142822265625
0.0106201171875
0.04248046875
0.0750732421875
-0.0135498046875
-0.0076904296875
-0.0487060546875
-0.003662109375
-0.003662109375
-0.00439453125
-0.002197265625
-0.0069580078125
0.0010986328125
-0.0084228515625
-0.00146484375
-0.003662109375
-0.00732421875
0.00146484375
-0.0003662109375
0.0032958984375
0.003662109375
0.0010986328125
0.0003662109375
-0.0069580078125
0.0
-0.0087890625
-0.0047607421875
-0.005126953125
-0.009521484375
-0.00732421875
-0.000732421875
0.0010986328125
0.01025390625
0.006591796875
0.0087890625
0.0025634765625
0.00439453125
-0.024169921875
-0.0054931640625
0.0018310546875
0.0318603515625
0.029296875
0.0098876953125
0.0010986328125
-0.03662109375
0.0
-0.0113525390625
-0.00439453125
-0.002197265625
-0.0076904296875
-0.0032958984375
-0.0040283203125
-0.006591796875
-0.002197265625
-0.0029296875
-0.0029296875
0.0025634765625
0.002197265625
0.0062255859375
0.00146484375
0.0047607421875
-0.0032958984375
0.0010986328125
-0.0003662109375
0.0
-0.000732421875
-0.005859375
-0.00439453125
-0.0091552734375
-0.002197265625
0.008056640625
0.005859375
0.017578125
0.00732421875
0.006591796875
0.0
0.01025390625
-0.075439453125
-0.00146484375
0.0146484375
0.0531005859375
0.08056640625
0.002197265625
-0.009521484375
-0.0618896484375
0.0
0.0003662109375
0.0
-0.0029296875
-0.002197265625
-0.0069580078125
-0.002197265625
-0.0098876953125
-0.0040283203125
-0.0047607421875
0.000732421875
0.005859375
0.005126953125
0.006591796875
0.005126953125
0.0018310546875
-0.000732421875
-0.000732421875
-0.0029296875
-0.0047607421875
0.000732421875
-0.0098876953125
-0.0029296875
0.002197265625
0.0032958984375
0.0106201171875
0.006591796875
0.006591796875
0.0010986328125
0.0054931640625
-0.002197265625
-0.00732421875
-0.0234375
0.03076171875
0.0106201171875
0.0230712890625
0.0311279296875
-0.0303955078125
-0.0018310546875
-0.013916015625
-0.000732421875
-0.00146484375
-0.00146484375
0.0003662109375
-0.0106201171875
-0.002197265625
-0.0069580078125
-0.003662109375
0.0018310546875
-0.0029296875
0.0069580078125
-0.0010986328125
0.009521484375
0.00439453125
0.0069580078125
0.0003662109375
0.002197265625
-0.0010986328125
-0.000732421875
-0.000732421875
0.0
-0.0084228515625
0.0003662109375
0.0032958984375
0.005126953125
0.01318359375
0.0062255859375
0.0032958984375
-0.00146484375
0.0113525390625
-0.071044921875
0.01171875
0.0234375
0.0369873046875
0.0765380859375
-0.006591796875
-0.015380859375
-0.0439453125
-0.000732421875
-0.0029296875
-0.006591796875
0.0018310546875
-0.008056640625
-0.0003662109375
-0.008056640625
-0.00439453125
-0.0054931640625
-0.003662109375
0.00732421875
-0.005126953125
0.008056640625
0.0010986328125
0.00439453125
0.00439453125
0.0
-0.0047607421875
-0.002197265625
-0.008056640625
0.000732421875
-0.005126953125
-0.003662109375
0.005126953125
0.0047607421875
0.0062255859375
0.01025390625
0.0054931640625
0.0032958984375
0.009521484375
-0.00146484375
-0.0128173828125
-0.0205078125
0.003662109375
0.01171875
0.0325927734375
0.024169921875
-0.0076904296875
-0.00732421875
-0.0223388671875
-0.0047607421875
-0.0010986328125
-0.00439453125
-0.00439453125
-0.008056640625
-0.0047607421875
-0.006591796875
-0.0029296875
0.0
-0.006591796875
0.0025634765625
-0.0025634765625
0.0018310546875
0.0047607421875
-0.0032958984375
0.0032958984375
-0.006591796875
0.0
-0.0040283203125
-0.0084228515625
-0.0025634765625
-0.0113525390625
-0.0003662109375
0.005126953125
0.0032958984375
0.0142822265625
0.00146484375
0.005859375
-0.003662109375
0.0087890625
-0.08203125
0.0091552734375
0.0087890625
0.0443115234375
0.0823974609375
-0.012451171875
-0.008056640625
-0.0582275390625
-0.00439453125
-0.0040283203125
-0.003662109375
-0.00146484375
-0.0069580078125
-0.00146484375
-0.0098876953125
-0.00439453125
-0.006591796875
-0.0029296875
-0.0018310546875
0.003662109375
0.00146484375
0.00439453125
0.0
0.0010986328125
-0.003662109375
-0.000732421875
-0.0025634765625
-0.006591796875
-0.0025634765625
-0.01025390625
-0.005859375
0.0047607421875
-0.0010986328125
0.0128173828125
0.0032958984375
0.0069580078125
-0.0003662109375
0.0025634765625
-0.03662109375
0.000732421875
0.0106201171875
0.0413818359375
0.0380859375
-0.0010986328125
-0.0091552734375
-0.043212890625
-0.0018310546875
-0.0040283203125
-0.0025634765625
-0.0018310546875
-0.005126953125
-0.0032958984375
-0.005859375
-0.00732421875
-0.0047607421875
-0.00439453125
-0.002197265625
0.0047607421875
0.0032958984375
0.008056640625
0.0029296875
0.005859375
0.0
0.002197265625
0.000732421875
-0.002197265625
-0.000732421875
-0.0087890625
-0.0040283203125
-0.0076904296875
-0.00146484375
0.0062255859375
0.0040283203125
0.0128173828125
0.0040283203125
0.0069580078125
0.0025634765625
0.01171875
-0.0787353515625
-0.003662109375
0.010986328125
0.0406494140625
0.0860595703125
0.003662109375
-0.0069580078125
-0.0509033203125
-0.00146484375
-0.0018310546875
-0.002197265625
-0.003662109375
-0.0047607421875
-0.0054931640625
-0.0025634765625
-0.006591796875
0.000732421875
-0.00146484375
0.0047607421875
0.0069580078125
0.0076904296875
0.0091552734375
0.0029296875
0.003662109375
-0.0010986328125
0.0003662109375
0.0010986328125
-0.0003662109375
0.000732421875
-0.0069580078125
-0.0018310546875
-0.003662109375
0.0040283203125
0.00732421875
0.005859375
0.0135498046875
0.003662109375
0.0032958984375
0.0087890625
-0.0142822265625
-0.0516357421875
0.009521484375
0.00732421875
0.03662109375
0.0618896484375
-0.005126953125
-0.005859375
-0.0230712890625
-0.0003662109375
0.0010986328125
-0.0003662109375
0.0003662109375
-0.0087890625
0.0025634765625
-0.005126953125
-0.0003662109375
0.005126953125
-0.0084228515625
0.0113525390625
-0.0047607421875
0.0084228515625
0.0032958984375
0.002197265625
0.005859375
-0.0010986328125
-0.00439453125
0.0010986328125
-0.0098876953125
0.002197265625
-0.005126953125
-0.00146484375
0.002197265625
0.0062255859375
0.0054931640625
0.008056640625
0.008056640625
0.002197265625
0.0054931640625
-0.0362548828125
-0.0032958984375
0.0098876953125
0.02197265625
0.0380859375
0.006591796875
-0.0098876953125
-0.021240234375
-0.0010986328125
-0.005126953125
-0.0018310546875
0.000732421875
-0.005126953125
0.0047607421875
-0.010986328125
0.0029296875
-0.0054931640625
-0.0062255859375
0.0054931640625
-0.005859375
0.0087890625
0.000732421875
0.003662109375
0.0010986328125
-0.0029296875
0.0010986328125
-0.0018310546875
-0.0029296875
-0.002197265625
-0.00732421875
-0.003662109375
-0.0098876953125
-0.002197265625
0.0029296875
0.00146484375
0.01318359375
0.0
0.00439453125
-0.005859375
0.00439453125
-0.0703125
0.0098876953125
0.016845703125
0.044677734375
0.0703125
-0.01171875
-0.015380859375
-0.053466796875
-0.0029296875
-0.0047607421875
-0.00439453125
-0.0029296875
-0.008056640625
-0.0018310546875
-0.008056640625
-0.005126953125
-0.006591796875
-0.003662109375
-0.000732421875
0.00146484375
0.00439453125
0.00439453125
0.002197265625
0.002197265625
-0.00146484375
-0.0025634765625
-0.0029296875
-0.00146484375
-0.005126953125
-0.008056640625
-0.005126953125
-0.01025390625
0.000732421875
0.0054931640625
0.0018310546875
0.013916015625
0.000732421875
0.005859375
0.0010986328125
0.0091552734375
-0.076171875
0.005859375
0.010986328125
0.046142578125
0.0831298828125
-0.0029296875
-0.0029296875
-0.0552978515625
0.0025634765625
-0.0047607421875
-0.0025634765625
-0.005126953125
-0.005859375
-0.00732421875
-0.0047607421875
-0.0062255859375
-0.003662109375
-0.000732421875
0.00439453125
0.005859375
0.005126953125
0.0084228515625
0.0003662109375
0.00146484375
-0.00146484375
-0.0025634765625
-0.0032958984375
-0.0003662109375
-0.0032958984375
-0.009521484375
-0.005859375
-0.0087890625
-0.0003662109375
0.0076904296875
0.0047607421875
0.0128173828125
0.005859375
0.0062255859375
0.0069580078125
0.0054931640625
-0.0728759765625
-0.008056640625
0.003662109375
0.0303955078125
0.0721435546875
0.0062255859375
-0.009521484375
-0.0377197265625
-0.0040283203125
-0.003662109375
-0.003662109375
-0.00439453125
-0.006591796875
-0.0040283203125
-0.005859375
-0.0047607421875
-0.0040283203125
-0.0018310546875
0.0
0.0076904296875
0.00146484375
0.0069580078125
-0.0018310546875
0.0029296875
-0.00146484375
0.00146484375
-0.003662109375
0.0003662109375
-0.0047607421875
-0.0040283203125
-0.0032958984375
-0.0091552734375
0.00146484375
0.0032958984375
0.006591796875
0.0146484375
0.0054931640625
0.01025390625
0.0003662109375
0.0084228515625
-0.0867919921875
0.0076904296875
0.0146484375
0.041748046875
0.093017578125
-0.0032958984375
-0.005126953125
-0.0472412109375
0.00146484375
-0.0032958984375
-0.003662109375
0.003662109375
-0.008056640625
0.0018310546875
-0.0084228515625
0.000732421875
-0.0010986328125
-0.0032958984375
0.0084228515625
-0.005126953125
0.0113525390625
-0.000732421875
0.0069580078125
-0.00146484375
0.0003662109375
0.0010986328125
0.0
0.0032958984375
0.0025634765625
-0.0054931640625
-0.0010986328125
-0.010986328125
0.00146484375
0.0025634765625
0.005859375
0.0135498046875
0.0018310546875
0.0084228515625
0.0076904296875
-0.0087890625
-0.0545654296875
0.012451171875
0.00439453125
0.047607421875
0.06591796875
-0.0106201171875
-0.0032958984375
-0.035888671875
-0.0029296875
-0.002197265625
-0.0032958984375
-0.003662109375
-0.0091552734375
-0.0010986328125
-0.009521484375
-0.005859375
0.0003662109375
-0.008056640625
0.00732421875
0.000732421875
0.0054931640625
0.003662109375
0.0029296875
-0.0025634765625
-0.0040283203125
-0.000732421875
-0.006591796875
-0.0010986328125
-0.0010986328125
-0.01171875
-0.0029296875
-0.0003662109375
0.0
0.0098876953125
0.00439453125
0.0047607421875
0.000732421875
-0.0003662109375
-0.0391845703125
0.0025634765625
0.0106201171875
0.0325927734375
0.03955078125
0.00439453125
-0.0106201171875
-0.03076171875
-0.0018310546875
-0.0098876953125
-0.005126953125
-0.0032958984375
-0.0076904296875
-0.0054931640625
-0.0087890625
-0.0069580078125
-0.006591796875
-0.0032958984375
0.000732421875
0.00146484375
0.0062255859375
0.0054931640625
0.003662109375
0.0029296875
-0.0003662109375
-0.0010986328125
-0.00439453125
0.000732421875
-0.0062255859375
-0.005859375
-0.006591796875
-0.01025390625
-0.0010986328125
0.005126953125
0.005126953125
0.01318359375
0.002197265625
0.0054931640625
-0.0003662109375
0.0091552734375
-0.073974609375
0.0062255859375
0.0157470703125
0.04541015625
0.0831298828125
-0.012451171875
-0.00732421875
-0.0615234375
-0.0025634765625
-0.00439453125
-0.005859375
-0.0054931640625
-0.009521484375
-0.0054931640625
-0.005859375
-0.008056640625
-0.005859375
-0.0029296875
-0.0025634765625
0.00732421875
0.002197265625
0.0069580078125
-0.00146484375
0.0018310546875
-0.00439453125
-0.0003662109375
-0.0047607421875
-0.0010986328125
-0.00439453125
-0.0098876953125
-0.0054931640625
-0.0032958984375
0.0010986328125
0.008056640625
0.0032958984375
0.0106201171875
0.00146484375
0.008056640625
0.0087890625
-0.003662109375
-0.0692138671875
0.0029296875
0.002197265625
0.0303955078125
0.073974609375
-0.0062255859375
-0.005859375
-0.0289306640625
-0.0018310546875
-0.0003662109375
-0.000732421875
-0.003662109375
-0.0040283203125
-0.0047607421875
-0.005126953125
-0.0032958984375
-0.003662109375
0.00146484375
0.0040283203125
0.0032958984375
0.010986328125
0.0
0.0062255859375
0.005859375
0.005126953125
0.006591796875
0.006591796875
-0.0040283203125
0.002197265625
-0.0040283203125
-0.0032958984375
0.005859375
0.0069580078125
0.01171875
0.008056640625
0.006591796875
0.0
0.0029296875
-0.0003662109375
-0.015380859375
-0.0322265625
0.01171875
0.0120849609375
0.028564453125
0.041748046875
-0.0146484375
-0.0025634765625
-0.0172119140625
-0.0032958984375
0.0003662109375
-0.0047607421875
0.003662109375
-0.0091552734375
0.00146484375
-0.00439453125
-0.005126953125
0.0054931640625
-0.0113525390625
0.01171875
-0.0018310546875
0.010986328125
0.0040283203125
0.0040283203125
0.000732421875
-0.0003662109375
-0.0025634765625
0.0003662109375
-0.006591796875
-0.0003662109375
-0.009521484375
-0.0054931640625
0.0
0.0018310546875
0.0076904296875
0.008056640625
0.00439453125
0.0047607421875
0.0010986328125
-0.013916015625
-0.00439453125
-0.0128173828125
0.0281982421875
0.017578125
0.0150146484375
0.01171875
-0.0296630859375
-0.0040283203125
-0.0150146484375
-0.0054931640625
-0.0025634765625
-0.0032958984375
-0.0054931640625
-0.005126953125
-0.006591796875
-0.0069580078125
-0.0025634765625
0.0018310546875
0.00439453125
0.0069580078125
0.0087890625
0.003662109375
0.003662109375
-0.0003662109375
0.0018310546875
-0.00146484375
0.0029296875
-0.0047607421875
-0.0025634765625
-0.0040283203125
-0.0113525390625
-0.0047607421875
0.002197265625
0.0018310546875
0.0135498046875
0.0069580078125
0.0069580078125
-0.00146484375
0.005126953125
-0.0150146484375
-0.0032958984375
-0.019775390625
0.034423828125
0.013916015625
0.017578125
0.019775390625
-0.03662109375
-0.002197265625
-0.0164794921875
-0.0018310546875
-0.003662109375
-0.0029296875
-0.0054931640625
-0.00439453125
-0.00732421875
-0.0040283203125
-0.0040283203125
-0.0018310546875
0.0032958984375
0.0029296875
0.0069580078125
0.0029296875
0.005126953125
0.0003662109375
0.0
-0.00146484375
-0.0018310546875
-0.0029296875
-0.003662109375
0.0003662109375
-0.010986328125
-0.0054931640625
0.0032958984375
-0.003662109375
0.0128173828125
0.003662109375
0.005859375
0.000732421875
0.00439453125
-0.0040283203125
-0.0069580078125
-0.0340576171875
0.028564453125
0.0069580078125
0.0216064453125
0.03515625
-0.03076171875
-0.0040283203125
-0.016845703125
-0.005126953125
-0.000732421875
-0.005126953125
-0.0040283203125
-0.005859375
-0.00732421875
-0.0040283203125
-0.00732421875
0.0
0.0
0.005126953125
0.0076904296875
0.005126953125
0.005859375
0.000732421875
0.00146484375
0.0025634765625
-0.0010986328125
0.0018310546875
0.0003662109375
-0.003662109375
-0.0025634765625
-0.00732421875
-0.008056640625
-0.0084228515625
0.005126953125
-0.0062255859375
0.013916015625
-0.0003662109375
0.0032958984375
-0.0010986328125
0.005126953125
-0.0655517578125
0.00732421875
0.0238037109375
0.0538330078125
0.072509765625
-0.00439453125
-0.016845703125
-0.054931640625
-0.0069580078125
0.005126953125
-0.009521484375
0.0029296875
-0.01171875
-0.002197265625
-0.0113525390625
-0.0040283203125
-0.0113525390625
0.0010986328125
-0.0025634765625
0.0087890625
0.006591796875
0.01025390625
0.0062255859375
0.0029296875
0.0029296875
-0.003662109375
-0.0003662109375
-0.0040283203125
0.0
-0.008056640625
0.003662109375
-0.01171875
0.0040283203125
0.0029296875
0.005859375
0.01318359375
0.0113525390625
0.006591796875
0.008056640625
0.0029296875
-0.032958984375
-0.000732421875
0.016845703125
0.0289306640625
0.041015625
0.000732421875
-0.009521484375
-0.034423828125
0.0029296875
-0.0062255859375
0.0003662109375
-0.0018310546875
-0.0040283203125
-0.0029296875
-0.003662109375
-0.0091552734375
-0.0029296875
-0.0076904296875
0.0010986328125
-0.0003662109375
0.0098876953125
0.0069580078125
0.0069580078125
0.0047607421875
0.0018310546875
-0.0029296875
0.0025634765625
-0.0029296875
0.0029296875
-0.005126953125
0.00146484375
-0.00732421875
-0.0025634765625
0.0040283203125
0.0029296875
0.01025390625
0.005126953125
0.0047607421875
0.00146484375
0.0
-0.0380859375
-0.005859375
0.01611328125
0.0234375
0.0428466796875
0.0069580078125
-0.0150146484375
-0.02197265625
-0.0003662109375
-0.003662109375
-0.0010986328125
0.000732421875
-0.006591796875
0.005859375
-0.0098876953125
0.0025634765625
-0.0069580078125
-0.006591796875
0.0040283203125
-0.0076904296875
0.01171875
0.0018310546875
0.010986328125
0.000732421875
0.0047607421875
-0.0029296875
0.00146484375
-0.000732421875
0.0029296875
-0.0069580078125
-0.002197265625
-0.0025634765625
0.0018310546875
0.006591796875
0.008056640625
0.0142822265625
0.00439453125
0.006591796875
0.005126953125
-0.0194091796875
-0.04248046875
-0.000732421875
0.010986328125
0.043212890625
0.052001953125
0.0003662109375
-0.0069580078125
-0.03076171875
-0.00439453125
0.0
-0.0054931640625
0.0032958984375
-0.0091552734375
0.0029296875
-0.0087890625
-0.00439453125
0.002197265625
-0.005859375
0.013916015625
-0.0018310546875
0.0098876953125
-0.0018310546875
0.0040283203125
0.0018310546875
-0.0003662109375
0.0025634765625
-0.0029296875
-0.00146484375
-0.000732421875
-0.008056640625
0.0003662109375
-0.00439453125
0.0054931640625
0.0054931640625
0.005859375
0.006591796875
0.0
0.009521484375
-0.0439453125
0.0084228515625
0.0164794921875
0.027099609375
0.046142578125
0.0003662109375
-0.015380859375
-0.03076171875
-0.0032958984375
-0.0113525390625
-0.0062255859375
-0.006591796875
-0.0128173828125
0.0010986328125
-0.0142822265625
-0.0029296875
-0.0062255859375
-0.0087890625
0.000732421875
-0.0025634765625
0.000732421875
0.005859375
0.0
0.0054931640625
-0.0010986328125
-0.0047607421875
-0.0047607421875
-0.008056640625
-0.0076904296875
-0.0069580078125
-0.0062255859375
-0.00439453125
-0.0003662109375
0.0062255859375
0.0025634765625
0.0128173828125
0.0
0.0084228515625
0.0025634765625
-0.0010986328125
-0.0714111328125
0.01025390625
-0.0025634765625
0.044677734375
0.0684814453125
-0.016845703125
-0.0054931640625
-0.0494384765625
-0.0029296875
-0.0032958984375
-0.005126953125
-0.005126953125
-0.0087890625
-0.00439453125
-0.005859375
-0.00439453125
-0.00146484375
-0.0040283203125
0.002197265625
0.003662109375
0.0029296875
0.006591796875
0.000732421875
0.0040283203125
-0.0025634765625
-0.0010986328125
-0.0032958984375
-0.003662109375
-0.0003662109375
-0.0069580078125
-0.0029296875
0.00146484375
0.000732421875
0.01025390625
0.0040283203125
0.0076904296875
0.00146484375
0.006591796875
-0.003662109375
-0.0069580078125
-0.037353515625
0.0208740234375
0.006591796875
0.02197265625
0.03662109375
-0.0263671875
-0.0032958984375
-0.0194091796875
-0.0025634765625
-0.0003662109375
-0.0047607421875
-0.0040283203125
-0.009521484375
-0.005126953125
-0.0087890625
-0.003662109375
-0.0018310546875
-0.0003662109375
0.00439453125
0.005126953125
0.0040283203125
0.005859375
0.0003662109375
0.003662109375
-0.0003662109375
-0.0003662109375
-0.0010986328125
-0.003662109375
-0.0003662109375
-0.009521484375
-0.0018310546875
0.002197265625
0.0025634765625
0.0098876953125
0.003662109375
0.006591796875
0.002197265625
0.0069580078125
-0.0076904296875
-0.0076904296875
-0.027099609375
0.03515625
0.017578125
0.0186767578125
0.03515625
-0.037353515625
0.0018310546875
-0.01318359375
-0.0010986328125
0.000732421875
-0.0010986328125
-0.0018310546875
-0.0029296875
-0.006591796875
-0.002197265625
-0.0025634765625
0.0040283203125
-0.002197265625
0.0098876953125
0.0
0.01025390625
0.0087890625
0.0047607421875
0.0087890625
0.0003662109375
0.000732421875
0.002197265625
-0.006591796875
0.0047607421875
-0.0087890625
-0.0040283203125
0.00439453125
0.0047607421875
0.008056640625
0.01025390625
0.005126953125
0.0018310546875
0.00439453125
0.0054931640625
-0.0150146484375
-0.0355224609375
0.0157470703125
0.006591796875
0.0355224609375
0.0421142578125
-0.013916015625
-0.0040283203125
-0.0252685546875
-0.0029296875
-0.0054931640625
-0.0076904296875
0.0054931640625
-0.0084228515625
0.0010986328125
-0.005126953125
-0.0091552734375
0.0029296875
-0.00146484375
0.0087890625
0.0076904296875
0.00732421875
-0.0003662109375
0.0029296875
-0.0018310546875
-0.0025634765625
0.00146484375
-0.0025634765625
-0.0025634765625
0.0
-0.0032958984375
-0.0003662109375
-0.0025634765625
0.002197265625
0.0032958984375
0.0069580078125
0.0146484375
0.0032958984375
0.009521484375
0.0040283203125
-0.0069580078125
-0.0714111328125
0.003662109375
-0.002197265625
0.052734375
0.073974609375
-0.0054931640625
0.000732421875
-0.056396484375
0.0018310546875
-0.0054931640625
0.0003662109375
0.002197265625
-0.0040283203125
0.005126953125
-0.0018310546875
0.000732421875
0.010986328125
-0.0087890625
0.018310546875
0.0047607421875
0.0146484375
0.005126953125
0.0150146484375
0.0018310546875
0.0135498046875
0.006591796875
0.01318359375
-0.0091552734375
0.010986328125
-0.0087890625
0.005859375
0.0018310546875
0.012451171875
0.005859375
0.0179443359375
0.01025390625
0.0142822265625
0.0087890625
0.0186767578125
0.0087890625
-0.046875
0.002197265625
0.0047607421875
0.0421142578125
0.0567626953125
-0.0091552734375
-0.015380859375
-0.0574951171875
-0.0113525390625
-0.0054931640625
-0.0098876953125
-0.0040283203125
-0.0113525390625
-0.0025634765625
-0.00732421875
-0.0076904296875
-0.0069580078125
-0.008056640625
-0.0062255859375
0.0054931640625
-0.005126953125
0.0069580078125
-0.0062255859375
-0.000732421875
-0.0084228515625
-0.00146484375
-0.0157470703125
0.0010986328125
-0.01611328125
-0.00146484375
-0.01171875
-0.0113525390625
-0.013916015625
-0.002197265625
-0.012451171875
0.009521484375
-0.0069580078125
0.0087890625
-0.008056640625
0.000732421875
-0.0054931640625
-0.0106201171875
-0.0743408203125
0.019775390625
-0.01171875
0.046875
0.0567626953125
-0.0201416015625
-0.01171875
-0.040283203125
-0.010986328125
-0.0029296875
-0.0106201171875
-0.0054931640625
-0.012451171875
-0.005859375
-0.0098876953125
-0.00732421875
-0.00732421875
-0.00146484375
-0.0025634765625
0.008056640625
0.00146484375
0.008056640625
-0.0010986328125
-0.000732421875
-0.0076904296875
-0.000732421875
-0.009521484375
0.0018310546875
-0.005126953125
-0.003662109375
-0.0010986328125
-0.005859375
-0.003662109375
-0.005859375
-0.0029296875
0.0040283203125
0.0003662109375
0.013916015625
0.0
0.00439453125
-0.003662109375
0.0084228515625
-0.081298828125
0.006591796875
0.0098876953125
0.0501708984375
0.081298828125
-0.010986328125
-0.0091552734375
-0.066650390625
-0.0040283203125
-0.0040283203125
-0.000732421875
-0.0040283203125
-0.0025634765625
-0.0076904296875
-0.006591796875
-0.0069580078125
-0.0047607421875
-0.000732421875
-0.0029296875
0.008056640625
0.0010986328125
0.009521484375
0.00439453125
0.0018310546875
0.0003662109375
0.000732421875
0.000732421875
-0.0003662109375
0.0010986328125
-0.00146484375
-0.000732421875
-0.000732421875
-0.00146484375
-0.0076904296875
-0.00146484375
0.00439453125
0.00146484375
0.0157470703125
0.00439453125
0.005859375
0.00439453125
0.0040283203125
-0.040283203125
0.0018310546875
0.024169921875
0.0574951171875
0.057861328125
0.0076904296875
-0.0054931640625
-0.052734375
0.0054931640625
-0.0025634765625
0.0091552734375
-0.0003662109375
0.0047607421875
-0.00439453125
-0.002197265625
-0.0076904296875
0.0
-0.0106201171875
-0.0018310546875
-0.0040283203125
0.0
0.0069580078125
-0.0003662109375
0.0076904296875
-0.00146484375
-0.000732421875
-0.0032958984375
-0.0040283203125
-0.00439453125
-0.002197265625
-0.0018310546875
-0.0032958984375
-0.00146484375
-0.005859375
-0.00146484375
0.005126953125
0.00439453125
0.0150146484375
0.01318359375
0.009521484375
0.0113525390625
-0.000732421875
-0.024169921875
-0.0113525390625
0.0076904296875
0.0303955078125
0.0355224609375
0.0164794921875
0.0
-0.0311279296875
0.0025634765625
-0.0098876953125
0.00146484375
0.0
-0.005126953125
0.0
-0.0076904296875
0.0018310546875
-0.005126953125
-0.005126953125
0.003662109375
-0.0076904296875
0.0098876953125
0.0040283203125
0.0040283203125
0.00732421875
0.0003662109375
0.0
0.0018310546875
-0.0018310546875
0.0029296875
0.000732421875
0.00439453125
-0.006591796875
0.002197265625
-0.00439453125
0.00146484375
0.0047607421875
0.002197265625
0.010986328125
0.0040283203125
0.008056640625
0.000732421875
0.0087890625
-0.0684814453125
0.00732421875
0.0146484375
0.03662109375
0.0732421875
-0.005126953125
-0.005859375
-0.0450439453125
0.0025634765625
-0.0003662109375
0.000732421875
-0.0010986328125
-0.005126953125
-0.0018310546875
-0.0062255859375
-0.0069580078125
-0.0010986328125
-0.0069580078125
0.0076904296875
-0.0010986328125
0.00732421875
0.0032958984375
0.003662109375
0.00146484375
0.002197265625
-0.00146484375
-0.005126953125
0.002197265625
-0.00439453125
-0.002197265625
-0.000732421875
-0.0087890625
-0.0054931640625
-0.0010986328125
-0.003662109375
0.0029296875
0.0018310546875
0.005859375
-0.002197265625
0.0098876953125
-0.0062255859375
-0.0091552734375
-0.029296875
0.015380859375
0.006591796875
0.0333251953125
0.0303955078125
-0.0157470703125
-0.0018310546875
-0.0274658203125
-0.0018310546875
-0.006591796875
-0.005126953125
-0.0040283203125
-0.0069580078125
-0.00732421875
-0.0054931640625
-0.00732421875
0.0003662109375
-0.0025634765625
0.005126953125
0.003662109375
0.0018310546875
0.005859375
-0.002197265625
0.0018310546875
-0.00732421875
-0.002197265625
-0.0076904296875
0.0
-0.0029296875
-0.008056640625
-0.0032958984375
-0.009521484375
-0.0047607421875
0.00732421875
0.0
0.0120849609375
0.0032958984375
0.0069580078125
-0.00146484375
0.0018310546875
-0.0538330078125
0.0025634765625
0.013916015625
0.04541015625
0.052001953125
-0.005859375
-0.017578125
-0.0498046875
-0.0062255859375
-0.0047607421875
-0.0047607421875
-0.005126953125
-0.005859375
-0.00439453125
-0.0084228515625
-0.0054931640625
-0.0069580078125
-0.00439453125
0.0
0.002197265625
0.0018310546875
0.008056640625
0.000732421875
0.0054931640625
0.0010986328125
0.000732421875
-0.000732421875
0.0
0.0
0.00146484375
0.002197265625
-0.00439453125
-0.000732421875
-0.00732421875
-0.00146484375
0.00732421875
0.0025634765625
0.013916015625
0.0029296875
0.00439453125
-0.000732421875
0.0091552734375
-0.075439453125
0.0032958984375
0.0172119140625
0.0560302734375
0.084228515625
-0.00146484375
-0.0054931640625
-0.0673828125
0.00146484375
-0.0025634765625
-0.002197265625
-0.0010986328125
-0.002197265625
-0.005859375
-0.0032958984375
-0.010986328125
-0.0032958984375
-0.0076904296875
0.002197265625
0.0047607421875
0.00146484375
0.0098876953125
0.003662109375
0.0047607421875
0.0032958984375
0.0010986328125
-0.0003662109375
-0.0003662109375
0.0003662109375
-0.0010986328125
-0.000732421875
-0.0076904296875
-0.0047607421875
-0.006591796875
-0.0018310546875
0.0084228515625
0.00439453125
0.01171875
0.0032958984375
0.005126953125
0.003662109375
0.0076904296875
-0.08642578125
0.002197265625
0.00732421875
0.0399169921875
0.0919189453125
-0.003662109375
-0.0076904296875
-0.049072265625
-0.0029296875
-0.0025634765625
-0.00146484375
-0.00146484375
-0.0040283203125
-0.0032958984375
-0.0040283203125
-0.00732421875
-0.0010986328125
-0.0032958984375
0.00146484375
0.0054931640625
0.006591796875
0.005859375
0.006591796875
-0.002197265625
-0.00146484375
-0.0010986328125
-0.000732421875
0.0018310546875
0.0003662109375
-0.0010986328125
0.000732421875
-0.008056640625
-0.0029296875
-0.00146484375
0.0010986328125
0.008056640625
0.005859375
0.006591796875
0.0029296875
0.002197265625
0.00732421875
-0.0062255859375
-0.0780029296875
0.01171875
0.006591796875
0.040283203125
0.08203125
-0.0087890625
-0.0054931640625
-0.0318603515625
0.000732421875
0.0025634765625
-0.0032958984375
0.0032958984375
-0.0069580078125
0.0040283203125
-0.0069580078125
-0.0018310546875
-0.0010986328125
-0.0069580078125
0.005859375
-0.0029296875
0.0084228515625
0.0018310546875
0.005859375
0.0029296875
0.0018310546875
0.0025634765625
0.0010986328125
-0.0010986328125
0.00146484375
-0.0069580078125
0.00146484375
-0.0087890625
-0.0029296875
0.00732421875
0.00146484375
0.010986328125
0.0069580078125
-0.00146484375
0.0032958984375
0.0029296875
-0.022705078125
-0.002197265625
-0.002197265625
0.018310546875
0.0311279296875
0.018310546875
0.005126953125
-0.016845703125
-0.002197265625
-0.01171875
-0.00146484375
0.0003662109375
-0.00732421875
-0.005859375
-0.0087890625
-0.0069580078125
-0.00439453125
-0.0029296875
0.003662109375
-0.0032958984375
0.01171875
-0.003662109375
0.009521484375
0.0025634765625
-0.0010986328125
0.0087890625
-0.003662109375
-0.0003662109375
-0.0029296875
-0.003662109375
-0.0032958984375
-0.0087890625
-0.006591796875
-0.0084228515625
-0.00146484375
0.003662109375
0.0054931640625
0.00732421875
0.0010986328125
0.0054931640625
0.0018310546875
-0.0054931640625
-0.066650390625
0.012451171875
-0.0025634765625
0.046142578125
0.0626220703125
-0.0157470703125
-0.0069580078125
-0.0457763671875
-0.006591796875
-0.0054931640625
-0.0054931640625
-0.002197265625
-0.0069580078125
-0.00146484375
-0.008056640625
-0.0062255859375
-0.00146484375
-0.0029296875
0.003662109375
0.009521484375
0.0040283203125
0.0098876953125
0.0003662109375
0.0
-0.00439453125
-0.0025634765625
-0.0040283203125
0.0
-0.0025634765625
-0.0040283203125
-0.0040283203125
-0.009521484375
-0.0040283203125
0.0025634765625
0.0029296875
0.012451171875
0.003662109375
0.0054931640625
0.0003662109375
0.002197265625
-0.0347900390625
-0.0025634765625
0.00146484375
0.0399169921875
0.037353515625
0.0032958984375
-0.0018310546875
-0.0450439453125
-0.0018310546875
-0.0069580078125
-0.0025634765625
-0.0029296875
-0.00439453125
-0.003662109375
-0.005126953125
-0.0069580078125
-0.0032958984375
-0.005859375
0.0
0.0010986328125
0.0018310546875
0.00732421875
0.003662109375
0.0069580078125
0.002197265625
0.00146484375
0.000732421875
-0.000732421875
-0.0010986328125
-0.0003662109375
-0.0010986328125
-0.0076904296875
-0.00439453125
-0.00146484375
-0.0003662109375
0.0087890625
0.0054931640625
0.0062255859375
0.0018310546875
0.0047607421875
0.0062255859375
-0.00439453125
-0.0673828125
0.01025390625
0.002197265625
0.0311279296875
0.0714111328125
-0.0113525390625
-0.0040283203125
-0.02783203125
-0.0025634765625
-0.0029296875
-0.0054931640625
-0.00146484375
-0.0062255859375
-0.0040283203125
-0.0054931640625
-0.008056640625
-0.00146484375
-0.005126953125
0.0032958984375
0.00732421875
0.00439453125
0.0113525390625
0.0029296875
0.002197265625
-0.0010986328125
-0.0010986328125
-0.0018310546875
0.0
-0.0018310546875
-0.00439453125
-0.0032958984375
-0.0106201171875
0.0
0.0040283203125
0.0025634765625
0.0142822265625
0.0029296875
0.0040283203125
0.0025634765625
0.0025634765625
-0.05859375
0.006591796875
0.0201416015625
0.046142578125
0.0626220703125
-0.006591796875
-0.01904296875
-0.050537109375
-0.00146484375
-0.0040283203125
-0.0003662109375
-0.003662109375
-0.003662109375
-0.0029296875
-0.005859375
-0.0029296875
-0.0047607421875
-0.000732421875
0.0018310546875
0.0025634765625
0.0069580078125
0.005859375
0.00439453125
0.005126953125
-0.0018310546875
0.00146484375
-0.0010986328125
-0.00146484375
0.0
-0.003662109375
-0.0018310546875
-0.00439453125
-0.0040283203125
0.000732421875
0.00146484375
0.0069580078125
0.006591796875
0.005126953125
0.0029296875
0.00146484375
0.0
-0.01171875
-0.0428466796875
0.01318359375
0.0098876953125
0.0263671875
0.0457763671875
-0.01318359375
-0.0062255859375
-0.0157470703125
-0.00146484375
0.0003662109375
-0.003662109375
-0.0003662109375
-0.0062255859375
0.0
-0.0076904296875
-0.0003662109375
0.0003662109375
-0.00732421875
0.009521484375
-0.00146484375
0.0098876953125
0.0029296875
0.0087890625
-0.0025634765625
0.002197265625
-0.000732421875
-0.000732421875
0.0029296875
0.0003662109375
-0.000732421875
-0.000732421875
-0.0054931640625
0.002197265625
0.000732421875
0.003662109375
0.01171875
0.00146484375
0.0106201171875
-0.00146484375
0.0084228515625
-0.0765380859375
0.0087890625
0.0172119140625
0.037353515625
0.08349609375
-0.00439453125
-0.010986328125
-0.043212890625
-0.0032958984375
-0.003662109375
-0.0047607421875
-0.0010986328125
-0.0091552734375
-0.0029296875
-0.009521484375
-0.0025634765625
-0.00439453125
-0.00439453125
0.008056640625
-0.0029296875
0.01318359375
0.00146484375
0.0076904296875
0.0047607421875
0.002197265625
0.00146484375
0.0
-0.0054931640625
0.0
-0.0091552734375
-0.00146484375
-0.009521484375
0.0
0.0040283203125
0.002197265625
0.016845703125
0.003662109375
0.0091552734375
0.002197265625
-0.002197265625
-0.05126953125
0.0032958984375
0.01611328125
0.0391845703125
0.050537109375
0.0
-0.0164794921875
-0.0384521484375
-0.002197265625
-0.0062255859375
-0.0047607421875
-0.0018310546875
-0.0062255859375
-0.006591796875
-0.0069580078125
-0.008056640625
-0.0032958984375
-0.005126953125
0.000732421875
0.0010986328125
0.002197265625
0.0084228515625
0.0010986328125
0.0032958984375
-0.0029296875
-0.0025634765625
-0.0069580078125
-0.0025634765625
-0.00732421875
-0.0032958984375
-0.005126953125
-0.01025390625
-0.006591796875
0.0003662109375
-0.000732421875
0.0087890625
0.0032958984375
0.0054931640625
-0.0003662109375
0.005126953125
-0.0135498046875
-0.0084228515625
-0.025634765625
0.0318603515625
0.013916015625
0.0238037109375
0.0238037109375
-0.0347900390625
-0.003662109375
-0.017578125
-0.0032958984375
-0.0003662109375
-0.005859375
-0.00146484375
-0.0076904296875
-0.00439453125
-0.0054931640625
-0.0084228515625
-0.003662109375
0.0003662109375
-0.0003662109375
0.0084228515625
0.0018310546875
0.0040283203125
-0.002197265625
0.000732421875
-0.0069580078125
-0.0010986328125
-0.0054931640625
0.0
-0.0018310546875
-0.0062255859375
-0.0069580078125
-0.006591796875
-0.00439453125
0.005126953125
0.0029296875
0.008056640625
0.0010986328125
0.005126953125
0.006591796875
-0.0032958984375
-0.07470703125
0.009521484375
0.005126953125
0.0384521484375
0.0853271484375
-0.01318359375
-0.0018310546875
-0.0377197265625
-0.0010986328125
0.000732421875
0.002197265625
-0.0040283203125
-0.0003662109375
-0.008056640625
-0.0047607421875
-0.00732421875
-0.0018310546875
-0.0032958984375
0.005126953125
0.0069580078125
0.008056640625
0.0087890625
0.0062255859375
0.0025634765625
0.003662109375
0.0
-0.0010986328125
0.0
-0.0032958984375
-0.0047607421875
-0.0047607421875
-0.0098876953125
-0.0040283203125
0.0062255859375
0.0018310546875
0.01171875
0.0029296875
0.003662109375
0.000732421875
0.0040283203125
-0.049072265625
0.00439453125
0.015380859375
0.0494384765625
0.05126953125
-0.0032958984375
-0.0142822265625
-0.052001953125
-0.00439453125
-0.00439453125
-0.00439453125
-0.0032958984375
-0.0040283203125
-0.0054931640625
-0.00732421875
-0.008056640625
-0.0025634765625
-0.005126953125
0.0029296875
0.00439453125
0.0040283203125
0.01171875
0.0047607421875
0.005126953125
0.003662109375
0.0003662109375
0.000732421875
0.0003662109375
0.0
-0.00146484375
0.0018310546875
-0.006591796875
-0.0040283203125
0.0003662109375
0.003662109375
0.0076904296875
0.0098876953125
0.0069580078125
0.0032958984375
0.0069580078125
0.0076904296875
-0.0128173828125
-0.0677490234375
0.018310546875
0.002197265625
0.035888671875
0.0714111328125
-0.0186767578125
-0.0040283203125
-0.0263671875
-0.00146484375
-0.0032958984375
-0.0018310546875
0.0018310546875
-0.005859375
-0.0003662109375
-0.006591796875
-0.0047607421875
-0.000732421875
-0.003662109375
0.0040283203125
0.0029296875
0.006591796875
0.0054931640625
0.003662109375
0.0025634765625
0.0032958984375
0.0010986328125
0.0025634765625
0.00146484375
0.003662109375
-0.00439453125
0.002197265625
-0.0087890625
0.0018310546875
0.0047607421875
0.0091552734375
0.0098876953125
0.006591796875
0.0054931640625
0.00146484375
0.0091552734375
-0.069580078125
0.0087890625
0.0230712890625
0.0355224609375
0.0780029296875
-0.005859375
-0.0150146484375
-0.0413818359375
-0.0003662109375
-0.005126953125
-0.0010986328125
-0.0018310546875
-0.0040283203125
-0.0003662109375
-0.009521484375
0.0025634765625
-0.003662109375
-0.0069580078125
0.008056640625
-0.008056640625
0.01171875
0.006591796875
0.009521484375
0.0018310546875
0.0054931640625
-0.0047607421875
-0.0003662109375
0.0029296875
-0.00146484375
-0.0029296875
0.0040283203125
-0.01171875
-0.0025634765625
0.000732421875
0.0029296875
0.01025390625
0.0069580078125
0.0128173828125
0.0029296875
0.0040283203125
0.0029296875
-0.0150146484375
-0.0333251953125
0.0113525390625
0.00732421875
0.0311279296875
0.0322265625
-0.009521484375
-0.0069580078125
-0.0216064453125
-0.0032958984375
-0.00439453125
-0.0076904296875
-0.0018310546875
-0.0120849609375
-0.0029296875
-0.006591796875
-0.008056640625
0.0025634765625
-0.0098876953125
0.0029296875
0.00439453125
0.0010986328125
0.0084228515625
-0.00146484375
0.0025634765625
-0.00439453125
-0.0003662109375
-0.00732421875
-0.000732421875
-0.003662109375
-0.0069580078125
-0.0047607421875
-0.0076904296875
-0.0010986328125
0.005859375
0.0054931640625
0.010986328125
0.0010986328125
0.006591796875
0.00146484375
0.0
-0.0816650390625
0.01171875
-0.0010986328125
0.0428466796875
0.078369140625
-0.0172119140625
-0.0069580078125
-0.0494384765625
-0.005126953125
-0.0032958984375
-0.0047607421875
-0.002197265625
-0.006591796875
-0.0025634765625
-0.008056640625
-0.005859375
-0.003662109375
-0.005126953125
0.002197265625
0.00146484375
0.00146484375
0.008056640625
-0.0010986328125
0.006591796875
-0.0018310546875
-0.000732421875
-0.003662109375
-0.0010986328125
-0.003662109375
-0.002197265625
-0.0010986328125
-0.0091552734375
-0.005859375
0.0029296875
-0.000732421875
0.01171875
0.0040283203125
0.0047607421875
-0.0010986328125
0.002197265625
-0.0263671875
-0.0040283203125
-0.0062255859375
0.0380859375
0.0311279296875
0.0040283203125
0.0062255859375
-0.040283203125
-0.0040283203125
-0.002197265625
-0.00146484375
-0.00146484375
-0.005126953125
-0.003662109375
-0.005859375
-0.01025390625
-0.003662109375
-0.0084228515625
0.0
0.002197265625
0.0025634765625
0.0069580078125
0.0029296875
0.0087890625
0.00146484375
0.0032958984375
0.0
-0.00146484375
-0.0025634765625
0.0
-0.0025634765625
-0.0062255859375
-0.003662109375
-0.0084228515625
-0.0025634765625
0.006591796875
0.003662109375
0.0135498046875
0.0054931640625
0.0040283203125
0.0003662109375
0.0098876953125
-0.0823974609375
0.008056640625
0.015380859375
0.049072265625
0.087890625
-0.0087890625
-0.01025390625
-0.0604248046875
-0.0029296875
-0.0010986328125
0.0003662109375
-0.0032958984375
-0.0025634765625
-0.005126953125
-0.006591796875
-0.005126953125
-0.002197265625
-0.0025634765625
0.005126953125
0.003662109375
0.0076904296875
0.0087890625
0.006591796875
0.00439453125
0.00146484375
0.0
0.0003662109375
-0.002197265625
-0.0003662109375
-0.005126953125
0.0010986328125
-0.0098876953125
-0.000732421875
0.00146484375
0.002197265625
0.01318359375
0.0062255859375
0.00732421875
0.0
0.0032958984375
-0.024169921875
-0.0032958984375
-0.0025634765625
0.03515625
0.027099609375
0.0069580078125
0.0032958984375
-0.037353515625
-0.0018310546875
-0.005859375
-0.00146484375
-0.0010986328125
-0.00439453125
-0.00146484375
-0.0054931640625
-0.0069580078125
-0.0047607421875
-0.008056640625
-0.003662109375
0.0010986328125
0.00146484375
0.00732421875
0.0062255859375
0.0040283203125
0.0003662109375
0.0018310546875
-0.002197265625
-0.00146484375
-0.00146484375
-0.00146484375
-0.000732421875
-0.00439453125
-0.000732421875
-0.005859375
0.00146484375
0.005859375
0.005126953125
0.01025390625
0.0025634765625
0.00439453125
-0.0003662109375
0.00732421875
-0.0908203125
0.005859375
0.0146484375
0.041748046875
0.0977783203125
-0.005859375
-0.008056640625
-0.0516357421875
-0.002197265625
-0.0025634765625
-0.002197265625
0.0
-0.005859375
-0.0003662109375
-0.0098876953125
-0.0047607421875
-0.0047607421875
-0.00732421875
0.0054931640625
-0.00146484375
0.008056640625
0.0054931640625
0.0047607421875
0.0047607421875
0.0
0.0025634765625
0.0003662109375
0.000732421875
0.0025634765625
-0.0054931640625
0.000732421875
-0.0113525390625
0.00146484375
0.0018310546875
0.00439453125
0.01318359375
0.005126953125
0.006591796875
0.0032958984375
0.005126953125
-0.05859375
0.006591796875
0.029296875
0.030029296875
0.0677490234375
-0.0029296875
-0.022705078125
-0.0311279296875
-0.002197265625
-0.00146484375
-0.0003662109375
-0.0054931640625
-0.0018310546875
-0.0003662109375
-0.0076904296875
0.0025634765625
-0.0047607421875
-0.00732421875
0.0076904296875
-0.0040283203125
0.0106201171875
0.002197265625
0.006591796875
0.006591796875
0.002197265625
0.0
-0.002197265625
-0.00439453125
0.000732421875
-0.005859375
0.0032958984375
-0.0098876953125
-0.00439453125
0.0047607421875
0.000732421875
0.0084228515625
0.006591796875
0.006591796875
0.0003662109375
0.00732421875
0.000732421875
-0.01025390625
-0.0472412109375
0.008056640625
0.0047607421875
0.035888671875
0.0457763671875
-0.0098876953125
-0.008056640625
-0.0274658203125
-0.0032958984375
-0.002197265625
-0.0040283203125
-0.0029296875
-0.00439453125
-0.0032958984375
-0.00439453125
-0.0032958984375
0.0040283203125
0.0003662109375
0.0084228515625
0.005126953125
0.0062255859375
0.0047607421875
0.0032958984375
0.00732421875
0.0025634765625
0.006591796875
0.003662109375
0.0062255859375
0.005126953125
0.0032958984375
0.005126953125
-0.003662109375
-0.0003662109375
0.013916015625
0.00439453125
0.0179443359375
0.000732421875
-0.010986328125
-0.005126953125
0.003662109375
-0.0703125
0.0205078125
0.0216064453125
0.06298828125
0.05859375
0.046875
-0.043212890625
-0.059326171875
-0.0172119140625
0.0
-0.0142822265625
0.064453125
-0.0230712890625
0.017578125
-0.015380859375
-0.0098876953125
0.0087890625
0.017578125
0.0047607421875
-0.0032958984375
0.0018310546875
-0.0428466796875
0.0010986328125
-0.00439453125
-0.0054931640625
0.0216064453125
0.0120849609375
0.0186767578125
0.0076904296875
0.0054931640625
-0.0087890625
-0.02783203125
-0.01171875
-0.0164794921875
-0.0025634765625
0.034423828125
0.0150146484375
0.0
0.005126953125
-0.0084228515625
-0.057861328125
0.0655517578125
-0.0062255859375
0.006591796875
0.0487060546875
-0.0252685546875
0.0010986328125
0.0146484375
-0.0025634765625
-0.0179443359375
0.0025634765625
-0.0263671875
-0.01025390625
0.0120849609375
-0.0120849609375
0.0223388671875
0.0025634765625
-0.0179443359375
-0.005126953125
-0.0318603515625
0.005859375
-0.0205078125
0.0135498046875
-0.0216064453125
-0.00146484375
0.0135498046875
0.0263671875
-0.024169921875
0.01611328125
-0.0703125
-0.0179443359375
0.01611328125
0.0054931640625
0.0406494140625
-0.003662109375
0.012451171875
-0.0098876953125
0.0003662109375
0.000732421875
0.003662109375
0.00146484375
-0.0029296875
-0.003662109375
-0.013916015625
-0.062255859375
-0.0369873046875
-0.0098876953125
0.0135498046875
0.0289306640625
0.0260009765625
-0.0267333984375
-0.0311279296875
-0.009521484375
-0.017578125
-0.002197265625
-0.0010986328125
-0.0113525390625
0.010986328125
-0.00732421875
0.0018310546875
-0.000732421875
-0.009521484375
0.0087890625
-0.00732421875
0.0230712890625
-0.0029296875
0.0150146484375
0.00439453125
0.01025390625
0.0150146484375
0.0087890625
0.010986328125
0.0040283203125
0.002197265625
0.0025634765625
0.000732421875
-0.0025634765625
0.0047607421875
0.0106201171875
0.000732421875
0.0208740234375
0.0076904296875
0.0186767578125
0.01025390625
-0.005126953125
-0.017578125
-0.0010986328125
-0.0164794921875
0.0318603515625
0.034423828125
0.0164794921875
0.01171875
-0.0040283203125
-0.0201416015625
-0.006591796875
0.002197265625
-0.0032958984375
0.0
-0.0076904296875
-0.005126953125
-0.0084228515625
-0.005859375
-0.000732421875
-0.0047607421875
0.00439453125
0.00146484375
0.00732421875
0.0076904296875
-0.0003662109375
0.0018310546875
-0.005126953125
-0.01025390625
-0.0084228515625
-0.0025634765625
0.002197265625
-0.0084228515625
0.0032958984375
-0.0205078125
-0.00732421875
0.0120849609375
0.0018310546875
0.003662109375
-0.000732421875
-0.0010986328125
-0.005859375
0.0054931640625
-0.049072265625
-0.0098876953125
0.0069580078125
0.0494384765625
0.0531005859375
-0.002197265625
-0.0018310546875
-0.0604248046875
-0.00732421875
-0.005859375
0.0018310546875
-0.0076904296875
0.0113525390625
-0.024169921875
-0.0076904296875
-0.00439453125
-0.0062255859375
-0.0076904296875
0.019775390625
-0.017578125
0.0238037109375
0.0003662109375
0.0040283203125
-0.0069580078125
0.0010986328125
-0.012451171875
0.0128173828125
-0.0245361328125
-0.00732421875
-0.006591796875
-0.015380859375
0.006591796875
0.0135498046875
-0.0113525390625
-0.0172119140625
0.049072265625
-0.0428466796875
0.035888671875
-0.057861328125
0.060791015625
-0.0498046875
0.0714111328125
-0.0223388671875
-0.00146484375
-0.0146484375
0.05126953125
-0.0205078125
0.0322265625
-0.0208740234375
0.0032958984375
-0.002197265625
0.01171875
-0.0245361328125
0.01611328125
-0.0274658203125
0.0
-0.015380859375
-0.0281982421875
0.0076904296875
-0.0391845703125
0.0245361328125
-0.0205078125
0.019775390625
0.0234375
0.035888671875
-0.03076171875
0.0003662109375
-0.01904296875
-0.0128173828125
0.041015625
0.0340576171875
-0.0135498046875
-0.006591796875
-0.0274658203125
-0.0263671875
0.0545654296875
-0.003662109375
0.03955078125
-0.00732421875
-0.0267333984375
-0.0494384765625
-0.0369873046875
0.03369140625
0.00439453125
0.05712890625
0.0029296875
-0.0029296875
-0.0435791015625
0.0113525390625
-0.0076904296875
-0.005859375
-0.0018310546875
-0.008056640625
-0.0186767578125
-0.016845703125
-0.017578125
-0.0029296875
-0.0194091796875
0.005126953125
-0.01611328125
0.0120849609375
-0.0113525390625
0.0208740234375
-0.01025390625
0.005126953125
0.005859375
-0.0018310546875
0.0087890625
0.0091552734375
0.0003662109375
0.0113525390625
-0.0087890625
0.0157470703125
-0.0205078125
0.003662109375
0.0
0.0040283203125
0.010986328125
0.013916015625
0.0
0.0062255859375
0.0091552734375
-0.0487060546875
-0.029296875
0.01904296875
0.0179443359375
0.079833984375
0.018310546875
0.0098876953125
-0.0399169921875
0.017578125
-0.012451171875
0.0150146484375
-0.0223388671875
0.00146484375
0.0032958984375
-0.0010986328125
-0.0010986328125
-0.00146484375
-0.0263671875
0.0047607421875
0.0087890625
0.018310546875
0.03076171875
0.0146484375
0.003662109375
-0.0003662109375
-0.005126953125
0.0003662109375
-0.01611328125
-0.0032958984375
0.006591796875
0.002197265625
0.024169921875
-0.00439453125
-0.01171875
-0.0062255859375
-0.01318359375
0.0003662109375
0.0281982421875
-0.016845703125
0.0380859375
-0.0772705078125
-0.053466796875
0.0245361328125
0.01171875
0.0670166015625
0.03662109375
-0.0355224609375
-0.031494140625
-0.0194091796875
-0.0032958984375
-0.0054931640625
-0.0106201171875
-0.01025390625
-0.0054931640625
-0.012451171875
-0.0150146484375
-0.0087890625
-0.01318359375
-0.005126953125
0.0
0.0106201171875
-0.003662109375
0.0179443359375
0.000732421875
0.0172119140625
0.0054931640625
0.0172119140625
-0.005859375
0.01611328125
-0.016845703125
0.0142822265625
-0.013916015625
0.0018310546875
0.002197265625
0.0032958984375
0.0146484375
0.0098876953125
0.0113525390625
0.0
-0.0098876953125
-0.0487060546875
-0.0263671875
0.04248046875
0.0263671875
0.066650390625
-0.003662109375
-0.0234375
-0.02490234375
-0.0018310546875
0.01318359375
-0.000732421875
-0.01025390625
-0.0025634765625
-0.0018310546875
-0.01171875
0.0054931640625
-0.00146484375
0.0047607421875
-0.017578125
0.029296875
-0.0179443359375
0.00732421875
0.0113525390625
-0.005126953125
0.002197265625
0.0018310546875
-0.0003662109375
-0.01025390625
0.003662109375
-0.017578125
-0.0032958984375
-0.0194091796875
-0.00732421875
-0.0010986328125
-0.0025634765625
0.0062255859375
-0.012451171875
0.019775390625
-0.0194091796875
0.0157470703125
-0.075439453125
-0.0208740234375
0.0172119140625
0.0208740234375
0.063720703125
0.0040283203125
-0.034423828125
-0.037353515625
-0.009521484375
0.0032958984375
0.0018310546875
-0.005126953125
0.0010986328125
-0.0069580078125
0.0040283203125
-0.01171875
0.0076904296875
-0.0098876953125
0.0194091796875
0.0003662109375
0.02490234375
0.006591796875
0.016845703125
0.0018310546875
0.0062255859375
0.0
-0.000732421875
0.005859375
-0.0003662109375
-0.0025634765625
-0.0010986328125
-0.01171875
-0.0084228515625
0.003662109375
-0.003662109375
0.016845703125
-0.000732421875
0.00732421875
-0.0084228515625
0.003662109375
-0.0714111328125
-0.01318359375
0.0157470703125
0.046875
0.0633544921875
0.0157470703125
-0.021240234375
-0.046875
-0.0087890625
0.0087890625
-0.0157470703125
0.0164794921875
-0.030029296875
0.0201416015625
-0.0296630859375
0.0054931640625
-0.013916015625
-0.0076904296875
0.016845703125
-0.0128173828125
0.0252685546875
0.0010986328125
0.0098876953125
0.0128173828125
0.0032958984375
0.00146484375
-0.0040283203125
-0.0025634765625
-0.005859375
-0.009521484375
-0.0018310546875
-0.0084228515625
0.0032958984375
0.005126953125
0.003662109375
0.008056640625
-0.0010986328125
0.005126953125
-0.050537109375
0.0
0.035888671875
-0.009521484375
0.0670166015625
0.0018310546875
-0.018310546875
0.0054931640625
0.005126953125
-0.005859375
0.0062255859375
-0.0040283203125
0.0010986328125
0.0040283203125
0.0025634765625
-0.0087890625
-0.0003662109375
-0.0157470703125
-0.0003662109375
-0.017578125
0.0164794921875
-0.0120849609375
0.0238037109375
-0.00732421875
0.0157470703125
-0.0146484375
0.0025634765625
0.0025634765625
0.00732421875
0.002197265625
0.005859375
0.0047607421875
-0.003662109375
0.018310546875
0.0003662109375
0.0263671875
0.0135498046875
-0.0260009765625
-0.01904296875
-0.000732421875
-0.02490234375
-0.0208740234375
0.0216064453125
0.002197265625
0.01904296875
0.0567626953125
0.005859375
-0.01611328125
-0.009521484375
0.0230712890625
-0.0146484375
0.029296875
-0.0098876953125
-0.0018310546875
-0.017578125
0.0003662109375
-0.018310546875
-0.0062255859375
-0.01025390625
-0.015380859375
-0.0164794921875
-0.01611328125
-0.01611328125
-0.03955078125
-0.006591796875
-0.064453125
0.0029296875
-0.066650390625
-0.0025634765625
-0.044708251953125
-0.003662109375
-0.0076904296875
0.008056640625
0.011016845703125
0.000732421875
0.0186767578125
-0.0003662109375
0.02490234375
-0.0618896484375
0.0146484375
0.0281982421875
0.04833984375
0.076904296875
0.022705078125
-0.01318359375
-0.0201416015625
0.0029296875
0.00732421875
-0.00732421875
0.006591796875
-0.0025634765625
-0.00439453125
-0.00439453125
-0.0062255859375
-0.005859375
-0.002197265625
0.005859375
0.0003662109375
0.00146484375
0.016845703125
0.0
0.006591796875
0.003662109375
0.0003662109375
0.0025634765625
0.0062255859375
0.0018310546875
-0.0062255859375
0.0003662109375
0.0010986328125
0.0040283203125
0.0142822265625
0.00732421875
0.0157470703125
0.00732421875
0.0157470703125
-0.0509033203125
0.0164794921875
0.030029296875
0.0157470703125
0.0611572265625
0.0062255859375
-0.0208740234375
-0.0098876953125
-0.00732421875
-0.002197265625
-0.0076904296875
0.0087890625
0.000732421875
-0.005126953125
-0.0087890625
-0.0069580078125
-0.0084228515625
-0.005126953125
0.00439453125
-0.0087890625
0.015380859375
-0.0069580078125
0.00439453125
0.0
-0.0018310546875
-0.0003662109375
0.0029296875
-0.00732421875
0.0018310546875
-0.0128173828125
0.00146484375
0.0010986328125
0.0040283203125
0.017578125
0.008056640625
0.0076904296875
0.0047607421875
0.00439453125
-0.0596923828125
0.0106201171875
0.0194091796875
0.0347900390625
0.064453125
-0.006591796875
-0.01904296875
-0.0406494140625
-0.0040283203125
-0.0054931640625
-0.003662109375
0.0010986328125
-0.005859375
0.003662109375
-0.00732421875
-0.000732421875
-0.003662109375
-0.0091552734375
0.0018310546875
-0.0047607421875
0.0069580078125
0.000732421875
-0.0018310546875
0.0054931640625
-0.0076904296875
0.002197265625
0.000732421875
-0.009521484375
0.0010986328125
-0.0150146484375
0.0018310546875
-0.000732421875
0.0003662109375
0.018310546875
0.00146484375
0.0076904296875
-0.0010986328125
0.0069580078125
-0.0831298828125
0.0084228515625
0.01318359375
0.0421142578125
0.08642578125
-0.0098876953125
-0.0076904296875
-0.0523681640625
-0.0040283203125
0.0025634765625
-0.0054931640625
0.0018310546875
-0.005859375
-0.0040283203125
-0.005126953125
-0.00732421875
-0.0047607421875
-0.00439453125
-0.003662109375
0.0054931640625
0.0
0.0091552734375
0.0018310546875
0.0025634765625
0.0003662109375
-0.002197265625
-0.00439453125
-0.009521484375
-0.0091552734375
-0.00439453125
0.0003662109375
0.00439453125
0.0025634765625
0.01171875
-0.0003662109375
0.010986328125
0.0025634765625
-0.0029296875
-0.0450439453125
0.0062255859375
0.003662109375
0.0216064453125
0.04248046875
-0.0054931640625
-0.00732421875
-0.0194091796875
-0.002197265625
-0.0018310546875
-0.000732421875
-0.003662109375
-0.00439453125
-0.003662109375
-0.008056640625
0.00146484375
-0.0018310546875
0.0032958984375
0.0010986328125
0.0091552734375
0.0025634765625
0.0076904296875
-0.0010986328125
0.0032958984375
-0.003662109375
-0.0113525390625
-0.0029296875
-0.022705078125
-0.0018310546875
-0.000732421875
0.0018310546875
0.010986328125
0.00146484375
0.0087890625
-0.0047607421875
0.01318359375
-0.0703125
0.0062255859375
0.0234375
0.044677734375
0.0743408203125
-0.008056640625
-0.016845703125
-0.0556640625
-0.008056640625
0.0018310546875
-0.003662109375
0.0010986328125
-0.0018310546875
-0.00439453125
-0.0087890625
-0.0040283203125
-0.0106201171875
0.0
0.0003662109375
-0.000732421875
0.008056640625
0.005859375
0.0025634765625
0.0087890625
0.00439453125
-0.0069580078125
0.0029296875
-0.00732421875
-0.005126953125
0.00439453125
0.0029296875
-0.0018310546875
0.0054931640625
0.00732421875
0.00146484375
0.00732421875
-0.017578125
-0.01171875
-0.003662109375
0.0179443359375
0.0296630859375
0.0252685546875
0.0120849609375
-0.0098876953125
-0.0025634765625
-0.0098876953125
-0.0003662109375
0.0032958984375
-0.0018310546875
-0.000732421875
-0.006591796875
0.00146484375
-0.0091552734375
0.0025634765625
0.005859375
-0.010986328125
0.0230712890625
-0.0076904296875
0.0164794921875
0.0025634765625
0.0076904296875
0.0
0.00439453125
-0.0018310546875
0.002197265625
-0.010986328125
0.0054931640625
0.0
0.003662109375
0.0157470703125
0.0040283203125
0.00146484375
-0.0010986328125
-0.005126953125
-0.0465087890625
0.0120849609375
0.010986328125
0.04248046875
0.049072265625
-0.0047607421875
-0.0069580078125
-0.034423828125
-0.0054931640625
-0.00439453125
-0.005126953125
-0.002197265625
-0.015380859375
0.0018310546875
-0.013916015625
-0.003662109375
-0.0018310546875
-0.00439453125
0.0054931640625
0.00146484375
0.00732421875
0.0054931640625
0.0029296875
0.00439453125
-0.0032958984375
-0.0032958984375
-0.008056640625
-0.009521484375
-0.0054931640625
0.00146484375
0.0003662109375
0.0113525390625
0.00146484375
0.005859375
-0.005859375
0.0084228515625
-0.072509765625
0.0150146484375
0.0113525390625
0.0487060546875
0.064453125
-0.0098876953125
-0.015380859375
-0.0545654296875
-0.002197265625
-0.0040283203125
-0.0047607421875
-0.0025634765625
-0.005859375
-0.0054931640625
-0.0047607421875
-0.0076904296875
-0.0076904296875
-0.0040283203125
0.0003662109375
0.00439453125
0.006591796875
0.0069580078125
0.0
0.00439453125
-0.0029296875
-0.0010986328125
-0.0018310546875
-0.0135498046875
-0.0054931640625
-0.0076904296875
-0.0010986328125
0.00732421875
0.003662109375
0.010986328125
0.0
0.0062255859375
-0.0201416015625
-0.0032958984375
-0.005859375
0.03662109375
0.0238037109375
0.008056640625
0.0091552734375
-0.03955078125
-0.0010986328125
-0.0076904296875
-0.005126953125
-0.0018310546875
-0.0076904296875
-0.0054931640625
-0.005126953125
-0.008056640625
-0.005126953125
-0.005126953125
-0.0018310546875
0.0018310546875
0.0025634765625
0.01025390625
0.0032958984375
0.008056640625
0.00146484375
-0.0010986328125
-0.0032958984375
-0.008056640625
-0.005126953125
-0.012451171875
-0.005126953125
0.005126953125
0.003662109375
0.0135498046875
0.003662109375
0.0069580078125
-0.0040283203125
0.01611328125
-0.0772705078125
0.000732421875
0.015380859375
0.04833984375
0.08349609375
0.0003662109375
-0.010986328125
-0.05859375
0.0010986328125
-0.0040283203125
-0.00146484375
-0.0040283203125
-0.008056640625
-0.0010986328125
-0.0025634765625
-0.0084228515625
-0.000732421875
-0.005859375
0.0003662109375
0.0087890625
0.003662109375
0.010986328125
0.000732421875
0.005126953125
-0.0032958984375
0.000732421875
0.00146484375
-0.01025390625
-0.00146484375
-0.0113525390625
0.002197265625
0.0029296875
0.0106201171875
0.0113525390625
0.0076904296875
0.005859375
-0.0003662109375
0.0135498046875
-0.078369140625
0.0018310546875
0.0157470703125
0.0435791015625
0.0860595703125
-0.00439453125
-0.005859375
-0.06005859375
-0.000732421875
-0.0018310546875
0.002197265625
-0.0054931640625
-0.0010986328125
-0.00732421875
-0.005859375
-0.0047607421875
-0.002197265625
-0.003662109375
0.0029296875
0.0025634765625
0.005126953125
0.0098876953125
0.005126953125
0.003662109375
0.000732421875
-0.0025634765625
-0.00146484375
-0.0047607421875
-0.0040283203125
-0.0054931640625
-0.003662109375
0.0047607421875
0.005859375
0.0113525390625
0.005126953125
0.008056640625
0.0
0.0054931640625
-0.04541015625
0.0025634765625
0.028564453125
0.03515625
0.05712890625
-0.00732421875
-0.0234375
-0.03662109375
-0.005126953125
0.002197265625
0.0029296875
-0.005859375
-0.00146484375
-0.0003662109375
-0.0098876953125
0.0018310546875
-0.0087890625
-0.0018310546875
-0.0018310546875
-0.006591796875
0.00439453125
0.0029296875
0.0040283203125
0.0098876953125
-0.000732421875
0.0025634765625
-0.01318359375
0.01611328125
-0.0120849609375
0.015380859375
