-0.314971923828125
-0.114990234375
-0.321197509765625
-0.1051025390625
0.0413818359375
-0.0238037109375
0.0787353515625
-0.02490234375
0.08056640625
-0.006256103515625
0.0889892578125
-0.013214111328125
0.0435791015625
0.000732421875
-0.02490234375
0.019805908203125
-0.062255859375
0.016143798828125
-0.019775390625
-0.0069580078125
-0.0355224609375
0.0142822265625
-0.0531005859375
0.0054931640625
0.0106201171875
0.0062255859375
0.04833984375
0.008056640625
0.0428466796875
0.00732421875
-0.02490234375
0.0194091796875
-0.072509765625
0.012451171875
-0.0604248046875
0.000732421875
-0.0703125
-0.0172119140625
-0.069580078125
0.035888671875
-0.0186767578125
0.041748046875
0.02783203125
0.0084228515625
0.07470703125
0.0062255859375
0.0626220703125
0.0025634765625
-0.0062255859375
0.024169921875
-0.0867919921875
0.0150146484375
-0.11279296875
-0.01904296875
-0.0472412109375
-0.02490234375
-0.0029296875
0.00732421875
0.0157470703125
0.0003662109375
0.0516357421875
-0.0091552734375
0.046142578125
0.0025634765625
-0.0025634765625
0.0076904296875
-0.016845703125
0.0238037109375
0.015380859375
0.008056640625
0.032958984375
-0.0047607421875
0.022705078125
0.0120849609375
-0.137359619140625
0.0933837890625
-0.160430908203125
0.1168212890625
0.122711181640625
-0.0230712890625
0.236602783203125
-0.1446533203125
0.1541748046875
-0.0662841796875
0.093017578125
-0.0216064453125
-0.169921875
-0.034423828125
-0.2340087890625
0.02197265625
0.016845703125
-0.0032958984375
0.0604248046875
-0.00439453125
0.03955078125
0.017578125
0.0472412109375
0.006591796875
0.0487060546875
0.0025634765625
0.085693359375
0.003662109375
0.07470703125
-0.012451171875
-0.017578125
-0.0091552734375
-0.11572265625
0.0999755859375
-0.247222900390625
0.271759033203125
-0.141021728515625
0.165924072265625
0.027862548828125
-0.043212890625
0.035186767578125
-0.071807861328125
0.1849365234375
-0.145050048828125
0.269195556640625
-0.1761474609375
0.123443603515625
-0.0626220703125
-0.023468017578125
0.0303955078125
-0.089385986328125
0.0377197265625
-0.0802001953125
0.0245361328125
0.0205078125
0.0428466796875
-0.360015869140625
0.076171875
-0.56549072265625
-0.0146484375
-0.155303955078125
-0.01904296875
0.0267333984375
0.0933837890625
0.079498291015625
0.104034423828125
0.153839111328125
0.067779541015625
0.58856201171875
0.0703125
1.0
0.08349609375
0.824432373046875
0.203643798828125
0.0
0.405792236328125
0.0
0.288604736328125
-0.036285400390625
-0.330352783203125
-0.56109619140625
-0.726654052734375
-0.71051025390625
-0.449371337890625
-0.34173583984375
-0.152374267578125
-0.301788330078125
-0.097076416015625
-0.242431640625
-0.0849609375
-0.128204345703125
-0.0574951171875
-0.0289306640625
-0.019775390625
0.087921142578125
0.008056640625
0.10546875
0.0377197265625
0.034423828125
0.028564453125
0.0816650390625
-0.0091552734375
0.1146240234375
-0.0062255859375
0.006591796875
0.0238037109375
0.02197265625
-0.0545654296875
0.085693359375
-0.005859375
-0.1365966796875
0.109130859375
-0.304351806640625
0.0380859375
-0.340240478515625
0.021240234375
-0.291168212890625
0.043609619140625
-0.102203369140625
0.033355712890625
-0.006591796875
0.0311279296875
0.0
0.03515625
0.0234375
-0.0113525390625
0.01171875
-0.0322265625
-0.0234375
-0.002197265625
-0.01171875
-0.0113525390625
0.0
-0.002197265625
0.0
0.0333251953125
0.0
0.0113525390625
0.0
-0.0087890625
0.0
-0.0032958984375
0.0
0.0047607421875
0.0
-0.01611328125
0.0
-0.02197265625
0.0
-0.009521484375
0.0
-0.006591796875
0.0076904296875
0.0
0.0325927734375
-0.053497314453125
-0.0076904296875
-0.038848876953125
-0.0325927734375
0.036285400390625
0.0029296875
0.039947509765625
0.030029296875
0.0084228515625
0.046173095703125
0.0054931640625
0.017242431640625
0.019775390625
0.0069580078125
0.01904296875
0.0157470703125
0.0281982421875
0.0142822265625
-0.003662109375
0.0252685546875
-0.0205078125
0.052734375
-0.0128173828125
0.0523681640625
-0.00439453125
0.0413818359375
0.0087890625
0.047607421875
0.0157470703125
0.0150146484375
0.0205078125
-0.0164794921875
0.0
0.010986328125
-0.0010986328125
0.04248046875
0.01171875
0.0369873046875
0.0234375
0.0377197265625
0.01318359375
0.0604248046875
0.0003662109375
0.064453125
0.005126953125
0.040313720703125
0.0054931640625
0.015045166015625
-0.0150146484375
0.056396484375
-0.046142578125
0.0699462890625
0.0230712890625
0.035888671875
0.046875
0.0322265625
0.0091552734375
0.030029296875
0.01318359375
0.0223388671875
0.006591796875
0.015380859375
0.015380859375
-0.0091552734375
0.0150146484375
-0.0172119140625
-0.0157470703125
0.029296875
-0.04541015625
0.03955078125
-0.015380859375
0.0347900390625
-0.00146484375
0.024169921875
-0.00146484375
0.0135498046875
0.005859375
0.0267333984375
-0.0054931640625
0.0303955078125
-0.00732421875
0.0322265625
-0.0062255859375
0.0216064453125
0.00732421875
0.0194091796875
0.0010986328125
0.022705078125
-0.005859375
0.028228759765625
-0.0054931640625
0.028961181640625
0.005126953125
-0.034820556640625
0.0465087890625
0.0069580078125
-0.0560302734375
0.050567626953125
-0.040283203125
0.0062255859375
0.0611572265625
0.0069580078125
0.0208740234375
0.00732421875
0.00732421875
0.0054931640625
0.0106201171875
-0.0025634765625
0.0106201171875
-0.00146484375
0.0069580078125
-0.00146484375
0.01318359375
0.027099609375
-0.0223388671875
0.0428466796875
-0.0208740234375
0.0274658203125
-0.006591796875
0.0205078125
-0.006591796875
0.0201416015625
0.00146484375
0.0087890625
0.0054931640625
0.0120849609375
0.003662109375
0.019775390625
-0.00732421875
0.0018310546875
0.005126953125
0.0025634765625
-0.0003662109375
-0.00146484375
0.00732421875
-0.0040283203125
0.015380859375
0.00732421875
0.009521484375
-0.0076904296875
0.0010986328125
-0.0615234375
-0.008056640625
0.003662109375
-0.0845947265625
0.064453125
0.022705078125
-0.038818359375
0.1226806640625
-0.162628173828125
-0.0029296875
-0.233673095703125
-0.01318359375
-0.1937255859375
0.003662109375
-0.04541015625
0.0054931640625
-0.010986328125
0.01025390625
-0.066650390625
-0.01171875
0.03662109375
-0.0311279296875
0.132568359375
-0.032958984375
-0.084228515625
-0.019775390625
-0.275787353515625
-0.024169921875
-0.234405517578125
-0.00732421875
-0.140625
0.008056640625
-0.0556640625
0.0
-0.002197265625
0.008056640625
0.129638671875
-0.0069580078125
0.07177734375
-0.0106201171875
-0.1160888671875
0.0003662109375
-0.0791015625
0.0106201171875
0.0113525390625
-0.0205078125
-0.035552978515625
-0.0150146484375
-0.01611328125
-0.083892822265625
0.056793212890625
-0.0216064453125
0.0908203125
0.088287353515625
0.1190185546875
-0.0025634765625
0.0948486328125
-0.0025634765625
0.0780029296875
0.0069580078125
0.07470703125
0.000732421875
0.072906494140625
0.00732421875
0.066314697265625
0.005126953125
0.087890625
-0.0238037109375
0.099609375
-0.029296875
0.09521484375
-0.0032958984375
0.093017578125
-0.006591796875
-0.14208984375
0.0157470703125
-0.2138671875
0.0263671875
-0.038818359375
0.0113525390625
0.022705078125
0.00732421875
0.030029296875
0.013916015625
-0.0113525390625
0.01904296875
-0.000732421875
0.002197265625
0.0362548828125
0.0234375
0.0618896484375
0.040283203125
0.0340576171875
0.037353515625
-0.0135498046875
0.0333251953125
0.07763671875
-0.076904296875
0.1256103515625
0.0234375
0.07470703125
0.1263427734375
0.037353515625
0.0281982421875
0.0076904296875
0.01318359375
0.01904296875
0.0128173828125
0.053863525390625
0.01025390625
0.180938720703125
0.05419921875
0.848602294921875
0.124908447265625
0.709808349609375
0.136993408203125
0.0003662109375
0.094482421875
0.0
0.0157470703125
-0.271026611328125
-0.0355224609375
-0.090850830078125
-0.0333251953125
0.1336669921875
0.0377197265625
0.090850830078125
0.076904296875
0.137359619140625
0.196685791015625
0.0
0.43402099609375
0.0
0.267730712890625
0.0
0.0
0.0
0.0
0.0
0.0
-0.0003662109375
0.0003662109375
0.0
0.0003662109375
0.0
-0.0003662109375
-0.0003662109375
-0.0003662109375
0.0
0.0
0.0003662109375
0.0
0.0003662109375
0.0
0.0
0.0003662109375
0.0
0.0
0.0
-0.0003662109375
0.0
0.0
0.0
0.0
-1.0
-0.000732421875
-1.0
-0.0003662109375
1.0
0.000732421875
0.901336669921875
0.0003662109375
0.0025634765625
0.0003662109375
0.102935791015625
0.0
-0.0025634765625
0.0
0.0003662109375
0.0003662109375
0.0
-0.0003662109375
0.0
-0.0003662109375
-0.0003662109375
0.0
-0.0003662109375
-1.0
0.0003662109375
-1.0
-0.956298828125
0.72003173828125
-1.0
0.0
-0.54022216796875
-1.0
0.0
0.0
0.0
0.0
0.0
0.0
0.0
0.0
0.0
0.0
0.0
0.0
0.0
0.0
0.0
0.0
0.0
0.0
0.0
0.0
0.0
0.0
0.0
0.0
0.0
0.0
0.0
0.0
0.0
0.0
0.0
0.0
0.0
0.0
0.0
0.0
0.0
0.0
0.0
0.0
1.0
0.0
0.0
0.0
-1.0
0.0
0.0
0.0
0.0
0.0
0.0
0.0
0.0
0.0
0.0
0.0
0.0
0.0
0.0
0.0
0.0
0.0
0.0
0.0
1.0
0.0
1.0
0.0
-0.0025634765625
0.0
0.0
0.0
0.0
0.0
-0.985595703125
0.0
-0.8944091796875
0.0
0.9852294921875
0.0
0.8944091796875
0.0
0.0003662109375
0.0
-1.0
0.0
-1.0
0.0
0.0
0.0
0.0
0.0
0.0
0.0
0.0
0.0
1.0
0.0
1.0
0.0
-0.0040283203125
0.0
-1.0
0.0
-1.0
0.0
0.0
0.0
0.0
0.0
0.0
0.0
0.0
0.0
0.0
0.0
0.0
0.0
0.0
0.0
1.0
0.0
1.0
0.0
-0.0025634765625
0.50103759765625
0.0
1.0
-1.0
0.9976806640625
-1.0
-0.0010986328125
0.0
0.0
0.0
0.0003662109375
0.0
0.0
1.0
-1.0
1.0
-1.0
-0.0010986328125
-0.35858154296875
-0.0194091796875
-0.164093017578125
-1.0
0.0
-1.0
0.0
-0.009521484375
0.0
0.0
0.0
0.0
0.0
0.0
0.0
0.0
0.0
0.0
0.0
0.0
0.0
0.48492431640625
0.0
1.0
0.0
0.01171875
0.0
-0.63433837890625
0.0
-0.49664306640625
0.0
-0.721160888671875
0.0
0.0
0.0
0.750823974609375
0.0
1.0
0.0
0.746063232421875
0.0
-1.0
0.0
-1.0
0.0
-0.018310546875
0.0
0.0
0.0
0.0
0.0
0.0
0.0
0.0
0.0
0.0
0.0
0.0
0.0
0.0
0.0
0.0
0.0
0.0
0.0
0.0
0.0
0.0
0.0
0.0
0.0
0.0
0.0
0.0
0.0
0.0
0.0
0.0
0.0
0.0
0.0
0.0
0.0
0.0
0.0
0.0
0.0
0.0
0.0
0.0
0.058624267578125
0.0
0.229278564453125
0.0
0.213134765625
0.0
0.127105712890625
0.0
0.117218017578125
0.0
0.0673828125
0.0
0.0732421875
0.0
0.030029296875
0.0
0.012451171875
0.0
0.0084228515625
0.0
0.0443115234375
0.0
0.0582275390625
0.0
0.0439453125
0.0
0.0479736328125
0.0
-0.0076904296875
0.0
0.0018310546875
0.0
-0.025634765625
0.060089111328125
-0.034423828125
0.106597900390625
-0.075439453125
0.072509765625
-0.0977783203125
-0.0296630859375
-0.0787353515625
-0.085693359375
-0.031494140625
0.0465087890625
-0.0260009765625
0.1201171875
-0.025634765625
0.0596923828125
0.098876953125
0.071044921875
0.0457763671875
0.01025390625
0.030029296875
-0.07763671875
0.0538330078125
-0.029296875
0.0340576171875
0.0201416015625
0.041015625
0.03662109375
0.0186767578125
0.04248046875
0.005859375
0.062255859375
-0.0355224609375
0.07177734375
0.005126953125
0.0369873046875
0.0018310546875
0.0069580078125
-0.005126953125
0.028961181640625
0.012451171875
0.053131103515625
-0.01171875
0.0362548828125
0.01025390625
0.0142822265625
0.0029296875
0.0146484375
0.05126953125
0.029296875
0.04541015625
0.019775390625
0.055694580078125
-0.0106201171875
0.053497314453125
-0.010986328125
0.0146484375
-0.059326171875
0.032958984375
-0.0322265625
-0.101104736328125
-0.032989501953125
0.0135498046875
-0.145050048828125
0.109893798828125
-0.1571044921875
0.0047607421875
-0.0904541015625
-0.0216064453125
-0.0556640625
0.003662109375
-0.056396484375
0.0234375
-0.054962158203125
-0.0098876953125
-0.0128173828125
0.0128173828125
0.105865478515625
-0.0062255859375
0.1285400390625
0.0498046875
0.07470703125
0.073974609375
0.0589599609375
0.084228515625
0.0662841796875
0.0743408203125
0.00146484375
0.081298828125
-0.022705078125
0.102569580078125
0.0289306640625
0.054595947265625
0.0245361328125
0.078369140625
0.018310546875
0.0845947265625
0.0230712890625
0.1226806640625
0.03076171875
0.1083984375
0.037017822265625
0.099639892578125
0.039947509765625
0.073272705078125
0.0091552734375
0.0245361328125
0.0531005859375
-0.028961181640625
0.0223388671875
-0.0010986328125
-0.093414306640625
0.099273681640625
-0.0322265625
0.0263671875
0.036285400390625
0.0098876953125
0.0391845703125
-0.017578125
0.0443115234375
-0.03076171875
0.035888671875
-0.017578125
0.0333251953125
-0.0692138671875
0.052734375
-0.060455322265625
0.05419921875
-0.052032470703125
0.03662109375
-0.0333251953125
0.03076171875
-0.0556640625
0.0281982421875
-0.057861328125
0.03369140625
-0.0457763671875
0.0289306640625
-0.0494384765625
0.0157470703125
-0.0333251953125
0.0172119140625
-0.068115234375
0.0054931640625
-0.072509765625
-0.00439453125
-0.108062744140625
0.021240234375
-0.101104736328125
0.045074462890625
-0.094482421875
0.024932861328125
-0.0845947265625
-0.041046142578125
-0.044677734375
0.00439453125
-0.10693359375
0.046905517578125
-0.0076904296875
-0.00146484375
0.0604248046875
0.005126953125
0.0113525390625
0.0098876953125
-0.01025390625
0.002197265625
0.01318359375
-0.0010986328125
0.03076171875
-0.0091552734375
0.0172119140625
-0.0003662109375
0.01611328125
0.037353515625
-0.0296630859375
0.041015625
-0.0018310546875
0.0281982421875
-0.0003662109375
0.0413818359375
0.0135498046875
0.0384521484375
-0.005126953125
0.0194091796875
0.000732421875
0.0098876953125
0.02490234375
0.00732421875
0.005859375
0.0421142578125
0.0157470703125
0.00439453125
-0.006591796875
0.0025634765625
0.02783203125
0.0322265625
0.0146484375
-0.0194091796875
0.0135498046875
-0.0487060546875
0.03662109375
0.012451171875
-0.0589599609375
0.03515625
-0.0087890625
-0.0003662109375
0.06298828125
0.0
0.031494140625
-0.016845703125
0.0076904296875
-0.0263671875
0.034423828125
-0.01904296875
0.0391845703125
-0.01025390625
0.0281982421875
-0.008056640625
0.022705078125
0.03076171875
-0.0252685546875
0.0340576171875
-0.0091552734375
-0.003662109375
-0.0040283203125
0.008056640625
0.0186767578125
0.000732421875
0.0018310546875
-0.034423828125
0.0150146484375
-0.0084228515625
0.01318359375
0.0245361328125
-0.0157470703125
0.002197265625
0.0
-0.0179443359375
-0.0146484375
-0.0029296875
-0.022705078125
-0.0172119140625
-0.03515625
-0.0340576171875
0.01318359375
-0.005126953125
-0.0128173828125
-0.0369873046875
-0.01025390625
0.0274658203125
-0.112060546875
0.063720703125
-0.0531005859375
-0.0025634765625
0.0908203125
0.0179443359375
-0.022705078125
0.00732421875
-0.005859375
-0.0157470703125
-0.00732421875
-0.024169921875
0.01318359375
-0.0296630859375
0.0252685546875
-0.01904296875
0.0054931640625
0.0186767578125
-0.0179443359375
0.0150146484375
-0.035888671875
-0.0032958984375
0.000732421875
0.0087890625
-0.01611328125
0.0032958984375
0.0076904296875
-0.0267333984375
0.00439453125
-0.029296875
-0.0010986328125
-0.0091552734375
-0.003662109375
-0.0164794921875
-0.029296875
-0.0377197265625
-0.0260009765625
-0.03955078125
-0.0443115234375
-0.0146484375
-0.0146484375
0.0113525390625
-0.02197265625
0.0
-0.00732421875
-0.063018798828125
0.034423828125
-0.00732421875
-0.0677490234375
0.050201416015625
-0.04541015625
0.0003662109375
0.046875
0.000732421875
0.012451171875
0.01318359375
-0.01611328125
0.0032958984375
0.015380859375
-0.005859375
0.0120849609375
-0.0087890625
0.0179443359375
-0.012451171875
0.0135498046875
0.015380859375
-0.03955078125
0.030029296875
-0.0234375
0.0201416015625
-0.0157470703125
0.0157470703125
0.003662109375
0.009521484375
-0.0084228515625
0.0029296875
0.01025390625
0.005859375
0.0032958984375
0.01171875
-0.005859375
0.00732421875
0.0076904296875
0.0069580078125
-0.009521484375
0.0069580078125
0.009521484375
0.0069580078125
-0.01318359375
0.0120849609375
0.0032958984375
0.0142822265625
-0.00439453125
-0.0010986328125
0.0142822265625
-0.0113525390625
0.0
0.01611328125
-0.0340576171875
0.0208740234375
0.0252685546875
-0.000732421875
0.01611328125
0.0
0.01611328125
-0.005126953125
0.0
-0.0135498046875
0.0142822265625
-0.0135498046875
0.0157470703125
-0.019775390625
0.0062255859375
0.00439453125
-0.0179443359375
0.02783203125
-0.0377197265625
0.0087890625
0.0084228515625
-0.0018310546875
-0.0069580078125
-0.0010986328125
0.012451171875
-0.0234375
0.0069580078125
-0.054931640625
0.0186767578125
-0.0289306640625
-0.0223388671875
0.00439453125
-0.081298828125
-0.0029296875
-0.046905517578125
0.0010986328125
-0.040679931640625
0.0091552734375
-0.0106201171875
0.015380859375
-0.0120849609375
0.0216064453125
0.012451171875
-0.03076171875
0.050567626953125
0.0040283203125
-0.03369140625
0.0516357421875
-0.021270751953125
0.0047607421875
0.061920166015625
-0.0025634765625
0.042510986328125
0.0032958984375
0.0069580078125
-0.002197265625
0.03662109375
-0.0091552734375
0.03369140625
-0.010986328125
0.0380859375
-0.01025390625
0.034423828125
0.022705078125
-0.00146484375
0.0347900390625
0.0164794921875
0.0150146484375
0.01611328125
0.0113525390625
0.031494140625
0.00732421875
0.010986328125
0.002197265625
0.0267333984375
0.0069580078125
0.015380859375
0.005859375
0.01025390625
-0.0032958984375
0.0238037109375
0.0
0.00732421875
-0.0018310546875
0.0311279296875
0.003662109375
0.021240234375
0.00732421875
0.034423828125
-0.002197265625
0.0135498046875
-0.04833984375
0.02197265625
0.0135498046875
-0.0706787109375
0.0439453125
0.008056640625
-0.0260009765625
0.13037109375
-0.0084228515625
0.033721923828125
-0.0029296875
0.036651611328125
-0.0245361328125
0.018310546875
-0.03515625
0.054931640625
-0.0252685546875
0.047607421875
-0.0087890625
0.0128173828125
0.0267333984375
-0.01025390625
0.0303955078125
-0.02197265625
0.01318359375
0.0040283203125
0.005859375
-0.0113525390625
0.000732421875
0.00146484375
0.00146484375
-0.013916015625
0.0
-0.0003662109375
-0.0029296875
0.0003662109375
-0.00439453125
-0.01171875
-0.0018310546875
-0.0054931640625
-0.0069580078125
-0.0260009765625
-0.0098876953125
-0.010986328125
-0.0032958984375
-0.029296875
-0.00732421875
-0.009521484375
-0.02490234375
-0.035552978515625
0.0054931640625
-0.042144775390625
0.022705078125
0.019775390625
0.00146484375
0.017242431640625
0.0025634765625
-0.00146484375
-0.008056640625
-0.011383056640625
-0.0164794921875
0.026397705078125
-0.0150146484375
0.019073486328125
-0.025634765625
0.0260009765625
-0.00146484375
-0.0087890625
0.0311279296875
-0.03662109375
0.0135498046875
-0.00146484375
-0.0098876953125
-0.013580322265625
-0.006591796875
-0.012847900390625
0.002197265625
-0.027099609375
-0.0054931640625
-0.00732421875
-0.0040283203125
-0.02490234375
0.0025634765625
-0.0245361328125
-0.000732421875
-0.012451171875
-0.000732421875
-0.0263671875
0.0010986328125
-0.013916015625
0.002197265625
-0.02490234375
-0.000732421875
-0.0091552734375
-0.040283203125
0.0106201171875
-0.002197265625
-0.0428466796875
0.03515625
-0.0596923828125
-0.0069580078125
0.0194091796875
-0.0084228515625
0.0087890625
0.0
-0.0223388671875
-0.0025634765625
0.0029296875
-0.0076904296875
-0.01025390625
-0.01025390625
0.0069580078125
-0.01611328125
-0.0098876953125
0.0076904296875
-0.040283203125
0.028564453125
-0.0369873046875
0.0142822265625
-0.021240234375
0.005859375
-0.0087890625
0.0
-0.034423828125
-0.008056640625
-0.015380859375
-0.003662109375
-0.0260009765625
0.0025634765625
-0.016845703125
0.0054931640625
-0.0216064453125
0.0054931640625
-0.0205078125
-0.0018310546875
-0.0029296875
-0.0018310546875
-0.0098876953125
0.005859375
0.008056640625
0.005859375
-0.0106201171875
-0.06298828125
0.04248046875
0.0150146484375
-0.110260009765625
0.06591796875
-0.03076171875
-0.0135498046875
0.122344970703125
0.0
0.003662109375
-0.0003662109375
0.017578125
-0.0047607421875
0.006591796875
-0.01025390625
0.0245361328125
-0.0098876953125
0.0098876953125
-0.003662109375
0.008056640625
0.0128173828125
-0.0318603515625
0.0194091796875
-0.03076171875
0.0076904296875
0.0087890625
0.00439453125
-0.0062255859375
0.0076904296875
0.0084228515625
0.0029296875
0.0010986328125
-0.0018310546875
0.0128173828125
0.000732421875
-0.005859375
0.0003662109375
0.0018310546875
0.0029296875
0.00439453125
0.0003662109375
-0.0040283203125
-0.00439453125
0.0120849609375
0.0040283203125
-0.0062255859375
-0.043212890625
0.0245361328125
0.0120849609375
-0.091583251953125
0.049072265625
0.003662109375
-0.0172119140625
0.103668212890625
-0.0084228515625
0.003662109375
-0.0076904296875
0.0128173828125
-0.0113525390625
0.002197265625
-0.0135498046875
0.02197265625
-0.0179443359375
0.013916015625
-0.00146484375
0.00732421875
0.032958984375
-0.038818359375
0.0245361328125
-0.0157470703125
0.0
0.00732421875
0.0003662109375
-0.008056640625
0.002197265625
0.0003662109375
0.0010986328125
-0.0120849609375
0.00146484375
0.0087890625
-0.003662109375
-0.005859375
-0.009521484375
0.01171875
-0.0054931640625
0.0025634765625
0.0025634765625
-0.002197265625
0.000732421875
0.0032958984375
0.0029296875
-0.0076904296875
0.0084228515625
0.0150146484375
-0.0234375
0.025634765625
-0.00146484375
-0.01611328125
0.0296630859375
-0.0318603515625
0.0032958984375
0.052734375
-0.0018310546875
0.0289306640625
0.0010986328125
0.0062255859375
-0.0025634765625
0.0406494140625
-0.0087890625
0.03955078125
-0.0150146484375
0.0523681640625
-0.018310546875
0.0201416015625
0.0150146484375
-0.008056640625
0.044677734375
-0.021240234375
0.022705078125
0.0032958984375
0.0003662109375
0.012451171875
-0.0003662109375
0.0
0.00146484375
0.017578125
0.0018310546875
-0.0032958984375
0.0010986328125
0.013916015625
0.0025634765625
0.0029296875
0.0047607421875
0.01171875
0.0032958984375
0.0135498046875
-0.002197265625
0.0003662109375
0.002197265625
0.012451171875
0.0106201171875
-0.0003662109375
-0.046875
0.052734375
0.0106201171875
-0.07470703125
0.04541015625
-0.0150146484375
-0.01611328125
0.099609375
-0.0032958984375
0.0234375
-0.0003662109375
0.0234375
-0.0069580078125
0.01025390625
-0.024169921875
0.031890869140625
-0.0333251953125
0.024566650390625
-0.030029296875
0.02783203125
0.019775390625
-0.032257080078125
0.0380859375
-0.028564453125
0.0076904296875
0.0025634765625
-0.035888671875
0.03955078125
-0.043212890625
0.055694580078125
-0.0245361328125
0.0216064453125
0.0076904296875
0.0069580078125
0.075439453125
-0.075836181640625
0.0450439453125
-0.0501708984375
-0.003662109375
-0.0146484375
0.010986328125
-0.006988525390625
0.005126953125
-0.0047607421875
-0.00439453125
-0.015380859375
0.0098876953125
-0.00146484375
-0.028564453125
-0.0025634765625
-0.0399169921875
-0.0318603515625
0.01171875
-0.046142578125
-0.0054931640625
0.0252685546875
-0.0216064453125
0.008056640625
-0.00146484375
-0.0208740234375
-0.0062255859375
-0.00732421875
-0.0157470703125
-0.0087890625
-0.0157470703125
0.009521484375
-0.016845703125
-0.0076904296875
0.0128173828125
-0.0245361328125
0.0377197265625
-0.0498046875
0.02490234375
-0.0322265625
0.0234375
-0.0223388671875
0.0498046875
-0.0303955078125
-0.0135498046875
-0.009521484375
-0.0531005859375
-0.0274658203125
-0.0091552734375
-0.01611328125
-0.0069580078125
-0.0216064453125
-0.0076904296875
-0.0040283203125
-0.0084228515625
-0.009521484375
-0.005126953125
-0.0146484375
0.0010986328125
0.00732421875
0.0047607421875
-0.0087890625
-0.0498046875
0.047607421875
-0.00439453125
-0.0589599609375
0.0501708984375
-0.0406494140625
0.002197265625
0.0509033203125
-0.018310546875
0.0076904296875
-0.0260009765625
0.005859375
-0.006591796875
-0.0062255859375
-0.0010986328125
0.01171875
-0.0260009765625
0.008056640625
-0.034423828125
0.0106201171875
0.013916015625
-0.0457763671875
0.037353515625
-0.0318603515625
0.0179443359375
-0.0084228515625
0.0091552734375
-0.0076904296875
0.0047607421875
0.0018310546875
0.0025634765625
-0.0087890625
-0.005126953125
0.0186767578125
-0.024169921875
0.0238037109375
-0.0263671875
0.0377197265625
-0.0172119140625
0.008056640625
0.008056640625
-0.0142822265625
0.0146484375
-0.0040283203125
-0.00146484375
0.010986328125
0.0018310546875
0.01025390625
-0.0428466796875
0.0201416015625
0.03662109375
-0.10107421875
0.0732421875
-0.052001953125
-0.0040283203125
0.10546875
0.0062255859375
0.0040283203125
0.00439453125
-0.0032958984375
-0.0003662109375
0.01611328125
-0.0069580078125
0.006591796875
-0.017578125
0.0289306640625
-0.021240234375
0.0029296875
0.013916015625
-0.0194091796875
0.03076171875
-0.027099609375
0.005859375
0.0084228515625
0.002197265625
0.005859375
0.008056640625
-0.01318359375
0.005126953125
0.00439453125
0.005126953125
-0.0135498046875
0.006591796875
0.006591796875
0.0054931640625
-0.005859375
0.0040283203125
0.006591796875
0.0018310546875
0.005126953125
-0.00146484375
0.0
0.0040283203125
0.0084228515625
0.005859375
-0.00439453125
-0.043212890625
0.04833984375
0.002197265625
-0.05419921875
0.0509033203125
-0.0318603515625
-0.0106201171875
0.052001953125
-0.019775390625
0.0120849609375
-0.005859375
0.008056640625
-0.0047607421875
0.0032958984375
-0.008056640625
0.019775390625
-0.0164794921875
0.010986328125
-0.0267333984375
0.018310546875
0.00439453125
-0.0377197265625
0.0289306640625
-0.0296630859375
0.012451171875
-0.006591796875
0.005859375
-0.0029296875
0.0029296875
0.00732421875
-0.000732421875
-0.0069580078125
-0.0003662109375
0.005859375
0.003662109375
-0.0098876953125
0.003662109375
0.005126953125
0.0003662109375
-0.0062255859375
0.00439453125
0.0076904296875
0.0303955078125
0.006591796875
0.0611572265625
-0.008056640625
0.188995361328125
0.0106201171875
0.53070068359375
-0.013916015625
0.56512451171875
-0.0450439453125
-0.404693603515625
-0.115020751953125
-1.0
-0.03369140625
-0.904296875
0.00439453125
-0.040313720703125
-0.039581298828125
0.0
-0.01171875
0.110260009765625
0.029327392578125
0.317901611328125
0.140289306640625
0.57171630859375
0.240966796875
0.9368896484375
0.347564697265625
0.61785888671875
0.43585205078125
0.112060546875
0.42816162109375
0.197052001953125
0.195587158203125
0.129669189453125
0.0003662109375
-0.0003662109375
0.0
0.0003662109375
-0.0003662109375
0.0003662109375
0.0
-1.0
-0.0003662109375
0.0025634765625
0.0
1.0
0.000732421875
-0.0025634765625
0.0003662109375
0.0
0.0
-0.0003662109375
-0.0003662109375
-0.0003662109375
-0.0003662109375
0.0003662109375
0.0
0.0
0.0
0.0
0.0
0.0003662109375
0.0
0.0
0.0
0.0
0.0
0.0
0.0
0.0
0.0003662109375
0.0
0.0
0.0
-0.0003662109375
0.0
0.0003662109375
0.0
0.0
0.0
-0.0003662109375
0.0
0.0
0.0
0.0003662109375
-0.740570068359375
-0.0003662109375
-0.854461669921875
-1.0
0.353790283203125
-1.0
0.80389404296875
-0.000732421875
-1.0
0.0
-1.0
0.0
-0.0010986328125
0.0
0.0
0.0
0.0
0.0
0.0
0.0
0.0
0.0
0.0
0.0
0.0
0.0
1.0
0.0
1.0
0.0
0.210968017578125
0.0
0.0
0.0
0.0
0.0
-1.0
1.0
-1.0
1.0
0.284210205078125
-1.0
0.32598876953125
-1.0
-0.284210205078125
0.0
-0.32598876953125
0.0
0.0
0.0
0.0
0.0
0.0
0.0
0.0
1.0
0.0
1.0
0.0
0.0
0.0
-0.0003662109375
0.0
0.0
0.0
0.0
0.0
0.0
0.0
0.0
0.38128662109375
-0.51312255859375
0.96728515625
-1.0
-0.38128662109375
-0.985595703125
-0.96728515625
0.0
0.0
0.0
0.0
1.0
0.0
1.0
0.0
-1.0
0.0
-1.0
0.0
0.0
0.0
0.208770751953125
0.0
0.797332763671875
0.0
1.0
0.0
0.701385498046875
0.0
-1.0
0.0
-1.0
0.34576416015625
0.0
0.9189453125
0.0
-0.34576416015625
0.0
-0.9189453125
0.0
0.0
1.0
0.0
1.0
0.272491455078125
-0.0205078125
1.0
-1.0
0.9775390625
-1.0
0.44866943359375
0.0
0.246490478515625
0.0
-0.127838134765625
0.0
-1.0
0.0
-1.0
0.757049560546875
1.0
0.47357177734375
1.0
-0.757049560546875
-0.0003662109375
-0.47357177734375
0.0
0.0
0.0
0.0
0.0
0.0
0.0
0.0
-0.0003662109375
0.0
0.0
0.0
0.0003662109375
0.0
-0.0003662109375
0.0
-0.0003662109375
0.0
0.0003662109375
0.0
0.0
0.0
0.0
0.0
0.0003662109375
0.0
0.0
0.0
-0.0003662109375
0.0
-0.0003662109375
0.0
-0.049468994140625
0.0
-0.095611572265625
0.0
-0.1007080078125
0.0
-0.1248779296875
0.0
-0.250518798828125
0.0
-1.0
1.0
-1.0
1.0
0.0
-0.53729248046875
0.166290283203125
-1.0
1.0
-0.809417724609375
1.0
0.0
0.16259765625
0.0
0.09521484375
0.0
0.01025390625
0.0
-0.0194091796875
0.0
-0.0164794921875
0.0
-0.0838623046875
0.0
-0.031494140625
0.0
0.0
0.0
-0.087890625
0.0
-0.1702880859375
0.0
-0.51165771484375
0.0
-1.0
0.48748779296875
-0.796234130859375
1.0
0.83795166015625
-0.48565673828125
1.0
-1.0
0.48052978515625
-0.0018310546875
0.08935546875
0.0
0.1058349609375
0.0
0.0
0.0
-0.056396484375
0.0
-0.0714111328125
0.054229736328125
-0.06591796875
0.114654541015625
-0.013916015625
0.03955078125
-0.0084228515625
0.0406494140625
-0.044677734375
0.097412109375
-0.035888671875
0.0703125
-0.0662841796875
0.1138916015625
-0.0479736328125
0.050537109375
-0.0179443359375
0.116851806640625
-0.0325927734375
0.184600830078125
0.0003662109375
0.094482421875
-0.047637939453125
0.0472412109375
-0.109893798828125
0.016845703125
-0.1292724609375
0.065185546875
-0.109130859375
0.05712890625
-0.162261962890625
0.124176025390625
-0.39959716796875
0.33258056640625
-0.58306884765625
0.52740478515625
-0.60467529296875
0.57574462890625
-0.295196533203125
0.273956298828125
0.0
0.0
0.0
0.0
0.34063720703125
-0.38787841796875
0.776458740234375
-0.862518310546875
0.471710205078125
-0.502471923828125
-0.0772705078125
-0.0128173828125
0.151275634765625
-0.33184814453125
0.250152587890625
-0.39703369140625
0.000732421875
-0.0977783203125
-0.031494140625
0.043212890625
-0.0589599609375
0.1376953125
-0.01025390625
0.083526611328125
-0.017608642578125
0.049835205078125
-0.036285400390625
0.0347900390625
-0.0538330078125
0.03076171875
-0.0582275390625
0.0699462890625
-0.0758056640625
0.1029052734375
-0.0596923828125
0.0186767578125
-0.0135498046875
-0.03662109375
-0.034423828125
-0.000732421875
-0.0029296875
-0.02783203125
0.032958984375
-0.0596923828125
0.0087890625
0.0216064453125
-0.06298828125
0.0618896484375
-0.0556640625
0.0135498046875
0.005859375
-0.0238037109375
0.0084228515625
-0.0113525390625
0.0128173828125
0.0205078125
-0.006591796875
0.0069580078125
-0.03076171875
0.0018310546875
0.0150146484375
-0.0560302734375
0.0263671875
-0.0098876953125
-0.0142822265625
0.0501708984375
-0.0047607421875
0.0142822265625
-0.010986328125
0.02490234375
-0.030029296875
0.0252685546875
-0.0384521484375
0.0494384765625
-0.03076171875
0.0010986328125
0.0120849609375
-0.0325927734375
0.02490234375
-0.0208740234375
0.0128173828125
-0.0157470703125
0.0142822265625
-0.0234375
0.0120849609375
-0.03955078125
0.0146484375
-0.032958984375
0.00732421875
-0.03662109375
0.01318359375
-0.0098876953125
0.016845703125
-0.005859375
-0.003662109375
0.031494140625
-0.0157470703125
0.03369140625
-0.0106201171875
-0.00439453125
-0.069580078125
0.0736083984375
-0.141754150390625
0.119384765625
-0.046539306640625
0.0567626953125
0.03955078125
-0.009521484375
0.072174072265625
-0.06298828125
0.065948486328125
-0.0736083984375
0.0435791015625
-0.0289306640625
0.0560302734375
-0.0146484375
0.012451171875
0.0040283203125
-0.0120849609375
0.0333251953125
0.010986328125
-0.0087890625
0.038818359375
-0.0205078125
0.0238037109375
-0.006591796875
0.009521484375
0.0091552734375
0.0062255859375
0.0084228515625
0.0076904296875
-0.01025390625
0.016845703125
-0.0047607421875
0.0091552734375
-0.021240234375
-0.00146484375
0.0084228515625
-0.0032958984375
0.024169921875
0.00146484375
0.0501708984375
0.008056640625
0.040283203125
0.00732421875
0.031494140625
-0.0087890625
0.076904296875
-0.0194091796875
0.075469970703125
0.0087890625
0.073272705078125
0.0106201171875
0.1065673828125
-0.0032958984375
0.100341796875
0.0003662109375
0.034423828125
-0.0047607421875
0.046875
-0.0120849609375
0.076904296875
-0.016845703125
0.079498291015625
-0.019775390625
0.062286376953125
0.0054931640625
0.0
0.0333251953125
-0.0003662109375
0.0054931640625
0.0230712890625
-0.000732421875
0.027099609375
0.016845703125
-0.008056640625
0.0172119140625
-0.010986328125
0.0084228515625
0.0069580078125
-0.000732421875
0.0025634765625
0.0029296875
0.0267333984375
0.0029296875
0.0303955078125
-0.0029296875
0.0501708984375
0.0029296875
0.0303955078125
0.0098876953125
0.0179443359375
-0.00146484375
0.01318359375
-0.0362548828125
-0.005126953125
-0.00439453125
-0.0201416015625
0.0164794921875
0.0208740234375
-0.015380859375
0.0465087890625
-0.0106201171875
-0.0135498046875
-0.0076904296875
-0.0010986328125
-0.0142822265625
0.0010986328125
-0.0281982421875
0.0263671875
-0.0216064453125
0.0281982421875
0.02783203125
-0.03955078125
0.0457763671875
-0.0516357421875
0.018310546875
-0.0443115234375
0.01318359375
-0.0311279296875
0.0029296875
-0.0465087890625
-0.003662109375
-0.04248046875
-0.0010986328125
-0.0322265625
0.0018310546875
-0.031524658203125
0.002197265625
-0.021636962890625
-0.003662109375
-0.032958984375
-0.0047607421875
-0.0208740234375
-0.0062255859375
-0.03076171875
-0.01025390625
-0.0150146484375
-0.0098876953125
-0.010986328125
0.0
-0.0120849609375
-0.005126953125
-0.0040283203125
-0.043212890625
-0.015380859375
0.00146484375
-0.053466796875
0.0216064453125
-0.002197265625
-0.0157470703125
0.0487060546875
0.0
-0.02197265625
-0.0010986328125
-0.0054931640625
-0.01171875
0.0054931640625
-0.0142822265625
0.0040283203125
-0.01611328125
0.0047607421875
-0.0047607421875
-0.035888671875
0.0263671875
-0.040283203125
0.022705078125
-0.034423828125
0.0076904296875
-0.025634765625
0.0025634765625
-0.0428466796875
-0.003662109375
-0.0347900390625
-0.0040283203125
-0.0164794921875
-0.00146484375
-0.0234375
0.002197265625
-0.0252685546875
-0.000732421875
-0.0380859375
-0.002197265625
-0.0164794921875
-0.0047607421875
-0.022705078125
-0.0062255859375
-0.0120849609375
0.002197265625
-0.006622314453125
0.0062255859375
-0.0069580078125
-0.031494140625
0.031524658203125
-0.0142822265625
-0.028961181640625
0.0384521484375
-0.042877197265625
0.0146484375
0.0113525390625
-0.002197265625
0.019073486328125
-0.0062255859375
-0.000732421875
-0.0054931640625
0.002197265625
-0.00439453125
0.012481689453125
-0.0146484375
0.01025390625
-0.016845703125
0.0142822265625
0.010986328125
-0.031524658203125
0.03662109375
-0.029693603515625
0.0164794921875
-0.0157470703125
0.0047607421875
-0.0029296875
-0.00146484375
-0.000732421875
-0.03662109375
0.022735595703125
-0.032958984375
0.0146484375
0.0172119140625
-0.042510986328125
0.0252685546875
-0.0208740234375
0.005126953125
-0.0087890625
0.003662109375
0.003662109375
0.0025634765625
-0.003662109375
0.0
0.0
0.006591796875
0.0025634765625
0.0069580078125
-0.0003662109375
-0.0252685546875
0.0347900390625
-0.010986328125
-0.0238037109375
0.03076171875
-0.0260009765625
0.0113525390625
0.0267333984375
-0.000732421875
0.0263671875
-0.0003662109375
0.009521484375
-0.0040283203125
0.0054931640625
-0.0076904296875
0.0164794921875
-0.0179443359375
0.017608642578125
-0.0223388671875
0.027496337890625
0.0062255859375
-0.022735595703125
0.03515625
-0.0238037109375
0.0179443359375
-0.006591796875
0.003662109375
-0.007720947265625
0.0
-0.01171875
-0.0047607421875
-0.0263671875
-0.00146484375
-0.019775390625
0.0
-0.0179443359375
0.0025634765625
-0.0018310546875
-0.000732421875
-0.01611328125
0.0025634765625
-0.0029296875
0.00146484375
0.0003662109375
-0.0047607421875
-0.0018310546875
0.0018310546875
0.0091552734375
0.003662109375
0.0
-0.057861328125
0.058624267578125
0.0062255859375
-0.0780029296875
0.060791015625
-0.038848876953125
-0.009521484375
0.0889892578125
-0.0040283203125
0.01904296875
-0.0032958984375
0.0128173828125
-0.008056640625
0.00732421875
-0.01171875
0.0260009765625
-0.0201416015625
0.017974853515625
-0.0172119140625
0.021636962890625
0.017578125
-0.026763916015625
0.0377197265625
-0.025299072265625
0.0146484375
0.000732421875
0.0032958984375
0.005126953125
0.0025634765625
0.012451171875
-0.002197265625
0.002227783203125
0.0010986328125
0.011383056640625
0.002197265625
-0.003326416015625
0.00439453125
0.00732421875
0.0032958984375
0.0
0.0
0.0062255859375
-0.0029296875
0.010284423828125
-0.0040283203125
0.01025390625
0.0003662109375
0.0252685546875
-0.00146484375
0.0084228515625
-0.0633544921875
0.03662109375
0.01025390625
-0.105499267578125
0.0556640625
-0.0018310546875
-0.02197265625
0.133331298828125
-0.00439453125
0.017578125
-0.0018310546875
0.016845703125
-0.0084228515625
0.0091552734375
-0.012451171875
0.028564453125
-0.024169921875
0.018310546875
-0.018310546875
0.0128173828125
0.0252685546875
-0.0274658203125
0.0391845703125
-0.0120849609375
0.009521484375
0.0234375
-0.0032958984375
0.0069580078125
-0.0029296875
0.013916015625
-0.00146484375
0.0223388671875
0.002197265625
0.0333251953125
-0.0003662109375
0.01025390625
0.003662109375
0.0201416015625
0.0032958984375
0.017578125
-0.0025634765625
0.01025390625
-0.0032958984375
0.0146484375
0.00439453125
0.010986328125
0.01025390625
0.0230712890625
0.0010986328125
0.0047607421875
-0.03369140625
-0.01318359375
-0.00439453125
-0.05859375
0.021240234375
0.030029296875
-0.0084228515625
0.06591796875
0.005126953125
-0.0018310546875
-0.0054931640625
0.010986328125
-0.021240234375
0.00439453125
-0.0194091796875
0.013916015625
-0.0281982421875
0.0054931640625
-0.0087890625
-0.0040283203125
0.030029296875
-0.0362548828125
0.03369140625
-0.024169921875
0.0087890625
0.000732421875
-0.0029296875
-0.0113525390625
-0.003662109375
-0.003662109375
-0.005126953125
-0.0157470703125
0.000732421875
-0.0120849609375
0.0
-0.0274658203125
0.000732421875
-0.0216064453125
-0.0018310546875
-0.0252685546875
-0.000732421875
-0.0303955078125
0.000732421875
-0.01318359375
-0.0084228515625
-0.0146484375
-0.00439453125
0.003662109375
-0.0032958984375
-0.005126953125
-0.0604248046875
0.0325927734375
0.0091552734375
-0.09375
0.046875
-0.0208740234375
-0.0267333984375
0.111328125
-0.0076904296875
0.0098876953125
-0.0029296875
0.01611328125
-0.0098876953125
0.0069580078125
-0.01318359375
0.0303955078125
-0.02490234375
0.022705078125
-0.0263671875
0.019775390625
0.0113525390625
-0.0091552734375
0.032958984375
-0.0263671875
0.0135498046875
-0.0091552734375
-0.002197265625
-0.0135498046875
-0.0003662109375
0.01171875
0.0003662109375
0.005126953125
0.0032958984375
0.0069580078125
0.0018310546875
-0.013916015625
0.0010986328125
-0.01171875
0.00439453125
0.005859375
0.0032958984375
-0.0029296875
0.0032958984375
0.0
-0.0018310546875
-0.01025390625
0.005859375
0.00439453125
0.0084228515625
-0.005859375
-0.0450439453125
0.0439453125
0.0
-0.0498046875
0.0501708984375
-0.05419921875
0.003662109375
0.057861328125
0.0
0.0076904296875
0.003662109375
0.0128173828125
-0.0025634765625
0.0172119140625
-0.0069580078125
0.0435791015625
-0.015380859375
0.027099609375
-0.021240234375
0.0098876953125
0.01171875
-0.019775390625
0.0333251953125
-0.035888671875
0.016845703125
-0.002197265625
0.00439453125
-0.01025390625
0.0040283203125
0.000732421875
0.0010986328125
-0.0054931640625
0.0018310546875
0.002197265625
0.002197265625
0.0
0.002197265625
-0.0018310546875
0.0018310546875
0.003662109375
-0.000732421875
-0.0062255859375
0.00146484375
0.0062255859375
-0.0025634765625
-0.00439453125
0.0025634765625
0.00732421875
0.0047607421875
0.0003662109375
-0.059326171875
0.0545654296875
0.005859375
-0.0633544921875
0.06005859375
-0.046142578125
-0.0040283203125
0.09814453125
-0.0018310546875
0.0150146484375
-0.0003662109375
0.013916015625
-0.0040283203125
0.0076904296875
-0.0091552734375
0.024169921875
-0.0186767578125
0.0234375
-0.0208740234375
0.010986328125
0.01611328125
-0.018310546875
0.034423828125
-0.0340576171875
0.0146484375
-0.0018310546875
0.002197265625
-0.009521484375
0.0029296875
0.000732421875
-0.0003662109375
-0.00732421875
-0.000732421875
-0.003662109375
0.00146484375
-0.0025634765625
0.000732421875
-0.0091552734375
0.0018310546875
0.0010986328125
-0.0003662109375
-0.0120849609375
-0.002197265625
-0.0003662109375
-0.0018310546875
-0.0032958984375
0.0047607421875
0.0029296875
0.002197265625
-0.0029296875
-0.057861328125
0.016845703125
0.0076904296875
-0.0948486328125
0.054931640625
-0.01611328125
-0.0084228515625
0.119384765625
-0.0010986328125
0.0054931640625
-0.000732421875
0.016845703125
-0.0084228515625
0.012451171875
-0.0146484375
0.018310546875
-0.0223388671875
0.0260009765625
-0.0150146484375
0.0
0.027099609375
-0.0303955078125
0.0333251953125
-0.0303955078125
0.01025390625
0.0040283203125
0.0
-0.010986328125
-0.000732421875
-0.00146484375
-0.002197265625
-0.0040283203125
-0.000732421875
-0.008056640625
0.002197265625
-0.0003662109375
-0.0003662109375
-0.0091552734375
0.0003662109375
0.000732421875
-0.00146484375
-0.0040283203125
-0.0018310546875
0.003662109375
0.0010986328125
-0.008056640625
0.0069580078125
-0.0018310546875
-0.029296875
0.029296875
-0.0040283203125
-0.0421142578125
0.031494140625
-0.0260009765625
-0.0010986328125
0.059326171875
-0.000732421875
0.0421142578125
0.0003662109375
0.012451171875
-0.0025634765625
0.022705078125
-0.0120849609375
0.0260009765625
-0.0223388671875
0.0289306640625
-0.0252685546875
0.02197265625
0.0098876953125
-0.0289306640625
0.041748046875
-0.0311279296875
0.0194091796875
-0.012451171875
0.005126953125
0.0047607421875
0.00146484375
-0.00146484375
0.0
0.005126953125
0.0003662109375
0.00146484375
0.0
-0.006591796875
-0.000732421875
0.000732421875
-0.00439453125
-0.0076904296875
-0.0018310546875
0.002197265625
-0.0054931640625
-0.010986328125
0.0032958984375
-0.002197265625
0.0069580078125
-0.0054931640625
-0.03515625
0.0260009765625
0.005859375
-0.0545654296875
0.0333251953125
-0.0325927734375
-0.01025390625
0.079833984375
-0.0018310546875
0.0062255859375
0.0106201171875
-0.005859375
0.0047607421875
-0.0113525390625
-0.005859375
0.0106201171875
-0.0164794921875
0.0216064453125
-0.0234375
0.01171875
0.0223388671875
-0.0234375
0.047607421875
-0.05126953125
0.0208740234375
-0.0135498046875
0.003662109375
-0.0179443359375
0.0010986328125
-0.0135498046875
-0.0003662109375
-0.0120849609375
0.008056640625
-0.0098876953125
0.0150146484375
-0.0120849609375
0.0076904296875
-0.0205078125
0.0091552734375
-0.012451171875
0.0098876953125
-0.0263671875
-0.0018310546875
-0.0113525390625
-0.012451171875
-0.00439453125
-0.003662109375
0.0032958984375
0.0003662109375
-0.0128173828125
-0.05712890625
-0.02490234375
0.0010986328125
-0.1116943359375
0.0450439453125
-0.02197265625
-0.0106201171875
0.0904541015625
-0.00146484375
-0.0208740234375
-0.0054931640625
-0.0150146484375
-0.005859375
-0.0098876953125
-0.0029296875
0.00439453125
-0.024169921875
0.0252685546875
-0.0333251953125
0.008056640625
0.0098876953125
-0.0201416015625
0.02197265625
-0.0252685546875
-0.0003662109375
0.01025390625
-0.01025390625
0.0010986328125
-0.01171875
0.0098876953125
-0.0135498046875
0.018310546875
-0.01171875
0.0172119140625
-0.005859375
0.021240234375
-0.01171875
0.0230712890625
-0.0157470703125
0.043212890625
-0.0252685546875
0.0216064453125
-0.0216064453125
0.0091552734375
-0.0120849609375
-0.005859375
-0.07470703125
0.00732421875
-0.027099609375
-0.10400390625
0.006591796875
-0.027099609375
-0.047607421875
0.093017578125
0.0252685546875
-0.0142822265625
0.1534423828125
0.000732421875
0.1658935546875
-0.00439453125
0.073974609375
0.0029296875
-0.0604248046875
-0.0135498046875
-0.1453857421875
-0.0509033203125
-0.04248046875
-0.056396484375
0.0325927734375
-0.0380859375
0.017578125
0.0025634765625
0.0194091796875
-0.0069580078125
0.0274658203125
0.0120849609375
0.01611328125
0.038818359375
0.0765380859375
0.0611572265625
0.55670166015625
0.1435546875
0.642425537109375
0.187530517578125
0.160064697265625
0.268463134765625
0.0
0.1175537109375
0.0
-0.232940673828125
-0.0003662109375
-0.263702392578125
-0.0003662109375
-0.11279296875
0.0003662109375
-0.0340576171875
0.0
-0.0091552734375
-0.616424560546875
0.02490234375
-0.159698486328125
-0.117919921875
0.616424560546875
-0.0087890625
-0.66693115234375
0.862518310546875
-1.0
0.731048583984375
0.1768798828125
0.0
1.0
0.000732421875
-0.192626953125
-0.187164306640625
-1.0
-0.822601318359375
0.16845703125
-1.0
0.57501220703125
-0.676849365234375
0.290069580078125
-0.053131103515625
0.12451171875
0.0
0.028564453125
0.0
-0.049072265625
0.0
-0.03515625
0.0
-0.056396484375
0.0
0.36224365234375
0.0010986328125
0.46258544921875
0.058624267578125
0.028564453125
0.100372314453125
-0.33587646484375
0.0677490234375
-0.50469970703125
-0.000732421875
-0.349395751953125
-0.03955078125
-0.0391845703125
-0.032958984375
0.076904296875
0.0084228515625
-0.131134033203125
0.0303955078125
0.129669189453125
-0.0010986328125
0.331085205078125
0.05859375
0.06884765625
0.0699462890625
-0.2325439453125
0.0615234375
0.294097900390625
0.0908203125
0.57647705078125
0.079833984375
-0.305816650390625
0.117584228515625
-0.825164794921875
0.176910400390625
-0.945648193359375
0.67462158203125
-0.671722412109375
1.0
-0.129669189453125
0.45159912109375
0.906494140625
-0.47393798828125
1.0
-1.0
0.176513671875
-0.973114013671875
0.0003662109375
-0.2259521484375
0.41351318359375
-0.019439697265625
-0.0003662109375
-0.064483642578125
0.0003662109375
-0.0322265625
-0.260040283203125
0.0
0.0
0.0
0.260406494140625
0.0
0.0
0.49078369140625
0.0
1.0
-1.0
-0.273956298828125
-0.287506103515625
-1.0
1.0
0.236236572265625
0.287506103515625
-0.137725830078125
0.0
-0.45306396484375
0.0
0.0
-0.0003662109375
0.0322265625
-0.036651611328125
0.105865478515625
0.0003662109375
0.110626220703125
0.036285400390625
0.0963134765625
0.0
0.1435546875
-0.00146484375
0.282012939453125
-1.0
1.0
-1.0
0.51092529296875
1.0
0.0303955078125
1.0
-0.889617919921875
-0.0025634765625
-1.0
0.0
-0.028564453125
0.0
-0.034423828125
0.0003662109375
0.081298828125
0.0
0.0867919921875
-0.0003662109375
0.0955810546875
0.0
0.198150634765625
0.0025634765625
0.61346435546875
-1.0
0.77899169921875
-1.0
0.025665283203125
1.0
-0.272125244140625
1.0
-0.746429443359375
0.0
-0.64532470703125
0.0
0.062255859375
0.0
0.0135498046875
-0.253814697265625
0.052001953125
-0.0003662109375
0.065185546875
0.253814697265625
0.127471923828125
0.0003662109375
0.131866455078125
0.0
0.05419921875
-1.0
-0.0413818359375
-1.0
-0.030029296875
1.0
0.0186767578125
1.0
-0.016845703125
0.0
0.0340576171875
0.0
0.0838623046875
0.0
0.0911865234375
-0.0003662109375
0.103271484375
-0.0267333984375
0.098175048828125
0.0003662109375
0.160797119140625
0.0267333984375
0.2230224609375
-0.0047607421875
0.164825439453125
-0.52667236328125
-0.0054931640625
-0.185699462890625
-0.147979736328125
-0.97021484375
-0.2017822265625
-1.0
-0.100341796875
0.0
0.0186767578125
0.0
0.0318603515625
0.0
0.0032958984375
0.0
0.0003662109375
0.0
0.0098876953125
0.0
0.00732421875
0.0
0.0267333984375
0.0
-0.01611328125
0.0
-0.03515625
0.0
-0.0281982421875
0.0
-0.0150146484375
0.0
-0.00146484375
0.0
-0.0018310546875
0.0
0.0084228515625
0.0
-0.0164794921875
0.0
-0.032958984375
0.0
-0.100372314453125
0.0
-0.126739501953125
0.0
-0.10107421875
0.0
-0.06005859375
0.0
-0.0029296875
0.0
0.0032958984375
0.0
-0.0146484375
0.0
-0.0465087890625
0.0
0.0439453125
0.0
0.0823974609375
0.098907470703125
0.0421142578125
0.919677734375
0.094482421875
0.865814208984375
0.207305908203125
-0.731781005859375
0.226715087890625
-0.9647216796875
0.1065673828125
-0.187896728515625
0.044677734375
0.0
0.03369140625
1.0
0.072540283203125
1.0
0.153106689453125
0.46185302734375
0.220458984375
-1.0
0.161865234375
-1.0
0.047271728515625
0.097442626953125
-0.216796875
1.0
-0.33441162109375
1.0
-0.095977783203125
-1.0
0.085723876953125
-1.0
0.126739501953125
0.0
0.0765380859375
0.0
0.052734375
0.0
0.0303955078125
0.0
-0.03369140625
1.0
-0.0692138671875
1.0
-0.1036376953125
-1.0
-0.124176025390625
-1.0
-0.094146728515625
-0.0087890625
-0.0318603515625
0.0
-0.000732421875
0.0
-0.0322265625
0.0
-0.016845703125
0.251983642578125
-0.0087890625
1.0
-0.00732421875
0.334747314453125
-0.0457763671875
-1.0
-0.062255859375
-0.58673095703125
-0.0355224609375
0.0
-0.021240234375
0.0
0.0084228515625
0.0
-0.00146484375
0.0
0.0150146484375
0.0
0.0164794921875
0.0
0.0194091796875
0.0
0.0142822265625
0.0
0.0087890625
0.0
0.0106201171875
0.0
0.031494140625
0.0
-0.08056640625
0.0
-0.043212890625
0.0
0.0992431640625
0.0
0.01904296875
0.0
0.0274658203125
0.0
0.03369140625
0.0
0.0142822265625
0.0
0.0205078125
0.0
0.01318359375
0.0
0.0010986328125
0.0
-0.02490234375
0.0
-0.010986328125
0.0
-0.008056640625
0.0
-0.0076904296875
0.0
-0.0025634765625
0.0
-0.01611328125
0.0
-0.003662109375
0.0
-0.01318359375
0.0
0.000732421875
0.0
-0.0076904296875
0.0
-0.0062255859375
0.0032958984375
0.000732421875
0.0010986328125
0.0054931640625
0.016845703125
-0.0106201171875
0.069244384765625
-0.0362548828125
0.074371337890625
0.027099609375
0.0333251953125
0.0208740234375
0.0234375
0.0040283203125
0.03515625
0.0040283203125
0.0362548828125
0.0106201171875
0.0267333984375
0.0267333984375
0.0223388671875
0.01171875
0.052001953125
-0.0194091796875
0.073974609375
-0.043212890625
0.032958984375
-0.00146484375
0.019775390625
-0.0029296875
0.046875
-0.0029296875
0.028564453125
-0.00146484375
0.0164794921875
-0.01318359375
0.053863525390625
-0.00439453125
0.075103759765625
-0.0142822265625
-0.0003662109375
0.0
-0.037353515625
-0.0032958984375
0.012451171875
0.002197265625
0.0684814453125
-0.005859375
0.04541015625
-0.005126953125
-0.024169921875
0.0098876953125
-0.01318359375
-0.0234375
0.027099609375
-0.028564453125
0.028564453125
0.01611328125
0.0113525390625
0.0384521484375
0.0230712890625
0.00146484375
0.013916015625
0.00732421875
0.0091552734375
0.016845703125
0.0091552734375
0.017578125
-0.0029296875
0.0205078125
0.027099609375
-0.0252685546875
0.0523681640625
-0.0322265625
0.0311279296875
-0.0194091796875
0.015380859375
0.003662109375
0.021240234375
0.00146484375
0.028564453125
-0.0003662109375
0.013916015625
0.0106201171875
0.009521484375
0.0120849609375
0.0267333984375
0.0208740234375
0.0040283203125
0.0062255859375
-0.01904296875
0.019775390625
0.0018310546875
0.01025390625
0.019775390625
0.016845703125
0.022705078125
0.0150146484375
-0.0333251953125
0.0435791015625
0.020538330078125
-0.059326171875
0.056396484375
-0.0384521484375
-0.004791259765625
0.08935546875
0.009552001953125
0.0062255859375
0.012481689453125
0.006591796875
-0.004791259765625
0.0029296875
-0.021270751953125
0.010986328125
-0.0113525390625
0.0252685546875
-0.0029296875
0.00439453125
0.015777587890625
-0.032958984375
0.034454345703125
-0.05126953125
0.012451171875
-0.009521484375
-0.006591796875
-0.00732421875
-0.0087890625
0.000732421875
-0.0040283203125
0.0
0.0347900390625
-0.01171875
0.022705078125
-0.01171875
-0.0234375
-0.01611328125
0.008056640625
0.0003662109375
0.043212890625
-0.01318359375
0.0406494140625
-0.00439453125
0.013916015625
-0.005126953125
-0.043212890625
-0.0018310546875
-0.0703125
-0.013916015625
0.0208740234375
-0.0538330078125
0.0908203125
0.03662109375
-0.0216064453125
0.0626220703125
-0.05859375
0.01171875
0.0135498046875
0.005126953125
-0.028564453125
0.0164794921875
-0.057159423828125
0.019775390625
-0.025299072265625
0.01611328125
0.014312744140625
-0.00146484375
0.100738525390625
-0.037353515625
0.08203125
-0.015380859375
-0.043212890625
-0.017578125
-0.07177734375
-0.03662109375
-0.0234375
-0.04833984375
0.0054931640625
-0.0289306640625
0.010986328125
-0.0252685546875
0.0018310546875
-0.0274658203125
-0.0018310546875
-0.0062255859375
0.0040283203125
-0.022705078125
0.0010986328125
-0.0150146484375
0.0010986328125
-0.0091552734375
0.0054931640625
0.0032958984375
0.000732421875
0.0
-0.054229736328125
-0.00439453125
-0.000732421875
-0.084625244140625
0.043975830078125
0.0098876953125
-0.00732421875
0.121612548828125
-0.0076904296875
0.0076904296875
-0.015380859375
0.0128173828125
-0.012451171875
0.0216064453125
0.00146484375
0.0289306640625
-0.020904541015625
0.0413818359375
-0.034820556640625
0.0205078125
0.015380859375
-0.00439453125
0.028594970703125
-0.0150146484375
0.008087158203125
0.0098876953125
0.0076904296875
-0.0025634765625
0.0069580078125
0.0018310546875
-0.0054931640625
0.0047607421875
-0.01025390625
-0.0018310546875
-0.0029296875
0.0047607421875
0.01171875
-0.00439453125
0.0084228515625
0.005859375
-0.0025634765625
-0.0025634765625
0.0205078125
0.0084228515625
0.01171875
0.0010986328125
-0.00732421875
-0.0032958984375
-0.035552978515625
0.005859375
-0.0062255859375
-0.063720703125
0.026763916015625
0.00146484375
-0.0018310546875
0.0596923828125
-0.0025634765625
0.01171875
-0.000732421875
0.0047607421875
0.013916015625
0.0179443359375
-0.00146484375
0.022705078125
-0.029327392578125
0.0150146484375
-0.0029296875
-0.01025390625
0.017608642578125
-0.0435791015625
0.006591796875
-0.0106201171875
0.0146484375
-0.00146484375
0.034423828125
0.0032958984375
0.0062255859375
-0.005126953125
-0.0238037109375
-0.0025634765625
0.0084228515625
0.0010986328125
0.0303955078125
-0.0091552734375
-0.000732421875
-0.0018310546875
-0.015380859375
-0.01025390625
0.012451171875
0.0003662109375
-0.00439453125
-0.0069580078125
-0.0186767578125
0.002197265625
0.002197265625
0.002197265625
-0.03076171875
0.002197265625
0.012451171875
-0.0662841796875
0.044677734375
-0.0054931640625
0.0003662109375
0.08056640625
0.005126953125
-0.0025634765625
-0.00146484375
0.008056640625
-0.005859375
0.0087890625
-0.0084228515625
0.017578125
-0.013916015625
0.02197265625
-0.00439453125
-0.0106201171875
0.0274658203125
-0.031494140625
0.030029296875
-0.02783203125
0.0098876953125
0.0029296875
0.005859375
-0.0054931640625
0.0040283203125
0.0010986328125
0.00439453125
0.0
0.0047607421875
-0.0029296875
0.0047607421875
0.0047607421875
0.0047607421875
-0.005859375
0.002197265625
0.0029296875
0.0003662109375
-0.009521484375
-0.0010986328125
0.00146484375
0.0040283203125
0.0
0.005126953125
0.0010986328125
-0.0567626953125
0.0531005859375
0.0032958984375
-0.066650390625
0.0604248046875
-0.044677734375
-0.0025634765625
0.06591796875
-0.005859375
0.013916015625
-0.0010986328125
-0.0029296875
0.0003662109375
0.0076904296875
-0.00439453125
0.01318359375
-0.00732421875
0.016845703125
-0.0238037109375
0.01904296875
-0.01171875
-0.029296875
0.0150146484375
-0.031494140625
0.012451171875
-0.0150146484375
0.0098876953125
0.002197265625
0.0069580078125
-0.006591796875
0.002197265625
-0.003662109375
0.0025634765625
0.00146484375
0.0054931640625
-0.00732421875
0.0076904296875
0.0029296875
0.0018310546875
-0.0054931640625
-0.003662109375
-0.000732421875
-0.005126953125
-0.0194091796875
0.000732421875
-0.0146484375
0.0069580078125
-0.0113525390625
0.0032958984375
-0.0084228515625
-0.0347900390625
0.0062255859375
0.0018310546875
-0.0531005859375
0.0303955078125
0.024169921875
-0.008056640625
0.0794677734375
0.0018310546875
0.0234375
0.002197265625
0.0091552734375
-0.005859375
0.0172119140625
-0.0146484375
0.0325927734375
-0.0205078125
0.02783203125
-0.005859375
0.0076904296875
0.0322265625
-0.0355224609375
0.028564453125
-0.01171875
0.0040283203125
0.000732421875
0.0010986328125
0.0040283203125
-0.0054931640625
0.0032958984375
-0.01171875
0.00439453125
-0.01025390625
0.0157470703125
-0.0084228515625
0.0150146484375
-0.0146484375
0.0355224609375
-0.021240234375
0.0421142578125
-0.0252685546875
0.0655517578125
-0.0216064453125
0.056060791015625
-0.017578125
0.050567626953125
-0.0223388671875
0.0501708984375
-0.091949462890625
0.0472412109375
-0.036285400390625
-0.0494384765625
0.0362548828125
0.0435791015625
-0.0091552734375
0.1944580078125
0.0
0.10546875
0.107696533203125
0.120513916015625
0.266265869140625
0.184234619140625
0.234405517578125
0.2471923828125
0.117950439453125
0.184967041015625
-0.32598876953125
0.041046142578125
-0.164093017578125
-0.0003662109375
0.30255126953125
0.0003662109375
0.0721435546875
0.0
-0.165191650390625
-0.0003662109375
-0.307281494140625
0.0
-0.313140869140625
-0.053131103515625
-0.223388671875
-0.110992431640625
-0.08349609375
-0.14501953125
0.01025390625
-0.1783447265625
0.0260009765625
-0.160430908203125
0.019775390625
-0.139556884765625
0.0194091796875
-0.114990234375
0.0234375
-0.1051025390625
0.0267333984375
-0.0823974609375
0.024169921875
-0.054931640625
-0.022705078125
-0.051300048828125
0.0263671875
-0.112823486328125
0.0640869140625
-0.0274658203125
0.008056640625
0.0732421875
0.0128173828125
-0.0087890625
0.0120849609375
-0.0032958984375
0.0040283203125
0.01171875
-0.0054931640625
0.0135498046875
-0.01318359375
0.01171875
-0.0047607421875
-0.0208740234375
0.0296630859375
-0.0428466796875
0.0347900390625
-0.0421142578125
0.0142822265625
-0.0157470703125
0.012451171875
-0.0194091796875
0.0135498046875
-0.0318603515625
0.0120849609375
-0.0582275390625
0.0172119140625
-0.0545654296875
0.0150146484375
-0.0018310546875
-0.0098876953125
-0.01171875
-0.0087890625
-0.03662109375
-0.003662109375
-0.06884765625
-0.01904296875
-0.0596923828125
-0.0087890625
-0.037353515625
-0.0087890625
-0.039215087890625
-0.0501708984375
0.005126953125
-0.025634765625
-0.046142578125
0.0260009765625
-0.050933837890625
0.0018310546875
0.0146484375
-0.005859375
0.016845703125
0.0128173828125
0.01025390625
0.0186767578125
0.0146484375
0.0150146484375
0.027862548828125
0.0062255859375
0.024566650390625
-0.000732421875
0.0245361328125
0.022705078125
-0.022735595703125
0.0472412109375
-0.034454345703125
0.0333251953125
-0.021240234375
0.017578125
0.0010986328125
0.021240234375
0.0128173828125
0.0296630859375
0.0047607421875
0.02197265625
0.018341064453125
0.015411376953125
0.019073486328125
0.008453369140625
0.019775390625
-0.008087158203125
0.0003662109375
-0.020172119140625
0.000732421875
-0.0194091796875
-0.0084228515625
0.00146484375
-0.008056640625
0.026397705078125
-0.0018310546875
0.0062255859375
-0.0087890625
-0.081695556640625
0.0428466796875
0.0084228515625
-0.092681884765625
0.076904296875
-0.0128173828125
0.002960205078125
0.115020751953125
0.011383056640625
0.01025390625
0.0091552734375
0.010986328125
0.003662109375
0.021240234375
-0.0029296875
0.0391845703125
-0.01171875
0.0274658203125
-0.0087890625
0.01611328125
0.027099609375
-0.03955078125
0.0538330078125
-0.0325927734375
0.021240234375
-0.0025634765625
-0.0054931640625
0.0029296875
0.00146484375
0.010986328125
-0.0069580078125
0.003662109375
-0.0120849609375
0.0084228515625
-0.0003662109375
-0.0047607421875
0.0084228515625
0.0054931640625
0.0054931640625
0.0
0.0025634765625
0.0025634765625
0.0010986328125
0.0010986328125
0.005859375
-0.00439453125
0.012451171875
0.0054931640625
0.0076904296875
-0.0010986328125
-0.0322265625
0.0172119140625
0.0098876953125
-0.054931640625
0.0450439453125
0.0076904296875
-0.00146484375
0.0706787109375
0.0029296875
0.0098876953125
0.0029296875
0.0186767578125
-0.0047607421875
0.01171875
-0.01171875
0.022705078125
-0.0201416015625
0.01904296875
-0.0032958984375
0.0018310546875
0.0325927734375
-0.034423828125
0.0311279296875
-0.01171875
0.01025390625
0.0186767578125
0.0069580078125
0.0128173828125
0.0054931640625
0.0113525390625
0.0029296875
0.0018310546875
0.0032958984375
0.01171875
0.0029296875
0.0032958984375
0.0040283203125
0.008056640625
0.00439453125
0.0025634765625
0.003662109375
0.000732421875
0.0010986328125
0.008056640625
0.0029296875
0.005859375
0.005126953125
0.0150146484375
-0.0560302734375
0.04541015625
0.0179443359375
-0.0845947265625
0.0574951171875
-0.038818359375
-0.01611328125
0.1087646484375
0.0003662109375
0.0172119140625
0.0010986328125
-0.0029296875
-0.0029296875
0.0054931640625
-0.01171875
0.0179443359375
-0.0208740234375
0.0413818359375
-0.0223388671875
0.0311279296875
0.022705078125
-0.0146484375
0.046142578125
-0.0399169921875
0.0194091796875
-0.0106201171875
0.0029296875
-0.0018310546875
-0.0029296875
-0.0150146484375
-0.002197265625
-0.0135498046875
-0.000732421875
-0.0245361328125
0.00146484375
-0.0128173828125
0.0032958984375
-0.0106201171875
0.0098876953125
-0.005859375
0.0029296875
-0.0135498046875
-0.005859375
-0.00146484375
0.003662109375
0.0303955078125
0.003662109375
0.0
-0.0560302734375
-0.017578125
0.0142822265625
-0.11279296875
0.076171875
-0.0120849609375
-0.008056640625
0.0802001953125
-0.0150146484375
-0.022705078125
-0.0040283203125
-0.0205078125
-0.009521484375
-0.005859375
-0.0157470703125
0.0098876953125
-0.0260009765625
-0.0032958984375
-0.017578125
-0.02490234375
0.0234375
-0.0772705078125
0.03515625
-0.0523681640625
0.0135498046875
-0.0150146484375
0.0069580078125
-0.028564453125
0.000732421875
-0.024566650390625
-0.0025634765625
-0.028961181640625
0.00146484375
-0.030029296875
0.000732421875
-0.05712890625
-0.0003662109375
-0.04541015625
-0.0010986328125
-0.041748046875
0.0010986328125
-0.0340576171875
0.0
-0.006591796875
0.0029296875
-0.0025634765625
0.002197265625
-0.000732421875
-0.05859375
0.03076171875
-0.0054931640625
-0.05126953125
0.056396484375
-0.05126953125
0.0054931640625
0.05859375
-0.0029296875
0.0076904296875
-0.0029296875
-0.0018310546875
-0.0062255859375
0.0186767578125
-0.013916015625
0.0150146484375
-0.0201416015625
0.0230712890625
-0.0245361328125
0.0106201171875
0.003662109375
-0.013916015625
0.0274658203125
-0.0238037109375
0.0146484375
0.0003662109375
0.0032958984375
0.0091552734375
0.00146484375
0.0054931640625
0.000732421875
0.0128173828125
-0.0029296875
0.0029296875
-0.0010986328125
0.010986328125
-0.0029296875
0.002197265625
-0.003662109375
0.010986328125
0.000732421875
0.0106201171875
-0.0040283203125
0.0040283203125
-0.0003662109375
0.0120849609375
0.006591796875
0.005859375
0.0010986328125
0.017578125
-0.037353515625
0.017578125
0.00732421875
-0.0296630859375
0.03662109375
0.003662109375
-0.005126953125
0.0615234375
-0.0032958984375
0.0186767578125
-0.0076904296875
0.0076904296875
-0.0087890625
0.020904541015625
-0.0142822265625
0.020538330078125
-0.0164794921875
0.0318603515625
-0.0003662109375
-0.0029296875
0.037353515625
-0.0223388671875
0.0333251953125
-0.007720947265625
-0.00146484375
-0.0029296875
-0.01171875
-0.0018310546875
-0.0296630859375
-0.014678955078125
-0.03369140625
-0.0025634765625
-0.01318359375
-0.0032958984375
0.0018310546875
0.009185791015625
0.0069580078125
0.0106201171875
0.0076904296875
0.01318359375
0.005859375
0.017242431640625
0.0032958984375
0.0135498046875
0.0076904296875
0.0179443359375
0.0084228515625
0.0018310546875
-0.0604248046875
0.0501708984375
0.0142822265625
-0.102203369140625
0.0706787109375
-0.0230712890625
-0.005859375
0.136993408203125
0.0018310546875
0.0274658203125
0.00146484375
0.0347900390625
-0.00146484375
0.04833984375
-0.0091552734375
0.062255859375
-0.021240234375
0.0325927734375
-0.02197265625
0.015380859375
0.0142822265625
-0.0325927734375
0.030029296875
-0.0369873046875
0.0069580078125
-0.0069580078125
-0.002197265625
-0.019775390625
-0.000732421875
-0.0172119140625
-0.003662109375
-0.02197265625
-0.010986328125
-0.02197265625
-0.012451171875
-0.034423828125
-0.0054931640625
-0.0146484375
-0.002197265625
-0.003662109375
0.0
-0.002197265625
-0.002197265625
0.005859375
-0.0025634765625
-0.006591796875
0.0040283203125
0.000732421875
0.00146484375
-0.0032958984375
-0.0260009765625
0.006591796875
0.010986328125
-0.03515625
0.03369140625
0.044677734375
-0.0010986328125
0.10986328125
0.0040283203125
0.046875
0.0025634765625
0.06298828125
-0.0040283203125
0.0662841796875
-0.01171875
0.0670166015625
-0.021240234375
0.0355224609375
-0.000732421875
0.0018310546875
0.0369873046875
-0.0267333984375
0.029296875
-0.015380859375
0.0047607421875
0.0146484375
0.0
0.0084228515625
-0.0025634765625
0.01171875
-0.0040283203125
-0.0062255859375
-0.0003662109375
-0.0062255859375
-0.000732421875
-0.0179443359375
-0.003662109375
-0.0252685546875
-0.0010986328125
-0.0263671875
-0.0018310546875
-0.0263671875
0.00146484375
-0.0029296875
0.006591796875
-0.00439453125
-0.0325927734375
0.035888671875
-0.0003662109375
-0.050537109375
0.0377197265625
-0.021240234375
0.002197265625
0.0648193359375
0.0003662109375
0.01171875
0.0010986328125
0.0128173828125
-0.0054931640625
0.006591796875
-0.0113525390625
0.0238037109375
-0.016845703125
0.021240234375
-0.02197265625
0.025634765625
0.01025390625
-0.0186767578125
0.0380859375
-0.027099609375
0.019775390625
0.009521484375
0.005859375
0.012451171875
-0.000732421875
0.030426025390625
-0.002197265625
0.026763916015625
0.00439453125
0.019775390625
0.0032958984375
0.0003662109375
0.002197265625
0.0040283203125
0.003662109375
0.005859375
0.0018310546875
0.003662109375
-0.0062255859375
0.01025390625
-0.0032958984375
0.0040283203125
-0.00146484375
-0.012451171875
-0.0640869140625
-0.049468994140625
-0.064453125
-0.056793212890625
0.00439453125
0.039215087890625
0.0098876953125
0.210601806640625
0.0098876953125
0.2354736328125
0.0032958984375
0.175811767578125
-0.0025634765625
0.137359619140625
-0.0010986328125
0.1029052734375
-0.0087890625
0.1212158203125
0.0128173828125
0.05126953125
0.056396484375
-0.05419921875
0.046142578125
-0.0809326171875
0.0062255859375
-0.060791015625
-0.0087890625
-0.04248046875
-0.0146484375
-0.05712890625
-0.006591796875
-0.062255859375
0.000732421875
-0.070343017578125
0.0029296875
-0.067413330078125
0.0003662109375
-0.0823974609375
-0.0029296875
-0.110595703125
-0.0040283203125
-0.14208984375
-0.0029296875
-0.173248291015625
0.006591796875
-0.137725830078125
0.006591796875
-0.0845947265625
-0.003662109375
-0.0439453125
-0.0633544921875
-0.0062255859375
-0.00146484375
-0.090087890625
0.0479736328125
-0.000732421875
-0.029296875
0.117919921875
-0.021240234375
0.0238037109375
-0.00146484375
0.0010986328125
-0.00146484375
0.008056640625
-0.012451171875
0.0150146484375
-0.015380859375
0.038818359375
0.029296875
0.0172119140625
0.0860595703125
-0.009521484375
0.052734375
0.0113525390625
-0.047607421875
0.05126953125
-0.0545654296875
0.123443603515625
-0.005126953125
0.196685791015625
-0.009521484375
0.246124267578125
-0.0186767578125
0.246490478515625
-0.0025634765625
0.1959228515625
0.0146484375
0.1402587890625
0.0135498046875
0.090118408203125
-0.00146484375
-0.0142822265625
-0.0113525390625
-0.106964111328125
-0.018310546875
-0.15966796875
-0.037353515625
-0.1827392578125
-0.088623046875
-0.0985107421875
0.0032958984375
-0.169219970703125
0.082763671875
-0.092315673828125
0.0303955078125
0.03076171875
0.030029296875
-0.05126953125
0.029296875
-0.041748046875
0.0201416015625
-0.0556640625
-0.017578125
-0.0362548828125
-0.0340576171875
-0.0252685546875
-0.0120849609375
0.0120849609375
0.01318359375
0.0120849609375
0.0391845703125
0.1080322265625
0.1212158203125
0.208038330078125
0.0428466796875
0.134796142578125
-0.0970458984375
0.1007080078125
-0.0509033203125
-0.027099609375
-0.00732421875
-0.145050048828125
0.00146484375
-0.145782470703125
0.009521484375
-0.13916015625
0.0069580078125
-0.142822265625
-0.0135498046875
-0.126739501953125
-0.016845703125
-0.075469970703125
-0.0010986328125
-0.038818359375
-0.0677490234375
0.04248046875
-0.003662109375
-0.0955810546875
0.0703125
-0.053466796875
0.0010986328125
0.0955810546875
-0.005859375
0.0106201171875
-0.00732421875
0.01904296875
-0.0047607421875
0.018310546875
-0.0084228515625
0.024169921875
-0.012451171875
0.0128173828125
-0.018310546875
-0.0040283203125
-0.0142822265625
-0.052001953125
-0.0018310546875
-0.052734375
0.008056640625
-0.0194091796875
0.009521484375
-0.021240234375
0.0029296875
-0.0194091796875
0.0106201171875
-0.031494140625
0.019775390625
-0.0230712890625
-0.0113525390625
-0.0216064453125
-0.027099609375
-0.0172119140625
0.0032958984375
-0.0230712890625
0.03662109375
-0.0347900390625
0.041748046875
-0.0322265625
0.022705078125
-0.0362548828125
0.0699462890625
-0.0311279296875
0.195220947265625
-0.041015625
0.124176025390625
-0.0289306640625
0.116455078125
-0.085723876953125
0.11572265625
-0.050933837890625
-0.046875
0.0098876953125
-0.02197265625
-0.024169921875
0.040283203125
-0.00732421875
0.0245361328125
-0.01025390625
-0.019775390625
0.005859375
-0.06884765625
-0.01611328125
-0.0677490234375
-0.0692138671875
-0.0128173828125
-0.0787353515625
-0.0018310546875
-0.0362548828125
-0.0128173828125
-0.00146484375
-0.0303955078125
0.0032958984375
-0.0574951171875
0.012451171875
-0.063385009765625
0.005126953125
-0.049102783203125
0.0216064453125
-0.038818359375
0.0296630859375
-0.0340576171875
0.029296875
-0.0355224609375
0.0234375
-0.025634765625
0.0194091796875
-0.0164794921875
0.0325927734375
-0.0377197265625
0.0472412109375
-0.087158203125
0.112091064453125
-0.0391845703125
0.071807861328125
0.0054931640625
0.0743408203125
-0.012451171875
0.052001953125
-0.01171875
-0.0377197265625
-0.0186767578125
-0.015380859375
-0.0142822265625
0.0062255859375
-0.0208740234375
0.017578125
-0.0252685546875
-0.003662109375
-0.0054931640625
-0.0113525390625
0.03515625
-0.000732421875
0.025634765625
0.0439453125
-0.0146484375
0.0732421875
-0.01904296875
0.0538330078125
-0.00732421875
0.0157470703125
0.00146484375
-0.019775390625
0.0062255859375
-0.016845703125
-0.0040283203125
-0.0146484375
-0.0018310546875
0.005126953125
0.01318359375
0.009521484375
0.06298828125
-0.0025634765625
0.085693359375
-0.0010986328125
0.04833984375
0.000732421875
0.0479736328125
0.0582275390625
0.066650390625
0.07470703125
-0.0838623046875
0.268463134765625
-0.0487060546875
0.216827392578125
-0.0245361328125
0.110260009765625
-0.18017578125
0.303985595703125
0.028564453125
0.1270751953125
0.1728515625
-0.224884033203125
0.160064697265625
-0.416778564453125
0.108062744140625
-0.317535400390625
0.0377197265625
-0.166290283203125
0.0457763671875
-0.098876953125
0.0252685546875
-0.0765380859375
0.002197265625
-0.0791015625
-0.0234375
-0.03955078125
-0.022705078125
-0.013916015625
-0.012451171875
0.005859375
-0.0150146484375
0.0062255859375
-0.0252685546875
0.05126953125
-0.041046142578125
0.1160888671875
-0.035552978515625
0.172119140625
-0.0245361328125
0.206573486328125
-0.09521484375
0.240997314453125
-0.009521484375
0.040283203125
0.0347900390625
0.03662109375
-0.04833984375
0.1380615234375
-0.0205078125
-0.043212890625
-0.005126953125
-0.0948486328125
-0.00146484375
-0.107666015625
-0.0113525390625
-0.0853271484375
-0.0208740234375
-0.0673828125
-0.018310546875
-0.089385986328125
0.0252685546875
-0.106964111328125
0.032958984375
-0.0919189453125
0.0032958984375
-0.05126953125
0.0010986328125
-0.046875
0.0032958984375
-0.0322265625
0.0
-0.0179443359375
-0.0032958984375
-0.0128173828125
-0.0062255859375
0.0029296875
-0.0098876953125
0.0113525390625
-0.005126953125
0.0252685546875
-0.0040283203125
0.009521484375
-0.038818359375
0.034423828125
-0.016845703125
-0.053466796875
0.02490234375
-0.043212890625
-0.00146484375
0.0439453125
-0.021240234375
-0.0208740234375
-0.0157470703125
-0.0384521484375
-0.0260009765625
-0.046142578125
-0.043212890625
-0.027099609375
-0.0391845703125
-0.0172119140625
-0.0281982421875
-0.0146484375
0.0120849609375
-0.049835205078125
0.0325927734375
-0.054229736328125
0.0135498046875
-0.0150146484375
0.005859375
-0.013916015625
0.0054931640625
-0.005126953125
0.0029296875
-0.0142822265625
0.0054931640625
-0.0113525390625
0.00146484375
-0.01025390625
-0.005126953125
-0.009521484375
0.00146484375
-0.0040283203125
0.0040283203125
-0.010986328125
-0.0498046875
0.0380859375
-0.0032958984375
-0.062255859375
0.0567626953125
-0.0487060546875
-0.000732421875
0.04833984375
-0.0142822265625
0.0047607421875
0.000732421875
0.00439453125
-0.024169921875
0.0047607421875
-0.044677734375
0.0223388671875
-0.031494140625
0.032958984375
-0.0230712890625
0.0421142578125
0.017578125
-0.005859375
0.044677734375
-0.0252685546875
0.029296875
-0.0084228515625
0.01904296875
-0.0069580078125
0.0194091796875
-0.005126953125
0.0128173828125
-0.0186767578125
-0.00146484375
-0.0245361328125
-0.0029296875
-0.03369140625
0.01611328125
-0.0205078125
0.0194091796875
-0.03515625
0.0098876953125
-0.064453125
-0.0369873046875
-0.0626220703125
0.0054931640625
-0.153839111328125
0.0582275390625
-0.0809326171875
0.0384521484375
0.01171875
0.0919189453125
-0.042144775390625
0.0703125
-0.0391845703125
-0.0234375
-0.0179443359375
-0.0435791015625
0.0084228515625
-0.0223388671875
0.0223388671875
-0.0047607421875
0.0062255859375
0.017578125
-0.018310546875
0.018310546875
0.0113525390625
0.00732421875
0.0216064453125
0.006591796875
0.0234375
0.0146484375
0.0150146484375
0.0208740234375
0.016143798828125
0.044342041015625
0.004425048828125
0.070709228515625
-0.017608642578125
0.0494384765625
-0.022003173828125
0.03662109375
-0.0201416015625
0.0186767578125
0.0
-0.008056640625
0.0010986328125
0.02490234375
-0.073974609375
0.0545654296875
-0.1787109375
0.028564453125
-0.1728515625
-0.003662109375
-0.120147705078125
-0.0146484375
-0.053497314453125
-0.0157470703125
0.0
-0.0150146484375
0.0
-0.0216064453125
0.0
-0.029296875
0.0
-0.009521484375
0.0
0.0113525390625
0.0
0.0054931640625
0.0
0.005859375
0.0
0.005126953125
0.0
-0.003662109375
0.0
-0.01025390625
0.0
-0.0087890625
0.01171875
-0.00732421875
0.01318359375
-0.013916015625
0.026397705078125
-0.0146484375
0.040679931640625
-0.0106201171875
0.0443115234375
-0.009521484375
0.0516357421875
-0.078399658203125
0.0787353515625
-0.000732421875
-0.0582275390625
0.055328369140625
0.0047607421875
-0.0234375
0.1611328125
-0.01611328125
0.0545654296875
-0.023468017578125
0.0465087890625
-0.029327392578125
0.0670166015625
-0.031494140625
0.0615234375
-0.0347900390625
0.067047119140625
-0.0296630859375
0.038482666015625
0.0054931640625
0.00732421875
0.0128173828125
0.0084228515625
-0.0106201171875
0.032958984375
-0.0157470703125
0.041015625
-0.013916015625
0.02783203125
-0.0106201171875
0.037353515625
-0.0069580078125
0.025634765625
-0.00146484375
0.030029296875
0.0010986328125
0.022705078125
-0.00146484375
0.021240234375
-0.0087890625
0.0179443359375
-0.0054931640625
0.006591796875
-0.0040283203125
0.012451171875
-0.0135498046875
0.0032958984375
-0.0648193359375
0.0245361328125
-0.02490234375
-0.0194091796875
0.0347900390625
0.102203369140625
-0.0047607421875
0.176910400390625
-0.01171875
0.114990234375
-0.0091552734375
0.1527099609375
-0.0142822265625
0.1387939453125
-0.0194091796875
0.114288330078125
-0.0234375
0.062286376953125
-0.0098876953125
0.028564453125
0.025634765625
-0.0135498046875
0.0267333984375
-0.0062255859375
0.0069580078125
0.009521484375
0.0025634765625
-0.0062255859375
0.0
-0.0003662109375
0.0025634765625
-0.010986328125
0.0054931640625
-0.0040283203125
0.0003662109375
-0.010986328125
-0.005859375
-0.0010986328125
-0.009521484375
0.008056640625
-0.0150146484375
0.0194091796875
-0.01171875
0.031494140625
-0.0069580078125
0.0267333984375
0.0040283203125
0.029296875
-0.02490234375
-0.0069580078125
0.0084228515625
-0.08203125
0.0260009765625
0.0120849609375
-0.0205078125
0.093017578125
-0.005859375
0.0040283203125
-0.010986328125
0.006591796875
-0.0274658203125
0.028564453125
-0.0296630859375
0.02197265625
-0.02490234375
0.025634765625
-0.03515625
0.076171875
0.008056640625
0.103271484375
0.0340576171875
0.0087890625
0.0047607421875
-0.04541015625
0.00146484375
-0.0391845703125
-0.000732421875
-0.0472412109375
0.0018310546875
-0.04248046875
0.0069580078125
-0.046875
0.0054931640625
-0.01904296875
0.0179443359375
0.0150146484375
0.0487060546875
0.1065673828125
0.179443359375
0.286041259765625
0.292999267578125
0.37030029296875
0.229644775390625
0.190460205078125
0.310577392578125
0.0084228515625
0.37652587890625
-0.01611328125
0.150177001953125
-0.249053955078125
0.0
-1.0
0.0
-1.0
0.0
1.0
0.0
1.0
0.0
0.076934814453125
0.0
0.0
0.0
0.0
-0.0003662109375
0.0
0.0
0.0
0.0003662109375
0.0
0.0
0.0
0.0
0.0
0.0
0.0
0.0
0.0
-0.0003662109375
0.0
0.0
0.0
0.0003662109375
0.0
0.0
0.0
0.0
0.0
0.0
0.0
-0.0003662109375
0.0
0.0
0.0
-0.00439453125
0.0003662109375
-0.0003662109375
0.0
0.00439453125
-0.0003662109375
0.0003662109375
0.0
0.0003662109375
0.0
0.0
0.0
0.0
0.0
0.0
0.0003662109375
0.0
0.0
-1.0
-0.0010986328125
-1.0
-0.149810791015625
0.0
-0.40985107421875
0.0
-0.66473388671875
0.0
-1.0
0.0
-0.684906005859375
0.0
0.0
0.0
0.0
0.0
0.0
0.0
0.0
0.0
0.0
0.0
0.0
0.0
0.0
0.0
0.0
0.0
0.0
0.0
0.0
0.0
0.0
0.0
0.0
0.0
0.0
0.0
0.0
0.0
0.0
0.0
0.0
0.0
0.0
0.0
0.0
0.0
0.0
0.0
0.0
0.0
0.0
0.0
0.0
0.0
0.0
0.0
0.0
0.0
0.0
0.0
0.0
0.0
0.0
0.0
0.0
0.0
0.0
0.0
0.0
0.0
0.0
0.0
0.0
0.0
0.0
0.0
0.0
0.0
0.0
0.0
0.0
0.0
0.0
0.0
0.0
0.0
0.0
0.0
0.0
0.0
0.0
0.0
0.0
0.0
0.0
0.0
0.0
0.0
0.0
0.0
0.0
0.0
0.0
0.0
0.0
0.0
0.0
1.0
0.117218017578125
1.0
0.32818603515625
0.145782470703125
0.60614013671875
0.0
1.0
0.0
0.776092529296875
0.0
0.0
-0.54827880859375
-0.0003662109375
-1.0
-0.000732421875
-0.9486083984375
-0.0003662109375
0.0
0.0
0.0
0.0
0.0
0.0
0.0
0.0
0.0
0.0
0.0
0.0
0.0
0.0
0.0
0.0
0.0
0.0
0.0
0.0
0.0
0.0
1.0
0.000732421875
1.0
0.0003662109375
-0.229278564453125
0.0
0.42559814453125
0.0003662109375
-1.0
-0.000732421875
-1.0
-0.000732421875
0.0
0.0
0.0
0.0
0.0
0.0
0.36517333984375
0.0003662109375
0.105499267578125
0.0003662109375
-0.36517333984375
-0.0003662109375
-0.105499267578125
-0.079864501953125
0.0
-1.0
0.0
-1.0
0.0
0.0
0.0
0.0
0.0
0.927001953125
0.03076171875
1.0
0.205474853515625
0.207275390625
-0.0303955078125
0.0
-0.205474853515625
0.36444091796875
-0.0003662109375
0.0
0.0
0.0
0.103668212890625
0.0
0.54315185546875
0.0
0.76141357421875
0.0003662109375
0.867645263671875
-1.0
0.631439208984375
-1.0
0.086090087890625
-0.002197265625
0.0003662109375
0.0
0.0
0.0
-0.0003662109375
0.0
0.0
0.0
0.0003662109375
0.0
-0.254547119140625
0.0
-0.171051025390625
0.0
0.254180908203125
0.0
0.171051025390625
0.0
0.0003662109375
0.0
-1.0
0.0
-1.0
0.0
-0.42706298828125
0.0
0.0
0.0
0.0
0.0
0.0
0.0
0.0
0.0
0.0
0.0
0.0
0.0
0.0
0.0
0.0
0.0
0.0
0.0
0.0
0.42193603515625
0.0
0.849700927734375
0.0
1.0
0.0
0.649017333984375
0.0
0.0003662109375
0.0
0.0
0.0
-0.072540283203125
0.0
-1.0
0.0
-1.0
0.0
-0.00146484375
0.0
0.0
0.0
1.0
0.0
1.0
0.0
0.0
0.0
0.0
0.035186767578125
0.0
0.0
0.0
0.460357666015625
-0.614593505859375
0.47467041015625
-1.0
-0.234771728515625
-0.258544921875
-0.266265869140625
0.782684326171875
-0.0087890625
0.299224853515625
0.292999267578125
-0.400665283203125
0.814910888671875
-0.33697509765625
0.40582275390625
-0.256011962890625
-0.47686767578125
-0.0413818359375
-0.35931396484375
0.1827392578125
-0.0289306640625
0.711273193359375
0.00732421875
0.852996826171875
-0.0091552734375
-0.0516357421875
-0.031494140625
-0.19775390625
-0.037353515625
0.284210205078125
0.0113525390625
0.268463134765625
0.016845703125
0.0087890625
-0.0054931640625
0.0
0.0325927734375
-0.105133056640625
0.0380859375
-0.213165283203125
-0.0435791015625
-0.1494140625
-0.076904296875
0.1102294921875
-0.0391845703125
0.2127685546875
0.0142822265625
0.095611572265625
0.0673828125
0.041778564453125
-0.0428466796875
0.00732421875
-0.234771728515625
0.0
-0.253448486328125
-0.0003662109375
-0.15380859375
-0.0010986328125
-0.0765380859375
-0.701751708984375
-0.160064697265625
-1.0
-0.132232666015625
-0.796966552734375
0.0208740234375
0.0
0.049835205078125
0.48638916015625
0.009521484375
1.0
0.26953125
1.0
0.37982177734375
0.064117431640625
-0.09814453125
-0.0003662109375
-0.41021728515625
-0.0003662109375
-0.221221923828125
0.0
0.0
0.0
0.49810791015625
0.0003662109375
1.0
0.000732421875
0.998779296875
0.0003662109375
-0.0025634765625
0.0
0.0
0.0
0.0
0.0
0.0
0.0
-0.0003662109375
-1.0
0.0
-1.0
0.0003662109375
-0.0032958984375
0.0
0.0
0.0
0.0
0.0
0.0
0.0
0.0
-0.669891357421875
0.0
-1.0
0.0
-0.55670166015625
0.0
-0.124908447265625
0.0
0.097442626953125
0.0164794921875
0.44720458984375
1.0
1.0
1.0
0.818206787109375
0.0003662109375
-0.0025634765625
0.0003662109375
0.0003662109375
0.0
0.0
-0.0003662109375
0.0
0.0
0.0
0.0
0.0
-1.0
-0.0003662109375
-1.0
-0.0003662109375
0.0
0.0
0.0
-0.51678466796875
0.0
-0.164459228515625
0.0
0.51678466796875
1.0
-0.1483154296875
1.0
-1.0
-0.000732421875
-1.0
-0.000732421875
0.0
0.0
0.226715087890625
0.0003662109375
1.0
0.000732421875
1.0
0.0003662109375
-1.0
-0.000732421875
-1.0
-0.000732421875
-0.00146484375
0.0
0.0
0.0
0.0
-1.0
0.0
-1.0
0.0
-0.0032958984375
0.0
0.0
0.0
0.0
0.0
0.0
0.0
0.0
0.0
0.0
0.0
0.0
0.0
0.0
0.0
0.0
0.0
0.0
0.0
0.0
0.0
0.0
0.0
0.0
0.0
0.0
0.0
0.0
0.0
0.0
0.0
0.0
0.0
0.0
0.0
0.0
0.0
0.0
0.0
0.0
0.0
0.0
0.0
0.0
0.0
0.0
0.0
0.0
0.0234375
0.0
0.0
0.0
0.071075439453125
0.0
0.106964111328125
0.0
0.038818359375
0.0
0.0552978515625
0.0
0.06005859375
0.0
0.0487060546875
0.0
0.03076171875
0.0
0.0238037109375
0.0
0.0223388671875
0.0
0.05859375
0.0
0.075836181640625
0.0
0.048736572265625
0.0
0.0384521484375
0.0
0.035888671875
0.0
0.029296875
0.0
0.0238037109375
0.0
0.021240234375
0.0
0.0296630859375
0.0
0.0362548828125
0.0
0.0146484375
0.0
0.046142578125
0.0
0.081298828125
0.0
0.01318359375
0.0
-0.0556640625
0.0
0.07763671875
0.0
0.1259765625
0.0
0.022369384765625
0.0
-0.005859375
0.0
0.0069580078125
0.0
0.033721923828125
0.0
0.0216064453125
0.0
0.01611328125
0.0
0.0106201171875
0.0
0.0439453125
0.0
0.0406494140625
0.0
0.0087890625
0.0
0.0201416015625
0.0
0.0223388671875
0.0
0.019775390625
0.0
0.02197265625
0.0
0.029296875
0.0
0.0252685546875
0.0
0.0128173828125
0.0
0.0179443359375
0.0
0.0289306640625
0.0
0.0325927734375
1.0
0.005126953125
1.0
-0.0684814453125
0.0
-0.029296875
0.0
-0.0018310546875
0.0
-0.046142578125
0.0003662109375
-0.00732421875
0.0
0.154541015625
-0.0003662109375
0.254180908203125
0.0003662109375
-0.1102294921875
0.0003662109375
-0.380157470703125
-0.0003662109375
-0.195953369140625
-0.0003662109375
-0.009918212890625
0.0
0.051300048828125
0.0
0.008453369140625
-0.0003662109375
-0.029327392578125
0.0
-0.071807861328125
0.0003662109375
-0.123046875
0.0
-0.12890625
0.0
-0.06591796875
-0.0003662109375
0.0172119140625
0.0
0.0736083984375
0.0003662109375
0.0428466796875
0.0
-0.0428466796875
0.0
-0.0340576171875
0.0
-0.016845703125
0.0
-0.05712890625
0.0
0.0230712890625
0.0
0.0677490234375
0.0
0.0040283203125
0.0
0.0120849609375
0.0
0.0157470703125
0.0
0.015380859375
0.0
0.0010986328125
0.0
-0.018310546875
0.0
-0.0201416015625
0.0
0.0194091796875
0.0
0.059326171875
0.0
0.047607421875
0.0
0.029296875
0.0
0.013916015625
0.0
-0.0003662109375
0.0
0.00732421875
0.0
0.0172119140625
0.0
0.0179443359375
0.0
0.0142822265625
0.0
0.0106201171875
0.0
0.01025390625
0.0
0.016845703125
0.0
0.0172119140625
0.0
-0.066650390625
0.0
0.017974853515625
0.0
0.079833984375
0.0
-0.0040283203125
0.0
0.011749267578125
0.0
0.012451171875
0.0
0.0047607421875
0.0
0.00146484375
0.0
0.0172119140625
0.0
-0.0047607421875
0.0003662109375
-0.000732421875
0.0
0.0325927734375
-0.0003662109375
0.02197265625
0.0
0.01318359375
0.0
0.01171875
0.0
0.0087890625
0.0
0.005859375
0.0
0.0084228515625
0.0
0.0106201171875
-0.0025634765625
0.008056640625
0.0
0.0047607421875
0.0025634765625
0.0003662109375
0.0
0.003662109375
-0.0150146484375
0.002197265625
-0.070343017578125
-0.046875
-0.025665283203125
0.01904296875
-0.0421142578125
0.01904296875
0.040679931640625
-0.093017578125
0.112457275390625
-0.067413330078125
0.0
-0.023101806640625
0.0
-0.01025390625
0.0
-0.0128173828125
0.0
-0.01611328125
0.0
-0.010986328125
0.0
0.043243408203125
0.0
0.107696533203125
0.0
0.0867919921875
0.0
0.0274658203125
0.0
-0.0128173828125
0.0003662109375
-0.0296630859375
0.0
-0.0205078125
-0.0003662109375
-0.016845703125
0.0
0.0318603515625
0.0
0.352691650390625
0.0003662109375
0.796966552734375
0.000732421875
0.48602294921875
0.0
0.0
-0.0003662109375
-0.52923583984375
-0.0003662109375
-0.877899169921875
-0.0003662109375
-0.36956787109375
0.0
0.160400390625
-0.253082275390625
0.50360107421875
-0.631805419921875
0.211700439453125
-0.861419677734375
-0.56695556640625
0.176544189453125
-0.59844970703125
1.0
-0.216827392578125
0.45526123046875
-0.115753173828125
0.0
-0.016845703125
0.0
0.051300048828125
0.0
0.062286376953125
0.0
0.0765380859375
-0.192657470703125
0.0831298828125
-0.906494140625
0.0611572265625
-1.0
0.0205078125
-0.15380859375
0.008056640625
0.59405517578125
0.0135498046875
0.268829345703125
-0.0010986328125
0.245391845703125
-0.01025390625
0.16845703125
0.005859375
0.0369873046875
0.0263671875
-0.158203125
0.0413818359375
-0.239501953125
0.03662109375
-0.170684814453125
-0.049072265625
-0.040679931640625
0.019775390625
-0.1336669921875
0.0849609375
-0.150146484375
0.009521484375
-0.0091552734375
0.010986328125
-0.0281982421875
0.0135498046875
-0.005859375
0.0150146484375
-0.104400634765625
0.0098876953125
-0.090484619140625
-0.0025634765625
-0.075439453125
-0.0098876953125
-0.0128173828125
0.028594970703125
-0.009521484375
0.047637939453125
-0.0860595703125
0.016845703125
-0.0054931640625
0.0003662109375
-0.052001953125
0.0029296875
-0.0238037109375
0.0087890625
0.0084228515625
0.01025390625
0.012451171875
0.0098876953125
0.006591796875
0.008056640625
-0.0047607421875
0.0047607421875
0.072509765625
0.0025634765625
0.0780029296875
0.005859375
0.0076904296875
0.017578125
-0.0926513671875
0.0098876953125
-0.0230712890625
-0.052001953125
0.0113525390625
0.003662109375
-0.0677490234375
0.05712890625
0.0347900390625
0.0069580078125
0.1007080078125
0.0047607421875
0.0347900390625
0.0047607421875
0.01904296875
0.000732421875
0.074737548828125
-0.0091552734375
0.088287353515625
-0.01904296875
0.1036376953125
-0.010986328125
0.091552734375
0.027099609375
0.0369873046875
0.03515625
0.0340576171875
0.01171875
-0.002197265625
0.005859375
0.0556640625
0.00439453125
0.054931640625
0.003662109375
0.0435791015625
0.0032958984375
0.0450439453125
0.005126953125
0.035919189453125
0.00732421875
0.048736572265625
0.0069580078125
0.0150146484375
0.00146484375
0.035888671875
0.0032958984375
0.03955078125
0.009521484375
0.0589599609375
-0.0018310546875
0.0465087890625
-0.0106201171875
0.0084228515625
0.0106201171875
0.000732421875
0.0150146484375
0.0926513671875
0.0010986328125
0.1080322265625
0.0003662109375
0.0128173828125
-0.0018310546875
0.03662109375
-0.005126953125
0.03515625
-0.01318359375
0.072906494140625
-0.0230712890625
0.064117431640625
0.00146484375
0.0494384765625
0.03955078125
0.0589599609375
0.027099609375
0.0047607421875
0.002197265625
-0.002197265625
-0.00146484375
-0.047607421875
0.0003662109375
-0.0281982421875
0.000732421875
-0.0040283203125
0.00146484375
0.0087890625
0.0040283203125
0.0
0.00439453125
-0.0194091796875
0.0018310546875
0.0106201171875
0.0
0.000732421875
0.005126953125
0.0084228515625
0.005859375
-0.0201416015625
-0.069580078125
0.04833984375
0.0010986328125
-0.090118408203125
0.064453125
-0.0260009765625
-0.0084228515625
0.155670166015625
0.0003662109375
-0.0106201171875
0.000732421875
-0.02783203125
-0.00439453125
0.008056640625
-0.0106201171875
0.05859375
-0.0234375
0.0369873046875
-0.0252685546875
0.0252685546875
0.0186767578125
-0.0289306640625
0.041015625
-0.0582275390625
0.01025390625
0.0128173828125
-0.00439453125
0.0
0.00146484375
-0.00146484375
-0.000732421875
-0.01171875
-0.0047607421875
0.01904296875
0.003662109375
0.01025390625
0.0025634765625
-0.0069580078125
-0.0025634765625
0.0084228515625
-0.00146484375
-0.002197265625
-0.00146484375
0.0234375
0.003662109375
0.0146484375
0.0054931640625
0.0135498046875
-0.0714111328125
0.0322265625
0.0164794921875
-0.1219482421875
0.0721435546875
-0.041748046875
-0.013916015625
0.1278076171875
-0.008056640625
0.0311279296875
-0.0106201171875
-0.00146484375
-0.003662109375
0.0303955078125
-0.0135498046875
0.012451171875
-0.02490234375
-0.0010986328125
-0.0296630859375
0.000732421875
0.018310546875
-0.0252685546875
0.0498046875
-0.0260009765625
0.0157470703125
-0.0150146484375
-0.005859375
0.0076904296875
0.0018310546875
-0.013916015625
0.0091552734375
0.0087890625
0.0010986328125
-0.0062255859375
-0.0025634765625
-0.0179443359375
-0.003662109375
-0.0010986328125
-0.000732421875
-0.016845703125
-0.002197265625
-0.01904296875
0.0
-0.0238037109375
0.005859375
0.0311279296875
0.0
0.01171875
-0.02197265625
-0.0106201171875
0.0
0.0340576171875
0.0150146484375
0.162628173828125
-0.008056640625
0.141021728515625
-0.005859375
0.0084228515625
-0.006591796875
0.0135498046875
-0.01025390625
0.046875
-0.0205078125
0.07470703125
-0.0318603515625
0.01611328125
-0.009521484375
0.0054931640625
0.0399169921875
-0.0322265625
0.03662109375
-0.04833984375
0.0054931640625
-0.025634765625
0.000732421875
-0.0234375
-0.000732421875
0.0369873046875
-0.0010986328125
0.01171875
0.0010986328125
0.013916015625
0.0003662109375
0.005859375
-0.0003662109375
-0.0208740234375
-0.0010986328125
-0.01611328125
-0.0069580078125
-0.019775390625
0.0
0.0
0.00732421875
-0.02490234375
-0.0025634765625
-0.0252685546875
-0.013916015625
-0.082061767578125
0.0047607421875
-0.048370361328125
0.0106201171875
0.050537109375
-0.005859375
0.0391845703125
-0.0010986328125
0.0010986328125
-0.0018310546875
-0.02490234375
-0.0091552734375
0.023834228515625
-0.01904296875
0.030792236328125
-0.0267333984375
0.0318603515625
-0.00146484375
-0.010284423828125
0.03515625
-0.042510986328125
0.0234375
-0.0029296875
0.0003662109375
0.0069580078125
-0.002197265625
0.014678955078125
-0.0029296875
-0.0029296875
-0.0029296875
0.01025390625
-0.0029296875
0.013946533203125
-0.00146484375
0.038818359375
-0.0029296875
0.0384521484375
-0.0047607421875
0.0054931640625
-0.0032958984375
-0.00146484375
0.0032958984375
-0.01611328125
0.0062255859375
0.006591796875
-0.0633544921875
0.053466796875
0.0
-0.062286376953125
0.0626220703125
-0.03955078125
-0.000732421875
0.095977783203125
0.0
0.02197265625
-0.0010986328125
-0.0084228515625
-0.0040283203125
0.0047607421875
-0.01025390625
0.0040283203125
-0.01904296875
0.010986328125
-0.02197265625
-0.0216064453125
0.015380859375
-0.04248046875
0.0384521484375
-0.0457763671875
0.0164794921875
-0.03369140625
0.0025634765625
-0.016876220703125
0.0003662109375
-0.028594970703125
0.000732421875
-0.0076904296875
0.000732421875
-0.0205078125
0.000732421875
-0.013916015625
-0.0010986328125
-0.01025390625
0.0
-0.0062255859375
-0.005126953125
-0.0087890625
-0.0010986328125
-0.0186767578125
0.0025634765625
-0.0003662109375
-0.02197265625
-0.032958984375
0.0076904296875
-0.02490234375
0.0234375
0.096343994140625
0.0040283203125
0.227447509765625
0.0201416015625
0.1885986328125
0.0692138671875
0.0919189453125
0.331817626953125
0.0142822265625
0.242462158203125
0.015380859375
-0.03369140625
0.102935791015625
0.296661376953125
0.050567626953125
0.43804931640625
-0.058624267578125
0.140655517578125
0.005859375
0.0003662109375
0.058624267578125
0.0
0.0062255859375
0.0
0.0
0.0
0.0
0.0
-0.098541259765625
0.0003662109375
-0.107330322265625
0.0
-0.063720703125
0.0
-0.091552734375
0.0
-0.1007080078125
0.0
-0.130401611328125
-0.0003662109375
-0.087554931640625
0.0
-0.091552734375
0.0003662109375
-0.0194091796875
0.0
0.281646728515625
0.0
0.37030029296875
-0.0003662109375
0.139190673828125
0.0
-0.0003662109375
0.0
0.0
0.0
0.0003662109375
0.0003662109375
0.0
-0.0003662109375
-0.0003662109375
-0.0003662109375
0.0
0.0003662109375
0.0
0.0003662109375
0.0003662109375
0.0
0.0
0.0
-0.0003662109375
-0.0003662109375
0.0003662109375
-0.0003662109375
0.0
0.0003662109375
-0.0003662109375
0.0
0.0
0.0
-1.0
0.0003662109375
0.0
0.0
1.0
-0.0003662109375
-0.072174072265625
-0.003662109375
0.0
-1.0
0.071441650390625
-1.0
-0.000732421875
-0.0032958984375
0.0
0.0
0.0
0.0
0.0
0.0
0.0
0.0
0.0
0.0
0.0
0.0
0.0
0.0
0.0003662109375
0.0
0.0
0.0
-0.080596923828125
0.0
-1.0
0.0
-1.0
0.0
0.0
0.0
0.0
0.0
0.0
0.0
0.0
0.0
0.0
0.0
0.0
0.0
0.0
0.0
0.0
0.0
0.0
0.0
0.0
0.0
0.0
0.0
0.217193603515625
0.0
1.0
0.0
1.0
0.0
0.47613525390625
0.0
0.0
0.0
0.0
0.0
0.0
0.0
0.0
0.0
-0.698822021484375
0.0
-1.0
0.0
-0.799896240234375
0.0
-0.0047607421875
0.0
0.0
1.0
0.0
1.0
0.0
-0.0025634765625
0.0
0.0
0.0
-0.0003662109375
0.0
-0.276519775390625
0.0
-1.0
0.0
-1.0
0.0
-0.076202392578125
0.0
0.0
0.785614013671875
0.0
1.0
0.0
0.713104248046875
0.0
0.0
0.0
0.0
0.0
-0.691864013671875
0.0
-1.0
0.0
0.46844482421875
0.0
0.0
0.0
-1.0
0.0
0.0
0.0
0.0
0.0
0.0
0.0
0.0
0.0
0.55084228515625
0.0
0.32562255859375
0.0
-0.205078125
0.0
-0.031524658203125
0.0
-0.080596923828125
0.0
-0.043212890625
0.0
-0.265167236328125
0.0
-0.250885009765625
0.0
0.0
0.03076171875
0.802825927734375
1.0
0.0
1.0
-0.802825927734375
-1.0
1.0
0.0029296875
1.0
1.0
0.000732421875
-0.0029296875
0.0
-0.0003662109375
0.0
-0.0003662109375
0.0003662109375
0.0003662109375
0.0
0.0003662109375
-0.0003662109375
0.0
0.0003662109375
0.0
0.0003662109375
0.0
-0.0003662109375
0.0
-0.0003662109375
0.0
0.0
0.0
0.0
0.0
-0.003662109375
0.0
-1.0
0.0
-1.0
0.0
0.0
-0.0003662109375
0.0
-1.0
1.0
-1.0
1.0
-0.000732421875
0.0
0.0
0.0
0.0
0.0
0.0
0.0
0.0
0.0003662109375
0.0
0.0
0.0
-0.42926025390625
0.0
-1.0
0.0
-1.0
0.0
0.0
0.0
0.0
0.0
0.0
0.0
0.0
0.0
0.0
0.0
0.0
0.0
0.0
0.0
0.0
0.0
0.0
0.0
0.0
0.42999267578125
0.0
1.0
0.0
1.0
0.0
0.0076904296875
0.0
0.0
0.0
0.0
0.0
0.0
0.0
0.0
1.0
0.0
0.808685302734375
0.0
-0.449005126953125
0.0
-0.1959228515625
0.0
-0.37945556640625
-0.0003662109375
0.291900634765625
-0.0003662109375
0.718597412109375
-1.0
-0.0087890625
-1.0
-1.0
0.0
-0.8958740234375
0.0
0.0
0.0
0.0
0.0
0.0
0.0
0.0
0.0
0.0
0.0
0.0
0.0
0.0
0.0
0.0
0.42999267578125
0.0
1.0
0.0
1.0
0.0
0.0003662109375
0.0
0.0
0.0
0.0003662109375
0.0
-0.0003662109375
0.0
-0.0003662109375
0.0
0.0003662109375
0.0
-1.0
0.0
-1.0
0.0
1.0
0.0
0.0010986328125
0.0
0.290435791015625
0.0
1.0
0.0
-0.32012939453125
0.0
0.067779541015625
0.0
0.32012939453125
0.0
-0.0010986328125
0.0
0.0
0.133697509765625
0.0
0.300323486328125
0.00146484375
-0.133697509765625
0.0
-0.300323486328125
-0.0018310546875
0.0
0.0
0.0
-0.634368896484375
0.0
-0.46148681640625
0.0
-0.862152099609375
0.0
-1.0
0.0
0.0
0.0
0.0
0.0
0.0
0.0
1.0
0.0
0.005859375
0.0
-1.0
0.0
-0.005859375
0.617523193359375
0.0
1.0
0.0
0.881195068359375
1.0
0.000732421875
1.0
0.000732421875
0.308380126953125
0.0
-0.44940185546875
0.0
-1.0
-1.0
-1.0
-1.0
0.0
0.0
0.0
1.0
0.019775390625
1.0
0.005859375
0.0
-0.019775390625
-0.0003662109375
0.9493408203125
0.000732421875
0.37286376953125
0.0003662109375
-0.9552001953125
-0.000732421875
-0.37286376953125
-0.0003662109375
1.0
0.000732421875
0.0150146484375
0.0
0.00146484375
0.0
1.0
0.000732421875
-0.0025634765625
0.0
0.0
0.0
0.0
0.0
-0.0003662109375
0.0
0.0
0.0
0.0
0.0
-0.0003662109375
0.0003662109375
0.0003662109375
0.0
0.0003662109375
-0.0003662109375
0.0
0.0
-0.0003662109375
0.0
0.0
0.0
0.0003662109375
0.0
0.0
0.0003662109375
0.0
0.0
0.0
-0.0003662109375
0.0
0.0
0.0
0.0
-0.0010986328125
0.0
-1.0
-0.000732421875
-1.0
-0.000732421875
1.0
0.000732421875
1.0
0.000732421875
0.264068603515625
0.0
-0.0003662109375
0.0
-0.272491455078125
0.0
-1.0
-0.0003662109375
-1.0
-0.000732421875
-0.43658447265625
-0.0003662109375
0.0
0.0
0.0
0.0
0.0
0.0
0.0
0.0
0.0
0.0
0.0
0.0
0.0
0.0
0.0
0.0
0.0
0.0
0.0
0.0003662109375
0.0
0.0
0.0
-0.0003662109375
0.0
0.0
0.0
-1.0
0.0
-1.0
0.0
0.084228515625
0.0
0.0
0.0
-0.52960205078125
0.0
0.57537841796875
0.0
1.0
0.0
0.43951416015625
0.0
-0.56695556640625
0.0
-0.41973876953125
0.0
-0.105499267578125
0.0
-0.0791015625
0.0
-0.0322265625
0.0
0.0853271484375
0.0
0.67425537109375
0.0
0.743865966796875
0.0
0.33514404296875
0.0
0.153839111328125
0.0
0.0
0.0
-0.0003662109375
0.0
0.0003662109375
0.0
0.0
0.0
-0.0003662109375
0.0
0.0
0.0
0.0
0.0
0.0
0.0
0.0
0.0
0.0
0.0
0.0
0.0
0.0
0.0
0.0
0.0
0.0
0.0
0.0
0.0
0.0
0.0
0.0
0.0
0.0
0.0
0.0
0.0
0.0
0.0
0.0
0.0
0.0
0.0
0.0003662109375
0.0
0.0
0.0
-0.0003662109375
0.0
0.0
0.0
0.0
0.0
0.0
0.0
0.0
0.0
0.0
0.0
0.0
0.0
0.0
0.0
0.0
0.0
0.0
0.0
0.0
0.0
-0.40362548828125
0.0
0.0
0.0
0.40362548828125
0.0
0.0
0.0
0.0
0.0
0.0
0.0
0.0
0.0
0.0
0.0
0.0
0.0
0.0
0.0
-0.015380859375
0.0
-0.021240234375
0.0
-0.099273681640625
0.0
-0.087188720703125
0.0
-0.0560302734375
0.0
-0.0794677734375
0.0
-0.050537109375
0.0
-0.0765380859375
0.0
-0.041015625
0.0
-0.046142578125
0.0
-0.0179443359375
0.0
-0.016143798828125
0.0
-0.0223388671875
0.0
0.042877197265625
0.0
-0.042510986328125
0.0
0.0047607421875
0.0
-0.0179443359375
0.0
-0.085357666015625
0.0
-0.0552978515625
0.0
-0.021240234375
0.0
0.008056640625
0.0
-0.044677734375
0.0
0.0106201171875
0.0
0.0018310546875
0.0
0.0439453125
0.0
0.01025390625
0.0
-0.0146484375
0.0
0.076171875
0.0
-0.021240234375
0.0
0.01611328125
0.0
0.176910400390625
0.0
0.135528564453125
0.0
-0.137359619140625
0.0
-0.145416259765625
0.0
0.34246826171875
0.029296875
0.33587646484375
0.068511962890625
-0.041412353515625
0.070343017578125
-0.093780517578125
0.0267333984375
-0.008056640625
-0.044677734375
0.000732421875
-0.0380859375
0.0091552734375
0.0230712890625
0.0380859375
0.0263671875
0.023834228515625
0.0157470703125
-0.005859375
0.0062255859375
-0.017974853515625
0.0377197265625
-0.0047607421875
0.07763671875
-0.050537109375
0.044677734375
-0.016845703125
0.0303955078125
-0.019775390625
0.0322265625
0.021240234375
0.0205078125
0.034423828125
0.009521484375
0.037750244140625
0.005126953125
0.079498291015625
0.0054931640625
0.0234375
-0.000732421875
0.0003662109375
0.0029296875
0.0003662109375
-0.00146484375
0.0003662109375
-0.0091552734375
0.0
-0.006591796875
-0.0003662109375
-0.0428466796875
0.0
0.0157470703125
0.0
0.043212890625
0.0
-0.00732421875
0.0
-0.000732421875
0.0
-0.0230712890625
0.0003662109375
-0.0509033203125
0.0
-0.000732421875
-0.0003662109375
-0.0406494140625
-0.0003662109375
-0.0791015625
0.0
0.0538330078125
0.0
0.0516357421875
0.0
-0.0032958984375
0.0
0.03369140625
0.0
0.056396484375
0.0003662109375
-0.0501708984375
0.0
-0.0966796875
0.0
-0.047607421875
0.0
-0.0230712890625
0.0
-0.0252685546875
0.0
-0.046142578125
-0.0003662109375
0.0069580078125
0.0
0.0509033203125
0.0
-0.01171875
0.0
-0.0816650390625
0.0003662109375
-0.0230712890625
0.0
0.0245361328125
-0.0003662109375
0.0157470703125
0.0
0.046875
0.0003662109375
0.015380859375
0.0
-0.0289306640625
0.0
-0.005126953125
0.0
0.0087890625
-0.0003662109375
0.02490234375
0.0003662109375
0.0487060546875
0.0003662109375
0.046875
0.0
0.028564453125
-0.0003662109375
0.0245361328125
0.0
0.0234375
0.0003662109375
0.031494140625
0.0
0.0380859375
-0.0003662109375
0.0362548828125
-0.0003662109375
0.0263671875
-0.00146484375
0.016845703125
-0.0179443359375
0.0205078125
-0.049102783203125
0.025634765625
-0.032989501953125
0.028564453125
-0.06005859375
-0.005859375
-0.046142578125
0.0172119140625
-0.1029052734375
0.050201416015625
-0.103271484375
0.023834228515625
0.005126953125
0.0142822265625
-0.0362548828125
0.008056640625
-0.0487060546875
0.01025390625
-0.052001953125
0.00439453125
-0.01171875
-0.0010986328125
-0.012451171875
0.0010986328125
-0.02490234375
0.0369873046875
-0.052764892578125
0.0589599609375
-0.083892822265625
0.022705078125
-0.03515625
0.009521484375
-0.0457763671875
0.0208740234375
-0.0238037109375
0.01904296875
-0.040283203125
0.0047607421875
-0.0882568359375
0.006591796875
-0.109130859375
0.0179443359375
-0.018310546875
0.01611328125
0.04833984375
0.0106201171875
-0.0238037109375
0.005126953125
-0.0120849609375
0.017578125
-0.0157470703125
0.0216064453125
0.00146484375
-0.04541015625
0.0421142578125
0.017578125
-0.079864501953125
0.0721435546875
-0.041015625
-0.005859375
0.075103759765625
-0.0069580078125
0.0223388671875
0.0091552734375
-0.0113525390625
0.0062255859375
0.0347900390625
-0.000732421875
0.043212890625
-0.005859375
0.035888671875
-0.003662109375
0.0216064453125
0.022705078125
-0.046875
0.035888671875
-0.0443115234375
0.0216064453125
-0.0186767578125
0.008056640625
-0.060791015625
0.0098876953125
-0.05419921875
0.0076904296875
0.0963134765625
0.0025634765625
0.0640869140625
0.0025634765625
-0.016845703125
0.005859375
0.0281982421875
0.0084228515625
0.0487060546875
0.0010986328125
0.022705078125
0.0062255859375
-0.0296630859375
0.008056640625
0.0296630859375
0.0018310546875
0.04248046875
-0.000732421875
0.0205078125
0.01025390625
0.002197265625
0.0062255859375
0.017578125
-0.003662109375
0.0347900390625
0.0003662109375
-0.0260009765625
-0.0076904296875
0.0091552734375
-0.010986328125
0.0142822265625
-0.018310546875
0.0289306640625
-0.02197265625
0.0135498046875
0.002197265625
-0.037353515625
0.0347900390625
-0.049072265625
0.0274658203125
-0.03515625
0.005859375
-0.006591796875
0.0032958984375
-0.0325927734375
0.0018310546875
-0.01171875
0.156402587890625
-0.268463134765625
0.156036376953125
-0.281646728515625
