-0.1343994140625
0.0498046875
-0.1417236328125
0.053466796875
0.013916015625
-0.017578125
0.0267333984375
-0.035888671875
0.0274658203125
-0.02490234375
0.025634765625
-0.0091552734375
0.0054931640625
-0.00146484375
0.0194091796875
-0.024169921875
-0.00732421875
-0.008056640625
0.0003662109375
0.005859375
0.040283203125
-0.0311279296875
0.0289306640625
-0.029296875
-0.0029296875
0.0076904296875
-0.002197265625
0.00439453125
0.0245361328125
-0.00439453125
0.0087890625
0.01025390625
0.0128173828125
-0.013916015625
0.038818359375
-0.0439453125
0.05126953125
-0.03369140625
0.012451171875
0.005859375
0.00439453125
0.016845703125
0.012451171875
0.002197265625
-0.0142822265625
-0.0032958984375
-0.0274658203125
-0.0604248046875
0.0142822265625
-0.151641845703125
0.0333251953125
-0.035552978515625
-0.029296875
0.177276611328125
-0.03076171875
0.134063720703125
-0.0230712890625
0.0479736328125
-0.03662109375
0.0640869140625
-0.0355224609375
0.06298828125
-0.032958984375
0.0582275390625
-0.0106201171875
0.01025390625
0.0029296875
-0.0465087890625
0.0296630859375
-0.069580078125
0.02197265625
-0.043212890625
-0.0032958984375
-0.00439453125
0.0003662109375
-0.0010986328125
0.0076904296875
-0.003662109375
0.0076904296875
-0.003662109375
0.0
0.0054931640625
0.0087890625
-0.0018310546875
-0.015380859375
0.003662109375
-0.018310546875
0.0106201171875
-0.000732421875
0.0029296875
0.022705078125
-0.027099609375
0.0465087890625
-0.059326171875
0.032958984375
-0.0450439453125
0.028564453125
-0.0421142578125
-0.002197265625
-0.003662109375
-0.00146484375
0.0062255859375
0.018310546875
-0.0146484375
-0.0047607421875
0.0084228515625
-0.0157470703125
0.022705078125
-0.0142822265625
0.009521484375
-0.005859375
0.0025634765625
-0.0260009765625
0.0325927734375
-0.0252685546875
0.0267333984375
-0.018310546875
0.016845703125
-0.015380859375
0.0087890625
-0.01171875
0.0029296875
-0.0179443359375
0.0047607421875
-0.01171875
0.0
-0.0135498046875
0.01904296875
0.0
0.0216064453125
-0.00439453125
0.01025390625
0.00732421875
-0.01171875
0.0018310546875
-0.005859375
-0.01171875
0.0128173828125
0.006591796875
-0.0003662109375
0.01025390625
-0.019775390625
0.021240234375
-0.0234375
0.002197265625
0.0208740234375
-0.00146484375
0.0230712890625
0.008056640625
0.0003662109375
0.016845703125
-0.00439453125
-0.0113525390625
0.0098876953125
-0.0062255859375
0.005859375
0.0274658203125
-0.0135498046875
-0.005859375
0.0087890625
-0.003662109375
0.0054931640625
-0.0018310546875
0.0040283203125
-0.002197265625
0.0025634765625
-0.00439453125
-0.0076904296875
0.0098876953125
-0.0245361328125
0.027099609375
-0.025634765625
0.0025634765625
0.006591796875
0.0047607421875
0.0106201171875
0.000732421875
0.0128173828125
0.0018310546875
0.0069580078125
0.0018310546875
-0.030029296875
0.0135498046875
-0.134033203125
0.0318603515625
-0.135894775390625
-0.012451171875
0.110595703125
-0.0263671875
0.192291259765625
-0.019775390625
0.0794677734375
-0.0157470703125
0.0384521484375
-0.0263671875
0.0391845703125
-0.030029296875
0.043212890625
-0.015380859375
0.032958984375
0.0025634765625
-0.0267333984375
0.034423828125
-0.091552734375
0.0179443359375
-0.0574951171875
-0.0128173828125
0.0018310546875
-0.04248046875
0.032958984375
-0.022705078125
0.0216064453125
-0.0018310546875
0.0062255859375
0.003662109375
-0.0054931640625
0.0296630859375
-0.022705078125
0.0069580078125
-0.0062255859375
-0.0025634765625
-0.00146484375
0.0
-0.0029296875
0.0091552734375
-0.0062255859375
0.003662109375
-0.0054931640625
0.0098876953125
-0.006591796875
0.013916015625
-0.00732421875
0.0018310546875
-0.0091552734375
-0.00146484375
-0.01171875
0.002197265625
0.009521484375
0.025634765625
0.0040283203125
0.0029296875
0.005859375
-0.0150146484375
0.024169921875
-0.0010986328125
-0.0084228515625
0.0113525390625
-0.0062255859375
-0.00146484375
0.0245361328125
-0.02490234375
0.0208740234375
-0.003662109375
0.0018310546875
0.0084228515625
-0.005126953125
0.005859375
-0.0010986328125
-0.002197265625
0.0018310546875
-0.006591796875
-0.0010986328125
0.005859375
0.0003662109375
0.0076904296875
0.010986328125
0.0062255859375
-0.000732421875
-0.00439453125
-0.0040283203125
0.0054931640625
-0.0087890625
-0.0047607421875
-0.002197265625
-0.00439453125
-0.0076904296875
0.0106201171875
-0.0311279296875
0.0172119140625
-0.037353515625
0.0406494140625
-0.03076171875
0.0439453125
-0.0263671875
0.0303955078125
-0.0281982421875
0.017578125
-0.0230712890625
0.005126953125
-0.0289306640625
0.02197265625
-0.024169921875
0.03955078125
-0.0223388671875
0.00439453125
-0.00732421875
-0.01171875
0.0087890625
0.0084228515625
-0.01318359375
0.013916015625
-0.0216064453125
0.0179443359375
-0.02197265625
0.0135498046875
-0.0208740234375
0.016845703125
-0.02197265625
0.0098876953125
0.00732421875
-0.0084228515625
0.0281982421875
-0.009521484375
0.0146484375
-0.0084228515625
0.006591796875
-0.0029296875
-0.0399169921875
-0.0010986328125
-0.130035400390625
0.0263671875
-0.132598876953125
0.01025390625
0.093780517578125
-0.0146484375
0.188262939453125
-0.0157470703125
0.072509765625
-0.0311279296875
0.038818359375
-0.0325927734375
0.047607421875
-0.0439453125
0.0662841796875
-0.0281982421875
0.0443115234375
-0.0054931640625
-0.0205078125
0.0205078125
-0.0758056640625
0.02490234375
-0.0596923828125
0.0076904296875
-0.0087890625
0.006591796875
0.0025634765625
-0.0032958984375
0.003662109375
0.006591796875
-0.0032958984375
-0.005859375
0.0047607421875
-0.00732421875
0.0025634765625
-0.00146484375
0.0
-0.0062255859375
0.005859375
-0.000732421875
0.0003662109375
-0.0091552734375
0.0076904296875
-0.00439453125
0.003662109375
-0.0091552734375
0.0076904296875
-0.0062255859375
-0.0062255859375
-0.0047607421875
-0.00732421875
-0.0029296875
0.0135498046875
0.0018310546875
0.010986328125
-0.0010986328125
0.005859375
0.0054931640625
-0.0010986328125
-0.0194091796875
0.008056640625
0.0128173828125
-0.0201416015625
0.0223388671875
-0.013916015625
-0.005859375
0.0113525390625
-0.01025390625
0.006591796875
-0.0172119140625
0.0084228515625
-0.006591796875
-0.000732421875
-0.0076904296875
-0.0032958984375
0.005126953125
-0.0205078125
0.0076904296875
-0.0084228515625
0.0120849609375
0.0098876953125
-0.0084228515625
0.01904296875
-0.018310546875
0.017578125
-0.0076904296875
0.009521484375
-0.01318359375
0.0142822265625
-0.0084228515625
0.01171875
-0.0120849609375
0.0106201171875
-0.0047607421875
-0.0025634765625
-0.0087890625
0.01318359375
0.0025634765625
0.0135498046875
0.00439453125
0.0025634765625
-0.0040283203125
0.0010986328125
-0.0087890625
-0.003662109375
-0.0084228515625
0.0091552734375
0.005859375
0.0010986328125
-0.0142822265625
0.006591796875
-0.0113525390625
0.00439453125
-0.0084228515625
0.0062255859375
-0.0084228515625
0.0076904296875
-0.0113525390625
0.006591796875
-0.021240234375
0.0076904296875
0.00439453125
-0.0120849609375
0.018310546875
-0.0076904296875
0.0186767578125
-0.0025634765625
-0.002197265625
0.005126953125
-0.0054931640625
-0.0040283203125
0.0146484375
-0.015380859375
0.0091552734375
-0.0706787109375
0.05419921875
-0.169921875
0.0340576171875
0.0150146484375
-0.0267333984375
0.18603515625
-0.0135498046875
0.087890625
0.006591796875
0.0157470703125
0.0054931640625
0.012451171875
0.0018310546875
0.0347900390625
-0.005859375
0.0362548828125
0.002197265625
-0.00732421875
0.031494140625
-0.0714111328125
0.0194091796875
-0.062255859375
0.0091552734375
-0.021240234375
-0.000732421875
0.0
0.0032958984375
-0.00439453125
0.0076904296875
-0.0120849609375
0.0069580078125
-0.012451171875
0.029296875
-0.0347900390625
0.0406494140625
-0.046875
0.0501708984375
-0.0552978515625
0.040283203125
-0.04833984375
0.040313720703125
-0.0428466796875
0.027496337890625
-0.02783203125
0.01171875
-0.012451171875
0.012451171875
-0.013916015625
0.0
-0.0076904296875
-0.006591796875
-0.005859375
-0.018310546875
0.0186767578125
-0.0054931640625
0.0179443359375
-0.0076904296875
0.01025390625
-0.0135498046875
0.0120849609375
-0.033721923828125
0.008056640625
-0.015045166015625
0.016845703125
0.01025390625
0.0120849609375
-0.0223388671875
0.0146484375
-0.0098876953125
0.0087890625
-0.018310546875
0.0150146484375
-0.0172119140625
0.012451171875
0.0062255859375
-0.0172119140625
0.0164794921875
-0.0362548828125
0.0087890625
-0.021240234375
-0.0040283203125
0.0113525390625
0.013916015625
0.0054931640625
0.0054931640625
0.0029296875
0.005859375
-0.000732421875
-0.00146484375
0.0025634765625
-0.0201416015625
0.0135498046875
-0.0234375
0.0179443359375
-0.012451171875
0.00146484375
0.0025634765625
-0.0054931640625
-0.005126953125
0.0234375
0.0003662109375
0.015380859375
-0.0087890625
0.009521484375
0.0010986328125
0.00146484375
-0.024169921875
0.0179443359375
0.006591796875
-0.0054931640625
0.030029296875
-0.024169921875
-0.022705078125
0.0142822265625
-0.015380859375
0.0106201171875
-0.0208740234375
0.01904296875
-0.0205078125
0.016845703125
-0.017578125
0.0076904296875
0.008056640625
-0.0186767578125
0.017578125
-0.0142822265625
0.0003662109375
0.0208740234375
0.0025634765625
0.015380859375
0.0003662109375
0.00439453125
0.01171875
-0.01025390625
0.0040283203125
-0.064453125
0.025634765625
-0.165557861328125
0.0238037109375
-0.080963134765625
-0.03369140625
0.168487548828125
-0.0435791015625
0.171417236328125
-0.0325927734375
0.0574951171875
-0.0205078125
0.040283203125
-0.02490234375
0.04541015625
-0.0223388671875
0.049072265625
-0.0223388671875
0.032958984375
0.003662109375
-0.0318603515625
0.0267333984375
-0.0772705078125
0.005126953125
-0.046142578125
-0.00146484375
-0.0084228515625
-0.005126953125
0.01025390625
0.005859375
-0.0040283203125
0.005859375
-0.005859375
0.00732421875
-0.005126953125
0.0010986328125
-0.00146484375
-0.0091552734375
0.0076904296875
-0.009521484375
0.00732421875
-0.010986328125
0.010986328125
0.003662109375
0.0003662109375
-0.0062255859375
0.0054931640625
-0.006591796875
0.005859375
-0.01025390625
0.005126953125
-0.0054931640625
0.0025634765625
0.0018310546875
-0.0087890625
-0.006591796875
-0.0025634765625
0.00439453125
0.00732421875
0.0003662109375
0.0084228515625
0.0018310546875
-0.005126953125
-0.0032958984375
0.00439453125
-0.0186767578125
0.0010986328125
0.00439453125
-0.0135498046875
0.0205078125
-0.00439453125
-0.0003662109375
0.0032958984375
-0.01025390625
0.0032958984375
0.0084228515625
-0.0069580078125
0.00732421875
-0.0018310546875
0.000732421875
-0.0018310546875
-0.00732421875
-0.0040283203125
0.01025390625
-0.005859375
0.0234375
0.0010986328125
0.00732421875
0.01025390625
0.005859375
-0.00146484375
0.002197265625
-0.00146484375
0.0087890625
-0.0047607421875
-0.00146484375
0.0
0.00146484375
-0.0029296875
-0.0029296875
-0.0113525390625
-0.0084228515625
-0.0029296875
0.012451171875
0.0010986328125
0.0216064453125
-0.01171875
0.0355224609375
-0.0377197265625
0.03076171875
-0.037353515625
0.01025390625
-0.035888671875
0.0322265625
-0.038818359375
0.037353515625
-0.024169921875
0.00146484375
-0.0032958984375
-0.002197265625
0.000732421875
0.00439453125
-0.008056640625
-0.01171875
0.0047607421875
-0.003662109375
-0.01025390625
0.0150146484375
-0.035888671875
0.0216064453125
-0.0245361328125
0.009521484375
0.006591796875
-0.0047607421875
0.015380859375
0.002197265625
0.0018310546875
-0.0003662109375
-0.006591796875
-0.000732421875
-0.083892822265625
0.016845703125
-0.158966064453125
0.01025390625
0.0267333984375
-0.0172119140625
0.180938720703125
-0.005126953125
0.067413330078125
-0.000732421875
0.01611328125
-0.0091552734375
0.0322265625
-0.01171875
0.032958984375
-0.0406494140625
0.0618896484375
-0.0318603515625
0.028564453125
0.006591796875
-0.0523681640625
0.0303955078125
-0.0791015625
0.01318359375
-0.0333251953125
-0.0205078125
0.0120849609375
-0.0146484375
0.0128173828125
-0.00732421875
0.005859375
0.0032958984375
-0.0069580078125
-0.00439453125
-0.0010986328125
-0.005126953125
0.0
-0.0040283203125
0.002197265625
-0.0069580078125
0.0084228515625
-0.0142822265625
0.0128173828125
-0.0263671875
0.0208740234375
-0.0146484375
0.01171875
-0.0164794921875
0.012451171875
-0.0062255859375
0.005859375
-0.008056640625
0.006591796875
-0.0084228515625
0.0084228515625
-0.01318359375
0.00439453125
-0.0245361328125
0.0146484375
-0.0120849609375
0.0201416015625
-0.018310546875
0.0238037109375
-0.0069580078125
0.009521484375
-0.02197265625
0.0238037109375
-0.0234375
0.018310546875
0.008056640625
-0.0087890625
0.010986328125
-0.0010986328125
-0.0106201171875
0.000732421875
-0.0128173828125
0.0025634765625
0.0087890625
0.0029296875
-0.0087890625
0.01171875
-0.01171875
0.0029296875
-0.01171875
-0.0047607421875
0.002197265625
-0.0003662109375
0.0142822265625
0.0047607421875
0.021240234375
0.002197265625
0.02490234375
-0.0098876953125
0.0062255859375
-0.0040283203125
0.0076904296875
-0.0054931640625
-0.0010986328125
-0.0003662109375
0.0091552734375
-0.00732421875
0.00439453125
-0.0164794921875
-0.0084228515625
-0.000732421875
0.0
0.012451171875
-0.0010986328125
0.0091552734375
0.0120849609375
-0.009521484375
0.0084228515625
-0.0047607421875
-0.0076904296875
-0.0128173828125
0.0087890625
-0.012451171875
0.0172119140625
0.0098876953125
-0.0135498046875
0.0186767578125
-0.017578125
0.0186767578125
-0.005126953125
0.006591796875
-0.0106201171875
0.0069580078125
-0.0106201171875
0.000732421875
-0.018310546875
-0.000732421875
-0.0003662109375
-0.00732421875
0.016845703125
-0.0087890625
0.0194091796875
-0.0047607421875
0.0238037109375
-0.015380859375
0.0289306640625
-0.0472412109375
0.0450439453125
-0.13916015625
0.0692138671875
-0.185333251953125
0.054931640625
0.025634765625
0.0
0.154937744140625
-0.005126953125
0.0355224609375
-0.0142822265625
0.021240234375
-0.028564453125
0.0523681640625
-0.0325927734375
0.0574951171875
-0.05419921875
0.0706787109375
-0.030029296875
0.0179443359375
0.003662109375
-0.0494384765625
0.0172119140625
-0.0574951171875
0.005126953125
-0.025634765625
-0.0113525390625
-0.0032958984375
-0.01025390625
0.0003662109375
-0.01025390625
0.0047607421875
-0.002197265625
-0.0025634765625
-0.0142822265625
0.0062255859375
-0.003662109375
0.0
0.00146484375
-0.0029296875
-0.0040283203125
0.0010986328125
-0.000732421875
-0.0010986328125
-0.0087890625
0.0076904296875
-0.0040283203125
0.0047607421875
-0.00439453125
0.002197265625
0.00146484375
-0.0047607421875
0.00732421875
-0.0069580078125
0.017578125
-0.0135498046875
0.005859375
-0.01318359375
-0.0084228515625
-0.0025634765625
0.0047607421875
0.0040283203125
0.0120849609375
0.00146484375
0.0194091796875
-0.0142822265625
0.0069580078125
-0.002197265625
-0.01904296875
0.0142822265625
0.0025634765625
-0.0091552734375
0.0238037109375
-0.0186767578125
-0.0029296875
0.0054931640625
-0.01171875
0.0087890625
-0.0087890625
0.00439453125
-0.0157470703125
0.0091552734375
-0.008056640625
-0.00146484375
-0.0029296875
-0.0135498046875
0.0069580078125
-0.0098876953125
0.00732421875
0.01171875
0.0040283203125
0.01171875
0.015380859375
-0.0076904296875
0.01171875
-0.01025390625
0.006591796875
-0.0069580078125
-0.0047607421875
0.0029296875
0.0076904296875
-0.009521484375
0.0106201171875
-0.0135498046875
-0.005126953125
-0.0062255859375
-0.015380859375
0.012451171875
-0.019775390625
0.0296630859375
-0.0091552734375
0.0186767578125
-0.009521484375
0.0150146484375
-0.0135498046875
0.0172119140625
-0.0322265625
0.0263671875
-0.005859375
-0.002197265625
0.0003662109375
0.000732421875
-0.0205078125
0.0205078125
-0.010986328125
0.008056640625
-0.01171875
0.010986328125
-0.003662109375
0.005126953125
-0.01318359375
0.0054931640625
0.003662109375
-0.010986328125
0.0087890625
-0.0091552734375
0.0091552734375
0.005126953125
0.0106201171875
0.006591796875
0.0
0.008056640625
0.0098876953125
-0.05419921875
0.0216064453125
-0.14794921875
0.0391845703125
-0.094482421875
-0.00732421875
0.1512451171875
-0.0201416015625
0.15966796875
-0.005126953125
0.0146484375
-0.01025390625
0.018310546875
-0.0003662109375
0.03076171875
-0.01318359375
0.0439453125
-0.0047607421875
0.0274658203125
0.015380859375
-0.0380859375
0.029296875
-0.08203125
0.01318359375
-0.037353515625
-0.0003662109375
-0.000732421875
-0.000732421875
-0.0025634765625
0.0
0.00439453125
0.0047607421875
0.0025634765625
-0.00146484375
0.0047607421875
0.0098876953125
-0.008056640625
0.005859375
-0.00732421875
0.0018310546875
-0.000732421875
-0.00439453125
0.0003662109375
-0.013916015625
0.0032958984375
-0.0047607421875
-0.0040283203125
-0.0003662109375
-0.0003662109375
0.0069580078125
-0.005859375
-0.0010986328125
-0.0029296875
0.01171875
-0.0128173828125
0.02783203125
-0.028564453125
0.041015625
-0.04248046875
0.046875
-0.05712890625
0.024169921875
-0.03955078125
0.0142822265625
-0.0087890625
0.0098876953125
-0.0018310546875
0.0208740234375
-0.0216064453125
0.01171875
-0.0113525390625
-0.021240234375
0.0040283203125
-0.00439453125
-0.0003662109375
0.003662109375
0.01171875
-0.0179443359375
0.0208740234375
-0.018310546875
0.016845703125
-0.0186767578125
0.015380859375
-0.0267333984375
0.01904296875
-0.0186767578125
0.0062255859375
-0.013916015625
-0.0029296875
-0.0084228515625
0.0025634765625
0.0062255859375
0.01025390625
0.0087890625
0.008056640625
0.0234375
-0.016845703125
0.018310546875
-0.017578125
0.0084228515625
-0.009521484375
-0.0047607421875
0.0018310546875
-0.002197265625
-0.0003662109375
0.002197265625
-0.005859375
-0.0069580078125
-0.005859375
-0.003662109375
-0.002197265625
-0.0062255859375
0.0172119140625
0.01025390625
0.0040283203125
0.0047607421875
-0.0025634765625
-0.008056640625
0.0076904296875
-0.0223388671875
0.0157470703125
-0.0010986328125
-0.0032958984375
0.0076904296875
-0.00439453125
-0.02490234375
0.0205078125
-0.01025390625
0.005859375
-0.0087890625
0.00439453125
-0.01025390625
0.005126953125
-0.0098876953125
-0.0029296875
0.0029296875
-0.0179443359375
0.016845703125
-0.010986328125
0.0047607421875
0.0146484375
0.003662109375
0.009521484375
-0.000732421875
0.0010986328125
0.0164794921875
-0.0845947265625
0.037353515625
-0.179473876953125
0.015380859375
-0.035186767578125
-0.035888671875
0.199981689453125
-0.028564453125
0.144683837890625
-0.0087890625
0.010986328125
-0.02490234375
0.0260009765625
-0.00439453125
0.0355224609375
-0.015380859375
0.0457763671875
-0.0186767578125
0.0245361328125
0.003662109375
-0.035888671875
0.0179443359375
-0.0655517578125
0.0186767578125
-0.0439453125
0.0003662109375
-0.0087890625
-0.00732421875
0.0025634765625
-0.0172119140625
0.01171875
-0.00146484375
0.0029296875
-0.003662109375
0.0062255859375
-0.01025390625
0.0098876953125
-0.0098876953125
0.01025390625
-0.0087890625
0.009521484375
-0.0003662109375
0.003662109375
-0.0076904296875
0.0084228515625
-0.002197265625
0.0018310546875
-0.00732421875
0.0054931640625
-0.00146484375
-0.00146484375
-0.003662109375
0.0029296875
-0.006591796875
0.0062255859375
0.0025634765625
-0.0047607421875
-0.005126953125
-0.003662109375
-0.003662109375
-0.0047607421875
-0.0025634765625
0.0113525390625
0.0076904296875
0.0047607421875
0.00146484375
-0.000732421875
0.0029296875
0.0029296875
-0.0120849609375
-0.0106201171875
0.002197265625
-0.0076904296875
0.018310546875
0.006591796875
-0.0091552734375
0.0120849609375
0.000732421875
0.002197265625
-0.005126953125
0.005126953125
-0.005859375
0.00439453125
-0.0150146484375
0.0040283203125
-0.01025390625
0.0018310546875
0.01171875
-0.01025390625
0.016845703125
-0.0091552734375
0.01904296875
-0.00146484375
0.0040283203125
0.00732421875
0.0069580078125
-0.00146484375
0.002197265625
-0.0018310546875
0.0003662109375
-0.000732421875
0.0003662109375
-0.000732421875
-0.0032958984375
-0.0032958984375
-0.0003662109375
-0.010986328125
-0.0047607421875
0.006591796875
0.0091552734375
0.0003662109375
0.0032958984375
-0.0040283203125
0.0054931640625
-0.0029296875
-0.0054931640625
-0.0128173828125
0.012451171875
-0.0098876953125
0.0216064453125
-0.0054931640625
-0.0054931640625
-0.005126953125
0.0146484375
-0.0179443359375
0.019775390625
-0.0234375
0.0216064453125
-0.0252685546875
0.0087890625
-0.0150146484375
0.017578125
-0.0303955078125
0.0380859375
-0.0498046875
0.0234375
-0.015380859375
0.0062255859375
0.010986328125
-0.006591796875
0.0135498046875
0.0076904296875
-0.0106201171875
0.0076904296875
-0.089752197265625
0.0347900390625
-0.172149658203125
0.005126953125
0.042877197265625
-0.0318603515625
0.199981689453125
-0.000732421875
0.053466796875
-0.073974609375
0.0029296875
-0.0355224609375
0.01318359375
0.0325927734375
0.032958984375
-0.0003662109375
0.044677734375
-0.0040283203125
0.0150146484375
0.0179443359375
-0.047607421875
0.03076171875
-0.068115234375
0.01904296875
-0.037353515625
0.010986328125
-0.01318359375
-0.0120849609375
0.01025390625
0.000732421875
0.0
0.012451171875
-0.0120849609375
0.017578125
-0.0157470703125
0.0084228515625
-0.00732421875
-0.0032958984375
0.0040283203125
-0.0025634765625
0.0047607421875
-0.01171875
0.008056640625
-0.0003662109375
0.00146484375
-0.010986328125
0.010986328125
-0.01318359375
0.0091552734375
-0.005126953125
0.0054931640625
0.00146484375
0.0010986328125
0.0047607421875
-0.0018310546875
-0.0106201171875
-0.0003662109375
-0.0087890625
0.0
-0.000732421875
0.0128173828125
0.010986328125
0.0018310546875
-0.002197265625
0.002197265625
-0.0626220703125
0.0150146484375
-0.1259765625
0.0157470703125
-0.0706787109375
-0.009521484375
0.0223388671875
-0.01025390625
0.0267333984375
0.017578125
0.0194091796875
0.005126953125
0.0069580078125
0.00732421875
0.008056640625
0.00732421875
0.0010986328125
0.0029296875
-0.0029296875
-0.00732421875
0.0150146484375
-0.008056640625
0.01171875
0.01611328125
0.0120849609375
0.0087890625
0.006591796875
0.000732421875
0.0069580078125
-0.000732421875
-0.0032958984375
0.009521484375
-0.00732421875
0.0106201171875
-0.00146484375
0.0029296875
-0.002197265625
-0.0003662109375
-0.00439453125
-0.0003662109375
-0.0098876953125
0.02197265625
0.0018310546875
0.0186767578125
-0.0032958984375
0.0091552734375
0.003662109375
0.005859375
-0.0146484375
0.003662109375
-0.005126953125
0.01171875
0.009521484375
0.008056640625
-0.0142822265625
0.0054931640625
-0.0040283203125
0.0062255859375
-0.009521484375
0.0098876953125
-0.0025634765625
0.003662109375
-0.008056640625
0.00732421875
-0.012451171875
0.00439453125
-0.0029296875
-0.01171875
0.01025390625
-0.008056640625
0.0164794921875
0.0029296875
-0.0029296875
0.008056640625
-0.00146484375
-0.0076904296875
-0.0069580078125
-0.0615234375
0.04833984375
-0.172149658203125
0.0347900390625
-0.0087890625
-0.034423828125
0.197052001953125
-0.0223388671875
0.0897216796875
-0.01611328125
0.0172119140625
-0.005126953125
0.0260009765625
-0.0032958984375
0.034423828125
-0.0076904296875
0.0355224609375
-0.003662109375
0.008056640625
0.025634765625
-0.0538330078125
0.030029296875
-0.071044921875
0.009521484375
-0.03369140625
0.0025634765625
-0.0091552734375
0.0029296875
0.005126953125
0.00732421875
0.0
0.0018310546875
-0.0010986328125
0.0120849609375
-0.0087890625
0.0069580078125
-0.0047607421875
-0.0003662109375
0.0032958984375
0.005126953125
-0.0054931640625
-0.0010986328125
0.00146484375
0.003662109375
-0.0032958984375
-0.0047607421875
-0.0010986328125
0.00146484375
-0.0003662109375
0.003662109375
-0.000732421875
0.0003662109375
-0.0040283203125
0.003662109375
-0.008056640625
0.0040283203125
-0.00439453125
0.01025390625
-0.0150146484375
0.0018310546875
-0.0142822265625
0.008056640625
-0.005859375
0.016845703125
-0.008056640625
0.0267333984375
-0.024169921875
0.0303955078125
-0.028564453125
0.010986328125
-0.03369140625
0.03369140625
-0.0406494140625
0.0443115234375
-0.0267333984375
0.0113525390625
-0.0113525390625
-0.0032958984375
0.0
0.0029296875
-0.0062255859375
-0.0003662109375
-0.00732421875
-0.010986328125
-0.002197265625
-0.019775390625
0.0029296875
-0.017578125
0.01171875
-0.0029296875
0.01904296875
-0.0076904296875
0.02197265625
0.0018310546875
0.000732421875
0.00732421875
-0.00732421875
0.0069580078125
-0.005859375
0.0069580078125
-0.0098876953125
0.018310546875
-0.0216064453125
0.033355712890625
-0.0333251953125
0.022735595703125
-0.029693603515625
0.0106201171875
-0.009521484375
-0.015411376953125
0.023468017578125
-0.015411376953125
0.0201416015625
-0.0098876953125
0.0128173828125
-0.0281982421875
0.0230712890625
-0.0135498046875
0.0120849609375
0.0201416015625
-0.013916015625
0.01318359375
-0.009521484375
-0.0091552734375
0.0076904296875
0.00439453125
-0.005126953125
-0.0113525390625
0.0047607421875
-0.0274658203125
0.0120849609375
-0.02783203125
0.008056640625
-0.0223388671875
0.0047607421875
-0.0084228515625
0.0135498046875
-0.0113525390625
0.0263671875
0.0018310546875
0.0054931640625
0.005859375
-0.01025390625
0.02490234375
-0.108428955078125
0.06298828125
-0.212799072265625
0.019775390625
-0.005859375
-0.0472412109375
0.206207275390625
-0.0494384765625
0.107330322265625
-0.017578125
0.01611328125
-0.0076904296875
0.0333251953125
0.00439453125
0.0296630859375
0.002197265625
0.03369140625
0.0029296875
0.01025390625
0.027099609375
-0.056396484375
0.032958984375
-0.07763671875
0.0274658203125
-0.0443115234375
0.0018310546875
-0.0003662109375
-0.010986328125
0.013916015625
-0.0281982421875
0.029296875
-0.0311279296875
0.030029296875
-0.035888671875
0.0322265625
-0.03076171875
0.0303955078125
-0.0230712890625
0.024169921875
-0.0267333984375
0.0296630859375
-0.0098876953125
0.017578125
-0.00732421875
0.0172119140625
-0.000732421875
0.009521484375
-0.0054931640625
0.006591796875
0.000732421875
0.002197265625
-0.0003662109375
-0.00146484375
-0.005859375
0.0062255859375
0.0029296875
0.0018310546875
-0.009521484375
-0.000732421875
-0.0087890625
-0.0003662109375
-0.0054931640625
0.0135498046875
0.005859375
0.0076904296875
0.003662109375
0.000732421875
-0.01025390625
0.0040283203125
0.0172119140625
-0.0234375
0.0157470703125
-0.0087890625
-0.009521484375
0.0179443359375
-0.01171875
0.010986328125
-0.005859375
0.0040283203125
-0.0084228515625
0.0084228515625
-0.005859375
0.0062255859375
-0.005859375
-0.0010986328125
-0.00439453125
-0.00732421875
0.0164794921875
-0.0098876953125
0.016845703125
0.00146484375
0.013916015625
-0.0047607421875
0.0029296875
0.0
-0.0003662109375
-0.00146484375
-0.003662109375
-0.0010986328125
0.00146484375
-0.00146484375
0.0032958984375
-0.006591796875
-0.0091552734375
-0.005859375
0.0018310546875
-0.005859375
0.0040283203125
0.0062255859375
0.010986328125
0.0
0.005126953125
-0.003662109375
-0.0069580078125
0.006591796875
-0.010986328125
-0.0010986328125
0.0106201171875
-0.01611328125
0.01904296875
-0.0106201171875
-0.0029296875
0.0010986328125
0.0098876953125
-0.01025390625
0.012451171875
-0.016845703125
0.0135498046875
-0.0201416015625
0.0135498046875
-0.0274658203125
0.02197265625
-0.0384521484375
0.0274658203125
-0.0252685546875
0.01318359375
0.000732421875
0.0142822265625
-0.0062255859375
0.0018310546875
-0.0040283203125
0.0054931640625
-0.0655517578125
0.0296630859375
-0.170318603515625
0.0135498046875
-0.053863525390625
-0.0340576171875
0.188629150390625
-0.0322265625
0.145050048828125
-0.0091552734375
0.0172119140625
-0.01611328125
0.03369140625
-0.00732421875
0.0340576171875
-0.0201416015625
0.0413818359375
-0.0179443359375
0.0267333984375
0.003662109375
-0.02783203125
0.0201416015625
-0.0677490234375
0.0234375
-0.0545654296875
-0.006591796875
-0.005859375
-0.0172119140625
0.010986328125
-0.0106201171875
0.005126953125
0.0069580078125
-0.00732421875
-0.0010986328125
-0.0010986328125
-0.0010986328125
-0.0003662109375
0.002197265625
-0.0029296875
-0.008056640625
0.0062255859375
0.0
-0.0025634765625
0.00146484375
-0.002197265625
0.00439453125
-0.00439453125
-0.002197265625
-0.00146484375
0.0003662109375
0.002197265625
-0.0047607421875
0.0062255859375
-0.0076904296875
0.0076904296875
-0.00732421875
-0.0025634765625
-0.01904296875
0.008056640625
-0.000732421875
0.0128173828125
0.002197265625
0.0084228515625
0.0003662109375
0.0003662109375
-0.0113525390625
0.0120849609375
-0.01904296875
0.0179443359375
0.013916015625
-0.0146484375
0.0098876953125
-0.0113525390625
-0.008056640625
0.0076904296875
-0.0098876953125
0.010986328125
-0.0091552734375
0.0069580078125
-0.0157470703125
0.005126953125
-0.0087890625
-0.0062255859375
0.0040283203125
-0.019775390625
0.0087890625
-0.010986328125
0.010986328125
0.0069580078125
0.003662109375
0.01171875
0.008056640625
-0.0029296875
0.00146484375
-0.003662109375
0.0054931640625
-0.00732421875
0.002197265625
-0.005126953125
0.0010986328125
-0.005859375
0.0018310546875
-0.0120849609375
-0.010986328125
-0.0018310546875
-0.0029296875
0.01318359375
0.0047607421875
0.01025390625
0.0142822265625
-0.0098876953125
0.0003662109375
0.000732421875
-0.0230712890625
0.0062255859375
-0.002197265625
0.01025390625
0.008056640625
0.0076904296875
-0.0120849609375
0.0029296875
-0.016845703125
0.0142822265625
-0.0010986328125
0.003662109375
-0.0076904296875
0.009521484375
-0.0146484375
0.0098876953125
-0.00146484375
-0.0106201171875
0.0172119140625
-0.0216064453125
0.016845703125
-0.0054931640625
-0.005859375
0.015380859375
0.000732421875
0.00732421875
0.01025390625
-0.01171875
0.0040283203125
-0.08349609375
0.02490234375
-0.157501220703125
0.0091552734375
0.04248046875
-0.038818359375
0.195220947265625
-0.017578125
0.0677490234375
-0.000732421875
0.0120849609375
-0.01025390625
0.035888671875
-0.0040283203125
0.04248046875
-0.0146484375
0.0443115234375
-0.0003662109375
0.00146484375
0.024169921875
-0.06298828125
0.0263671875
-0.0662841796875
0.013916015625
-0.029296875
-0.005859375
0.0010986328125
-0.0029296875
0.005859375
-0.008056640625
0.0120849609375
-0.002197265625
0.0010986328125
-0.003662109375
0.00146484375
-0.0120849609375
0.005859375
-0.0054931640625
0.0062255859375
0.000732421875
0.009521484375
0.0018310546875
0.0
-0.01171875
0.0054931640625
-0.0076904296875
0.0032958984375
-0.0054931640625
0.0018310546875
0.0
-0.0040283203125
0.00439453125
-0.00732421875
0.01025390625
-0.01171875
0.0216064453125
-0.02197265625
0.0223388671875
-0.0318603515625
0.030029296875
-0.04541015625
0.021240234375
-0.021240234375
0.017578125
-0.0098876953125
0.00146484375
-0.003662109375
0.005859375
-0.0040283203125
-0.0150146484375
-0.008056640625
-0.005859375
-0.0029296875
0.0208740234375
-0.0010986328125
-0.024169921875
0.0245361328125
-0.0205078125
0.0186767578125
-0.0208740234375
0.0120849609375
-0.01904296875
0.0087890625
-0.0113525390625
-0.003662109375
-0.0113525390625
-0.0069580078125
-0.003662109375
-0.000732421875
0.005859375
0.00732421875
0.0238037109375
-0.008056640625
0.005126953125
-0.0069580078125
-0.0076904296875
-0.0025634765625
-0.0087890625
0.005859375
-0.01171875
0.015380859375
-0.0040283203125
0.005859375
0.005859375
-0.0062255859375
0.0106201171875
-0.0179443359375
0.005126953125
-0.0032958984375
0.0135498046875
0.000732421875
0.00732421875
0.0
0.009521484375
-0.000732421875
-0.00439453125
0.01171875
-0.012451171875
0.0135498046875
0.0194091796875
-0.019775390625
0.005126953125
-0.00439453125
-0.0128173828125
0.01318359375
-0.005126953125
0.0054931640625
0.0010986328125
-0.0018310546875
-0.0179443359375
0.0091552734375
-0.0146484375
0.0029296875
0.0025634765625
-0.0164794921875
0.0040283203125
-0.00146484375
0.006591796875
0.013916015625
-0.0054931640625
0.018310546875
0.003662109375
-0.0142822265625
-0.00732421875
-0.1029052734375
-0.0084228515625
-0.170318603515625
-0.010986328125
0.0472412109375
-0.0245361328125
0.206207275390625
-0.005859375
0.0728759765625
-0.005859375
0.0091552734375
-0.00146484375
0.0208740234375
-0.0087890625
0.041748046875
-0.0172119140625
0.041015625
-0.0113525390625
0.0106201171875
0.0128173828125
-0.0487060546875
0.0311279296875
-0.0692138671875
0.0157470703125
-0.034423828125
-0.002197265625
-0.0069580078125
-0.0150146484375
0.0098876953125
0.000732421875
-0.0032958984375
0.0032958984375
-0.01171875
-0.01025390625
-0.006591796875
-0.0205078125
0.0010986328125
-0.0157470703125
0.0069580078125
-0.0106201171875
0.00439453125
-0.0223388671875
0.01171875
-0.0157470703125
0.0032958984375
-0.02197265625
0.0040283203125
-0.017578125
0.003662109375
-0.01025390625
0.0003662109375
-0.0091552734375
0.0029296875
-0.0018310546875
0.0040283203125
-0.003662109375
0.0091552734375
0.0047607421875
-0.000732421875
0.0040283203125
0.006591796875
0.0142822265625
0.016845703125
0.016845703125
0.009521484375
0.0135498046875
-0.0010986328125
0.009521484375
0.0040283203125
-0.0025634765625
-0.005859375
0.017578125
-0.009521484375
0.0135498046875
0.0142822265625
0.0003662109375
0.005126953125
-0.003662109375
0.005859375
-0.0040283203125
0.00439453125
-0.00732421875
0.005126953125
-0.013916015625
0.006591796875
-0.005859375
-0.0091552734375
0.0098876953125
-0.012451171875
0.02490234375
-0.0106201171875
0.0098876953125
0.00146484375
0.006591796875
-0.0029296875
0.0062255859375
-0.0025634765625
0.006591796875
-0.002197265625
0.00732421875
-0.0054931640625
0.0128173828125
-0.006591796875
0.02197265625
-0.0208740234375
0.009521484375
-0.0179443359375
0.018310546875
-0.008056640625
0.019775390625
-0.0062255859375
0.01904296875
-0.0157470703125
0.0150146484375
-0.0164794921875
-0.01171875
-0.0098876953125
0.015380859375
-0.0098876953125
0.0205078125
-0.0069580078125
-0.00146484375
-0.0091552734375
0.0010986328125
-0.0029296875
0.0029296875
-0.003662109375
-0.0128173828125
0.006591796875
-0.0216064453125
0.01025390625
-0.002197265625
-0.01611328125
0.0179443359375
-0.0281982421875
0.0311279296875
-0.013916015625
0.0120849609375
0.0084228515625
0.0084228515625
-0.0003662109375
0.0047607421875
-0.03515625
0.0186767578125
-0.134429931640625
0.03515625
-0.152374267578125
-0.0047607421875
0.098541259765625
-0.0340576171875
0.198883056640625
-0.025634765625
0.0604248046875
-0.0076904296875
0.0223388671875
-0.0069580078125
0.032958984375
-0.00732421875
0.030029296875
-0.0208740234375
0.0399169921875
-0.0120849609375
0.0032958984375
0.01611328125
-0.05859375
0.0205078125
-0.0596923828125
0.0164794921875
-0.027099609375
-0.012451171875
0.0069580078125
-0.0062255859375
0.0029296875
0.0062255859375
-0.006591796875
0.0025634765625
-0.00732421875
0.0018310546875
-0.0032958984375
-0.0010986328125
0.0010986328125
0.0047607421875
-0.0062255859375
0.00146484375
-0.003662109375
0.000732421875
0.0
-0.0157470703125
0.012451171875
-0.012451171875
0.0087890625
-0.0032958984375
0.0029296875
0.0025634765625
-0.0029296875
0.0069580078125
-0.0062255859375
-0.0062255859375
0.005126953125
-0.0076904296875
-0.0032958984375
-0.009521484375
0.005859375
0.0040283203125
0.0076904296875
0.0
0.006591796875
-0.0029296875
0.0069580078125
-0.0164794921875
0.0194091796875
-0.01171875
0.0069580078125
0.0263671875
-0.0267333984375
0.005859375
-0.0003662109375
-0.0150146484375
0.0150146484375
-0.0194091796875
0.01611328125
-0.01318359375
0.0128173828125
-0.01904296875
0.016845703125
-0.0208740234375
0.0098876953125
-0.01025390625
-0.005859375
-0.0029296875
0.0018310546875
0.0150146484375
0.005126953125
0.003662109375
0.00732421875
-0.000732421875
0.0069580078125
-0.00439453125
0.0062255859375
-0.003662109375
0.0003662109375
0.0
0.0
-0.0032958984375
0.005126953125
-0.0018310546875
-0.003662109375
-0.0084228515625
0.000732421875
0.003662109375
0.0076904296875
0.0047607421875
0.008056640625
0.005859375
0.0
0.000732421875
0.002197265625
-0.018310546875
-0.0076904296875
0.01171875
-0.01171875
0.0128173828125
0.0157470703125
-0.005859375
0.0113525390625
-0.0029296875
0.003662109375
0.0
-0.0025634765625
-0.0069580078125
0.0010986328125
-0.013916015625
0.0040283203125
-0.01025390625
-0.0029296875
0.0
-0.0076904296875
0.018310546875
-0.0084228515625
0.010986328125
0.000732421875
0.00732421875
-0.003662109375
-0.0054931640625
-0.041748046875
0.0205078125
-0.14794921875
0.0347900390625
-0.10986328125
-0.01611328125
0.150146484375
-0.028564453125
0.172119140625
-0.0179443359375
0.02490234375
-0.0076904296875
0.0098876953125
-0.0069580078125
0.0289306640625
-0.0047607421875
0.0347900390625
-0.0069580078125
0.0234375
0.0084228515625
-0.029296875
0.0289306640625
-0.0743408203125
0.0208740234375
-0.0538330078125
0.016845703125
-0.0263671875
0.005859375
-0.00732421875
0.0054931640625
-0.008056640625
0.0029296875
-0.0098876953125
0.01025390625
-0.012451171875
0.016845703125
-0.0164794921875
0.013916015625
-0.0142822265625
0.009521484375
-0.0128173828125
-0.0003662109375
-0.0025634765625
0.0091552734375
-0.0054931640625
0.005126953125
-0.005859375
0.0098876953125
-0.0120849609375
0.01025390625
-0.010986328125
0.00146484375
-0.0018310546875
-0.0010986328125
0.000732421875
-0.000732421875
-0.0025634765625
0.005859375
-0.0142822265625
-0.0150146484375
0.015380859375
-0.0032958984375
0.0157470703125
0.0135498046875
-0.01025390625
0.010986328125
-0.0120849609375
0.0018310546875
-0.0135498046875
0.0128173828125
-0.0062255859375
0.0234375
-0.0135498046875
-0.0120849609375
0.002197265625
-0.022705078125
0.0223388671875
-0.024169921875
0.02197265625
-0.0263671875
0.019775390625
-0.03515625
0.021240234375
-0.0311279296875
0.015380859375
-0.0087890625
-0.003662109375
-0.0025634765625
0.0076904296875
0.005859375
0.016845703125
0.0018310546875
0.0084228515625
-0.0010986328125
0.000732421875
-0.009521484375
0.0091552734375
-0.009521484375
0.010986328125
-0.0029296875
0.0032958984375
0.000732421875
-0.0018310546875
0.008056640625
-0.0150146484375
-0.0084228515625
-0.0018310546875
0.000732421875
0.009521484375
0.005126953125
0.0084228515625
-0.000732421875
0.0047607421875
-0.0047607421875
0.0040283203125
-0.0281982421875
0.0084228515625
0.0047607421875
-0.00439453125
0.0164794921875
0.0010986328125
-0.009521484375
0.0106201171875
-0.0128173828125
0.0106201171875
-0.006591796875
0.0054931640625
-0.009521484375
0.006591796875
-0.017578125
0.009521484375
-0.0087890625
-0.00439453125
0.00439453125
-0.010986328125
0.0179443359375
-0.0047607421875
0.0054931640625
0.01025390625
-0.000732421875
0.0040283203125
-0.0062255859375
-0.03369140625
0.010986328125
-0.1241455078125
0.03076171875
-0.126708984375
-0.002197265625
0.1190185546875
-0.0234375
0.186767578125
-0.01904296875
0.038818359375
-0.00732421875
0.0091552734375
-0.0069580078125
0.03076171875
-0.0010986328125
0.0384521484375
-0.0010986328125
0.02783203125
0.0113525390625
-0.0201416015625
0.0296630859375
-0.0692138671875
0.01904296875
-0.05126953125
0.0091552734375
-0.0186767578125
-0.0076904296875
0.00146484375
-0.0025634765625
0.00146484375
-0.0010986328125
0.0025634765625
-0.0010986328125
-0.0029296875
-0.0003662109375
-0.0062255859375
0.0
-0.0025634765625
0.0032958984375
-0.005859375
-0.0062255859375
-0.0003662109375
-0.0003662109375
-0.0032958984375
-0.0047607421875
-0.00146484375
0.0010986328125
-0.005859375
0.0062255859375
-0.0084228515625
0.010986328125
-0.0135498046875
0.0201416015625
-0.0216064453125
0.01611328125
-0.0179443359375
0.0205078125
-0.0208740234375
0.0040283203125
-0.0098876953125
-0.0054931640625
-0.0076904296875
-0.0069580078125
0.00439453125
0.0047607421875
0.006591796875
0.0142822265625
-0.005126953125
0.0076904296875
-0.008056640625
-0.0010986328125
-0.0164794921875
0.0150146484375
-0.00439453125
0.0289306640625
-0.008056640625
-0.0029296875
-0.003662109375
0.002197265625
-0.0040283203125
0.00146484375
-0.005859375
-0.0157470703125
0.0076904296875
-0.0098876953125
-0.000732421875
0.0018310546875
-0.016845703125
0.0113525390625
-0.0245361328125
0.0032958984375
0.0029296875
0.0142822265625
0.00732421875
0.0146484375
-0.003662109375
0.0032958984375
0.0010986328125
-0.0087890625
0.0106201171875
-0.019775390625
0.018310546875
-0.0010986328125
0.0025634765625
0.01318359375
-0.012451171875
0.01611328125
-0.01904296875
-0.0047607421875
-0.0087890625
-0.00439453125
0.0062255859375
0.005859375
0.0087890625
0.0010986328125
0.002197265625
-0.0047607421875
0.0029296875
-0.02490234375
0.0054931640625
0.0054931640625
0.0
0.010986328125
0.0
-0.0069580078125
-0.0018310546875
-0.0047607421875
0.00146484375
-0.00732421875
0.0018310546875
-0.01318359375
0.00439453125
-0.0252685546875
0.00732421875
-0.005859375
-0.016845703125
0.01611328125
-0.0322265625
0.021240234375
-0.008056640625
0.002197265625
0.0230712890625
-0.009521484375
0.018310546875
-0.0157470703125
0.0032958984375
-0.0208740234375
-0.0703125
0.0194091796875
-0.152008056640625
0.003662109375
0.06298828125
-0.03662109375
0.213531494140625
-0.0322265625
0.084228515625
-0.0186767578125
0.0172119140625
-0.0098876953125
0.0267333984375
-0.0084228515625
0.0413818359375
-0.0157470703125
0.043212890625
-0.018310546875
0.0142822265625
0.0084228515625
-0.0516357421875
0.008056640625
-0.0655517578125
-0.0084228515625
-0.0325927734375
-0.0281982421875
0.000732421875
-0.0274658203125
0.005126953125
-0.0230712890625
0.00732421875
-0.016845703125
0.0098876953125
-0.0018310546875
-0.000732421875
-0.0040283203125
0.0025634765625
0.0029296875
-0.00146484375
-0.0029296875
0.0025634765625
-0.006591796875
0.0032958984375
-0.0135498046875
0.0040283203125
-0.0025634765625
0.003662109375
0.0150146484375
-0.0003662109375
0.0135498046875
0.0054931640625
0.0223388671875
-0.00146484375
0.018310546875
0.000732421875
0.0164794921875
0.000732421875
0.00732421875
0.0003662109375
0.0025634765625
-0.0047607421875
0.003662109375
0.0010986328125
0.008056640625
0.008056640625
0.01171875
-0.00146484375
0.005126953125
-0.000732421875
0.0010986328125
-0.0172119140625
0.016845703125
-0.0106201171875
0.0172119140625
0.005126953125
-0.0069580078125
0.002197265625
0.0087890625
-0.0084228515625
0.01904296875
-0.0179443359375
0.012451171875
-0.01611328125
0.0142822265625
-0.0194091796875
0.0054931640625
-0.017578125
0.0087890625
-0.021240234375
0.0135498046875
-0.0076904296875
0.0179443359375
0.002197265625
0.0128173828125
-0.0040283203125
0.006591796875
-0.006591796875
0.008056640625
-0.006591796875
-0.005126953125
0.0040283203125
0.005859375
-0.005126953125
0.0150146484375
-0.01318359375
0.0157470703125
-0.019775390625
0.005126953125
-0.0164794921875
0.00732421875
-0.002197265625
0.0128173828125
-0.00146484375
-0.0029296875
0.0018310546875
0.0010986328125
-0.0010986328125
-0.02197265625
0.0029296875
0.0062255859375
-0.0047607421875
0.0194091796875
-0.00732421875
-0.01904296875
0.0025634765625
-0.0238037109375
0.005859375
-0.0146484375
0.006591796875
-0.0120849609375
0.0084228515625
-0.0281982421875
0.0150146484375
-0.0084228515625
-0.0032958984375
0.003662109375
-0.01318359375
0.0208740234375
-0.0098876953125
0.019775390625
-0.00146484375
0.0
0.0062255859375
0.005859375
-0.00146484375
0.0025634765625
-0.0010986328125
-0.0025634765625
0.008056640625
-0.0084228515625
0.012451171875
0.0062255859375
-0.003662109375
-0.0029296875
0.0010986328125
-0.0238037109375
0.0106201171875
-0.0106201171875
0.0172119140625
-0.0018310546875
0.024169921875
0.0003662109375
0.009521484375
-0.0047607421875
0.0091552734375
-0.012451171875
0.006591796875
-0.0047607421875
0.012451171875
0.01904296875
-0.009521484375
0.0098876953125
-0.016845703125
-0.0047607421875
0.00439453125
0.0003662109375
-0.0003662109375
-0.0054931640625
0.0040283203125
-0.012451171875
0.005859375
-0.01904296875
0.005859375
0.0010986328125
-0.01171875
0.0091552734375
-0.000732421875
0.0032958984375
0.0216064453125
-0.003662109375
0.01611328125
-0.008056640625
0.01025390625
0.009521484375
-0.0029296875
0.0
0.0010986328125
-0.005126953125
0.0040283203125
-0.0040283203125
0.00439453125
-0.000732421875
0.0029296875
-0.0062255859375
0.000732421875
-0.0135498046875
0.0025634765625
-0.0018310546875
0.0106201171875
0.000732421875
0.0120849609375
0.0069580078125
-0.0040283203125
-0.002197265625
0.00146484375
-0.0128173828125
-0.010986328125
0.0106201171875
-0.0040283203125
0.009521484375
0.013916015625
-0.01171875
0.0054931640625
-0.0069580078125
0.00732421875
-0.00146484375
0.0010986328125
-0.0098876953125
0.0040283203125
-0.01171875
0.003662109375
-0.0179443359375
0.0029296875
0.0003662109375
-0.0084228515625
0.0234375
-0.008056640625
0.015380859375
0.003662109375
0.0098876953125
0.0
0.0003662109375
0.0025634765625
0.0047607421875
-0.00439453125
-0.000732421875
-0.002197265625
0.00146484375
-0.0040283203125
0.000732421875
-0.0025634765625
-0.0018310546875
0.000732421875
0.0003662109375
-0.009521484375
-0.0062255859375
-0.0010986328125
0.0084228515625
0.005126953125
0.0098876953125
0.002197265625
0.01171875
-0.01025390625
0.015380859375
-0.01318359375
-0.00732421875
-0.0047607421875
0.0216064453125
-0.0296630859375
0.03515625
-0.0234375
0.0010986328125
0.003662109375
-0.0010986328125
0.000732421875
0.0032958984375
-0.005126953125
-0.006591796875
0.002197265625
-0.0076904296875
-0.0003662109375
-0.0018310546875
-0.0128173828125
0.0062255859375
-0.0098876953125
0.009521484375
0.005859375
-0.0018310546875
0.01611328125
0.0062255859375
-0.0003662109375
0.006591796875
-0.008056640625
0.01025390625
-0.013916015625
0.002197265625
-0.005126953125
0.0018310546875
-0.0010986328125
0.0120849609375
-0.0120849609375
0.0076904296875
-0.0150146484375
0.0040283203125
-0.01611328125
-0.00146484375
0.0069580078125
0.0087890625
0.0087890625
0.0032958984375
-0.0029296875
0.005859375
-0.0087890625
-0.009521484375
-0.0003662109375
-0.01171875
0.0186767578125
0.0172119140625
-0.0098876953125
0.005126953125
-0.015380859375
-0.00439453125
0.003662109375
-0.0106201171875
0.005859375
-0.0146484375
0.0091552734375
-0.028564453125
0.017578125
-0.027099609375
0.0113525390625
-0.00439453125
-0.0084228515625
0.0047607421875
0.0018310546875
0.0069580078125
0.013916015625
0.0010986328125
0.0087890625
0.009521484375
-0.00732421875
0.0054931640625
-0.0076904296875
0.0040283203125
-0.0054931640625
0.002197265625
-0.005126953125
-0.0003662109375
-0.0040283203125
-0.002197265625
-0.000732421875
-0.013916015625
0.0135498046875
-0.003662109375
0.00439453125
-0.0150146484375
0.0032958984375
-0.0281982421875
0.021240234375
-0.024169921875
0.03515625
-0.0098876953125
0.019775390625
-0.0113525390625
0.010986328125
-0.0172119140625
0.0164794921875
-0.0322265625
0.0186767578125
-0.0062255859375
0.00439453125
0.0252685546875
-0.0047607421875
-0.01025390625
0.01318359375
-0.009521484375
0.006591796875
-0.0025634765625
0.0040283203125
-0.00732421875
0.00732421875
-0.0135498046875
0.00732421875
-0.0172119140625
0.0054931640625
0.0054931640625
-0.010986328125
0.01611328125
-0.0025634765625
0.0150146484375
0.0029296875
0.005859375
0.002197265625
0.0029296875
0.0032958984375
0.0047607421875
-0.003662109375
0.0
0.0018310546875
0.0054931640625
-0.0025634765625
-0.0003662109375
-0.0054931640625
0.003662109375
-0.0025634765625
-0.0010986328125
-0.0003662109375
-0.00146484375
-0.0084228515625
0.00439453125
0.005859375
0.0040283203125
0.0087890625
0.0069580078125
-0.006591796875
-0.0010986328125
0.00146484375
-0.0069580078125
-0.0040283203125
0.0113525390625
-0.0087890625
0.017578125
-0.000732421875
-0.0087890625
0.0091552734375
-0.0040283203125
0.00439453125
-0.00146484375
-0.002197265625
-0.01171875
0.00146484375
-0.0113525390625
0.0
-0.016845703125
0.0025634765625
-0.0032958984375
-0.01171875
0.0150146484375
-0.0106201171875
0.021240234375
-0.000732421875
0.0087890625
-0.003662109375
0.00146484375
-0.0018310546875
0.0062255859375
-0.0047607421875
-0.0010986328125
-0.002197265625
0.003662109375
-0.005859375
-0.000732421875
-0.000732421875
0.0029296875
-0.003662109375
0.0029296875
-0.00732421875
-0.005126953125
-0.0076904296875
0.003662109375
-0.00146484375
0.0098876953125
0.0047607421875
0.0135498046875
-0.0084228515625
0.0032958984375
-0.00439453125
-0.01171875
0.0084228515625
-0.003662109375
0.008056640625
0.0263671875
-0.02490234375
0.017578125
-0.02490234375
0.0040283203125
-0.0054931640625
0.0150146484375
-0.0164794921875
0.005126953125
-0.0106201171875
-0.0025634765625
-0.0040283203125
-0.006591796875
-0.0062255859375
0.0047607421875
-0.017578125
0.01025390625
-0.005126953125
0.003662109375
0.01318359375
0.0025634765625
0.006591796875
0.0
0.000732421875
0.0084228515625
-0.0084228515625
0.000732421875
-0.00146484375
0.002197265625
-0.0018310546875
0.006591796875
-0.0076904296875
0.0062255859375
-0.0076904296875
0.000732421875
-0.00439453125
-0.0120849609375
-0.0018310546875
-0.010986328125
0.0087890625
-0.0106201171875
0.022705078125
0.0040283203125
0.0062255859375
0.0003662109375
0.00439453125
-0.0216064453125
0.0267333984375
-0.040283203125
0.0391845703125
0.0047607421875
-0.0120849609375
0.021240234375
-0.024169921875
-0.0179443359375
0.015380859375
-0.0062255859375
0.0054931640625
-0.0084228515625
0.00439453125
-0.0106201171875
0.00439453125
-0.01611328125
0.0054931640625
-0.006591796875
-0.006591796875
0.0106201171875
-0.0084228515625
0.0087890625
0.0098876953125
0.00439453125
0.0076904296875
-0.002197265625
0.0025634765625
0.0150146484375
-0.0146484375
0.0069580078125
-0.00732421875
-0.0010986328125
0.0025634765625
0.0113525390625
-0.0087890625
0.019775390625
-0.0186767578125
0.017578125
-0.0179443359375
-0.0054931640625
-0.0032958984375
-0.0146484375
0.0047607421875
-0.024169921875
0.0296630859375
-0.01318359375
0.02490234375
-0.0040283203125
0.0084228515625
-0.00439453125
0.0054931640625
-0.021240234375
0.0032958984375
-0.0084228515625
0.009521484375
0.01025390625
0.0062255859375
-0.018310546875
0.01171875
-0.0128173828125
0.009521484375
-0.01171875
0.009521484375
-0.0120849609375
0.00732421875
-0.0120849609375
0.0047607421875
-0.01318359375
0.003662109375
0.0062255859375
-0.010986328125
0.013916015625
-0.002197265625
0.0142822265625
0.0040283203125
0.000732421875
0.002197265625
0.0003662109375
0.0025634765625
0.0003662109375
0.0025634765625
-0.0010986328125
-0.000732421875
0.0040283203125
-0.00439453125
-0.00146484375
-0.000732421875
0.003662109375
-0.002197265625
-0.003662109375
-0.000732421875
-0.002197265625
-0.008056640625
-0.005126953125
0.0054931640625
0.00732421875
0.0084228515625
0.01171875
-0.00146484375
-0.0010986328125
-0.0010986328125
-0.003662109375
-0.01611328125
0.0106201171875
-0.00732421875
0.013916015625
0.0047607421875
-0.0120849609375
0.0084228515625
-0.00146484375
0.003662109375
-0.00146484375
0.0010986328125
-0.0069580078125
0.00439453125
-0.006591796875
0.0025634765625
-0.0150146484375
0.0032958984375
0.000732421875
-0.012451171875
0.0128173828125
-0.010986328125
0.016845703125
-0.005126953125
0.0062255859375
-0.0010986328125
0.000732421875
0.0010986328125
0.0010986328125
-0.0029296875
-0.0025634765625
-0.0010986328125
0.0054931640625
-0.00439453125
0.00146484375
-0.000732421875
0.005859375
-0.00439453125
-0.0003662109375
-0.0076904296875
-0.0047607421875
-0.005859375
-0.0018310546875
0.008056640625
0.003662109375
0.005859375
0.005859375
-0.0054931640625
-0.0040283203125
0.0025634765625
-0.0150146484375
-0.0003662109375
0.0076904296875
-0.0040283203125
0.024169921875
-0.0076904296875
-0.0032958984375
-0.0010986328125
-0.0010986328125
0.00146484375
-0.0010986328125
-0.0032958984375
-0.0087890625
0.0
-0.005859375
-0.0025634765625
-0.0106201171875
-0.005126953125
0.0032958984375
-0.0128173828125
0.013916015625
-0.00146484375
0.013916015625
0.005859375
0.0069580078125
0.000732421875
0.0010986328125
0.0
0.005859375
-0.005126953125
0.0
-0.0018310546875
0.0029296875
-0.00439453125
-0.0003662109375
-0.0003662109375
0.0040283203125
-0.0062255859375
-0.0018310546875
-0.01025390625
0.0025634765625
0.00146484375
0.0142822265625
0.0029296875
0.00439453125
-0.0010986328125
0.0076904296875
-0.006591796875
-0.01171875
0.0087890625
-0.0062255859375
0.013916015625
0.0201416015625
-0.021240234375
0.0164794921875
-0.0263671875
0.0029296875
-0.0029296875
0.0040283203125
-0.0054931640625
0.0084228515625
-0.01171875
-0.01025390625
0.0025634765625
-0.012451171875
0.00146484375
-0.003662109375
-0.010986328125
0.0142822265625
-0.0087890625
0.012451171875
0.0069580078125
-0.000732421875
0.0098876953125
0.00146484375
0.0003662109375
0.000732421875
0.00146484375
0.002197265625
0.0003662109375
-0.0084228515625
0.0069580078125
-0.002197265625
0.0032958984375
-0.0003662109375
0.0010986328125
-0.0010986328125
0.0
-0.002197265625
-0.0091552734375
-0.0091552734375
0.000732421875
-0.0003662109375
0.012451171875
0.000732421875
0.010986328125
0.0047607421875
0.0003662109375
-0.002197265625
0.0040283203125
-0.0340576171875
0.0238037109375
0.00146484375
-0.00732421875
0.022705078125
-0.0172119140625
-0.010986328125
0.010986328125
-0.00732421875
0.005859375
-0.002197265625
0.0
-0.015380859375
0.009521484375
-0.0186767578125
0.0098876953125
-0.018310546875
0.002197265625
-0.006591796875
-0.0029296875
0.009521484375
0.0032958984375
0.0018310546875
0.01171875
0.0
0.005859375
-0.005126953125
0.0076904296875
0.0
0.000732421875
-0.00146484375
0.0032958984375
0.0
0.00146484375
-0.000732421875
0.00146484375
-0.0029296875
0.0047607421875
-0.0003662109375
-0.003662109375
-0.0135498046875
0.0003662109375
-0.0025634765625
0.0069580078125
0.0047607421875
0.009521484375
0.0054931640625
-0.0010986328125
0.0029296875
-0.0040283203125
-0.009521484375
-0.00439453125
0.0091552734375
-0.0062255859375
0.0106201171875
0.0025634765625
-0.005859375
0.005859375
-0.008056640625
0.0076904296875
-0.0032958984375
0.000732421875
-0.0047607421875
0.0
-0.00732421875
0.003662109375
-0.01171875
0.0047607421875
-0.005859375
-0.005859375
0.0172119140625
-0.0106201171875
0.01318359375
0.0
0.0047607421875
0.0
-0.0029296875
0.0040283203125
0.0003662109375
-0.0010986328125
0.0018310546875
-0.0029296875
-0.0010986328125
-0.003662109375
0.0003662109375
-0.0040283203125
-0.0010986328125
-0.0003662109375
-0.000732421875
-0.0113525390625
-0.0087890625
-0.000732421875
0.002197265625
0.0087890625
0.0069580078125
0.00439453125
0.0091552734375
-0.0040283203125
0.01171875
-0.006591796875
-0.019775390625
0.0076904296875
0.01025390625
-0.0164794921875
0.0263671875
-0.0164794921875
0.00146484375
0.0010986328125
0.000732421875
-0.0032958984375
0.0018310546875
-0.005126953125
-0.003662109375
-0.0018310546875
-0.009521484375
-0.0003662109375
-0.0003662109375
-0.0142822265625
0.0076904296875
-0.0135498046875
0.021240234375
-0.0032958984375
0.01025390625
0.00732421875
0.0062255859375
0.0
0.00439453125
-0.0025634765625
0.0040283203125
-0.0040283203125
0.0029296875
-0.00439453125
0.0003662109375
0.0
0.0098876953125
-0.0084228515625
0.0010986328125
-0.010986328125
-0.0010986328125
-0.005859375
0.0018310546875
0.009521484375
0.010986328125
0.0018310546875
0.0084228515625
-0.005859375
0.0040283203125
-0.005126953125
-0.013916015625
-0.0040283203125
0.0106201171875
-0.012451171875
0.0325927734375
-0.0164794921875
-0.0018310546875
0.0003662109375
0.0040283203125
-0.0032958984375
-0.003662109375
0.002197265625
-0.01171875
0.006591796875
-0.0150146484375
0.005126953125
-0.0186767578125
0.00146484375
-0.0040283203125
-0.0047607421875
0.002197265625
0.01025390625
0.003662109375
0.0150146484375
-0.0054931640625
0.0098876953125
0.0003662109375
0.0
0.00146484375
-0.00146484375
-0.0069580078125
0.0062255859375
-0.0018310546875
0.0025634765625
0.0029296875
-0.0040283203125
0.012451171875
-0.0128173828125
-0.0029296875
-0.0087890625
-0.0113525390625
0.0054931640625
-0.0076904296875
0.0205078125
-0.0018310546875
0.013916015625
-0.0010986328125
0.0054931640625
-0.0054931640625
0.0076904296875
-0.032958984375
0.0230712890625
-0.0010986328125
-0.008056640625
0.034423828125
-0.0263671875
-0.008056640625
0.01025390625
0.0010986328125
-0.0029296875
0.009521484375
-0.01318359375
-0.0069580078125
0.00146484375
-0.01611328125
0.0069580078125
-0.016845703125
0.0003662109375
-0.0010986328125
-0.0040283203125
-0.002197265625
0.0157470703125
-0.0047607421875
0.01904296875
-0.005859375
0.01025390625
-0.0084228515625
0.0069580078125
-0.00732421875
0.0032958984375
-0.008056640625
0.0062255859375
-0.0029296875
0.0018310546875
-0.010986328125
0.006591796875
-0.005859375
0.0029296875
-0.0076904296875
-0.0010986328125
-0.0087890625
-0.0003662109375
-0.002197265625
0.009521484375
0.003662109375
0.009521484375
0.01171875
-0.0047607421875
0.0029296875
-0.0018310546875
-0.01171875
-0.000732421875
0.003662109375
0.0018310546875
0.0194091796875
-0.0062255859375
-0.0018310546875
-0.0032958984375
-0.002197265625
0.002197265625
0.0032958984375
-0.0047607421875
-0.0040283203125
0.0003662109375
-0.002197265625
-0.0029296875
-0.00439453125
-0.00732421875
0.005859375
-0.0135498046875
0.0113525390625
-0.0018310546875
0.0106201171875
0.0087890625
0.0047607421875
0.003662109375
0.00146484375
0.0003662109375
0.0084228515625
-0.005859375
-0.000732421875
-0.0018310546875
0.00732421875
-0.006591796875
0.0076904296875
-0.0076904296875
0.005859375
-0.005859375
0.0032958984375
-0.0076904296875
-0.00146484375
-0.0076904296875
0.002197265625
0.005859375
0.003662109375
0.009521484375
0.0113525390625
-0.0062255859375
0.0054931640625
-0.0062255859375
-0.005126953125
-0.0076904296875
0.0106201171875
-0.00146484375
0.013916015625
-0.0025634765625
-0.0113525390625
0.0018310546875
-0.01171875
0.01025390625
-0.005859375
0.0018310546875
-0.01171875
0.0054931640625
-0.0091552734375
0.003662109375
-0.0135498046875
0.0003662109375
-0.003662109375
-0.0098876953125
0.0084228515625
-0.0003662109375
0.0040283203125
0.0142822265625
-0.000732421875
0.005859375
-0.0084228515625
0.0062255859375
-0.003662109375
0.003662109375
-0.0047607421875
0.0040283203125
-0.002197265625
0.002197265625
-0.0025634765625
0.0025634765625
0.000732421875
0.0
0.00146484375
-0.0040283203125
-0.009521484375
0.0
-0.0025634765625
0.0084228515625
0.00146484375
0.0087890625
0.0032958984375
-0.00146484375
-0.0029296875
0.0029296875
-0.0172119140625
-0.0087890625
0.0047607421875
-0.00732421875
0.01318359375
0.006591796875
-0.00146484375
0.0003662109375
-0.0010986328125
0.0018310546875
-0.002197265625
0.0032958984375
-0.0076904296875
0.006591796875
-0.0106201171875
0.003662109375
-0.0120849609375
0.0029296875
0.0025634765625
-0.00732421875
0.0216064453125
-0.01025390625
0.0186767578125
0.0003662109375
0.010986328125
-0.0010986328125
0.0003662109375
0.0029296875
0.005126953125
-0.003662109375
0.0
0.0
0.000732421875
0.0010986328125
0.0040283203125
-0.00439453125
-0.0040283203125
-0.002197265625
-0.0054931640625
-0.0025634765625
-0.0029296875
0.005859375
0.0098876953125
0.003662109375
0.0047607421875
0.0025634765625
0.0047607421875
-0.0010986328125
-0.0098876953125
-0.0084228515625
0.0113525390625
-0.012451171875
0.0146484375
0.0025634765625
-0.016845703125
0.0157470703125
-0.0032958984375
0.00146484375
-0.0054931640625
0.0003662109375
-0.0032958984375
-0.000732421875
-0.0106201171875
0.0018310546875
-0.010986328125
0.0010986328125
-0.0032958984375
-0.0087890625
0.0098876953125
-0.008056640625
0.02197265625
-0.00439453125
0.008056640625
0.000732421875
0.00439453125
-0.0032958984375
0.00146484375
-0.0029296875
0.0076904296875
-0.0062255859375
0.0032958984375
-0.0040283203125
-0.0003662109375
-0.000732421875
0.00439453125
-0.0091552734375
0.0
-0.0135498046875
0.0087890625
-0.00732421875
0.0054931640625
0.0032958984375
0.0135498046875
-0.0087890625
0.015380859375
-0.0120849609375
-0.0029296875
-0.0032958984375
0.008056640625
0.0003662109375
0.02783203125
-0.0216064453125
0.01318359375
-0.021240234375
-0.005126953125
0.003662109375
0.0032958984375
-0.0047607421875
-0.0076904296875
0.0025634765625
-0.0164794921875
0.01025390625
-0.01611328125
0.0032958984375
-0.008056640625
-0.005859375
0.003662109375
0.0040283203125
-0.0003662109375
0.01904296875
0.005126953125
0.003662109375
0.00439453125
-0.0040283203125
0.008056640625
-0.008056640625
-0.0040283203125
0.0029296875
-0.006591796875
0.0076904296875
0.00732421875
-0.0047607421875
0.0029296875
-0.0120849609375
-0.0032958984375
-0.0062255859375
-0.006591796875
0.0157470703125
0.0010986328125
0.010986328125
-0.005859375
0.0087890625
-0.000732421875
0.0032958984375
-0.02197265625
0.00146484375
0.0047607421875
-0.009521484375
0.03369140625
-0.0146484375
-0.0047607421875
0.0040283203125
0.0029296875
-0.005859375
0.0
-0.00439453125
-0.012451171875
0.006591796875
-0.0245361328125
0.0128173828125
-0.017578125
0.0003662109375
0.00146484375
-0.0098876953125
0.005859375
0.0076904296875
0.0003662109375
0.0157470703125
-0.009521484375
0.01318359375
0.0018310546875
-0.0010986328125
-0.005126953125
0.0032958984375
-0.0106201171875
0.010986328125
-0.0069580078125
0.0054931640625
-0.0018310546875
0.000732421875
0.0032958984375
-0.0113525390625
-0.0032958984375
-0.009521484375
0.0010986328125
0.0069580078125
-0.0029296875
0.01611328125
-0.0025634765625
0.005859375
-0.006591796875
0.0025634765625
-0.0194091796875
0.0
0.006591796875
-0.0018310546875
0.015380859375
-0.002197265625
-0.0025634765625
-0.0025634765625
-0.01171875
0.0069580078125
-0.0062255859375
0.0047607421875
-0.0076904296875
0.00732421875
-0.0157470703125
0.009521484375
-0.017578125
0.00732421875
-0.0084228515625
-0.0010986328125
0.009521484375
-0.0029296875
0.00146484375
0.0128173828125
-0.00146484375
0.0084228515625
-0.0084228515625
0.0047607421875
-0.002197265625
0.00146484375
-0.003662109375
0.0025634765625
-0.006591796875
0.0047607421875
-0.000732421875
0.00146484375
-0.006591796875
0.002197265625
-0.0047607421875
-0.0029296875
-0.0084228515625
0.009521484375
0.000732421875
0.0091552734375
0.0040283203125
0.0003662109375
0.005859375
-0.000732421875
-0.016845703125
0.01611328125
-0.00146484375
-0.0091552734375
0.0238037109375
-0.0194091796875
-0.005859375
0.0135498046875
-0.0010986328125
0.003662109375
-0.0025634765625
0.0040283203125
-0.003662109375
0.0032958984375
-0.0069580078125
0.0054931640625
-0.013916015625
0.003662109375
-0.0135498046875
-0.0076904296875
0.00732421875
-0.01025390625
0.0281982421875
-0.003662109375
0.0047607421875
0.00439453125
-0.00146484375
-0.000732421875
0.0018310546875
0.0025634765625
0.00732421875
-0.0018310546875
0.0069580078125
-0.0062255859375
0.0029296875
-0.0003662109375
0.00732421875
-0.00439453125
-0.0018310546875
-0.0047607421875
-0.003662109375
-0.0032958984375
0.0
0.008056640625
0.012451171875
0.000732421875
0.00732421875
-0.0018310546875
-0.0018310546875
0.0069580078125
-0.0076904296875
-0.00732421875
0.005859375
-0.0128173828125
0.0146484375
-0.0018310546875
-0.006591796875
0.00732421875
-0.000732421875
-0.0010986328125
-0.006591796875
-0.0003662109375
-0.0069580078125
0.000732421875
-0.0062255859375
-0.0018310546875
-0.0091552734375
-0.006591796875
0.0076904296875
-0.0135498046875
0.01318359375
-0.0032958984375
0.012451171875
-0.000732421875
0.000732421875
0.000732421875
0.003662109375
-0.0054931640625
0.0025634765625
-0.0040283203125
-0.0010986328125
-0.0003662109375
0.0054931640625
-0.00439453125
0.00439453125
-0.00439453125
0.01025390625
-0.01904296875
0.0018310546875
-0.0098876953125
0.0084228515625
0.0029296875
0.013916015625
-0.0018310546875
0.0098876953125
-0.00732421875
0.005126953125
-0.006591796875
-0.0281982421875
0.013916015625
0.0098876953125
-0.0128173828125
0.0303955078125
-0.018310546875
0.0
0.0025634765625
-0.0010986328125
-0.00146484375
-0.00146484375
0.000732421875
-0.0091552734375
0.0062255859375
-0.017578125
0.0084228515625
-0.005859375
-0.0076904296875
0.00439453125
-0.0113525390625
0.01611328125
-0.000732421875
0.0062255859375
0.0106201171875
0.00439453125
0.002197265625
0.005859375
-0.005126953125
0.0047607421875
-0.0054931640625
0.0029296875
-0.0018310546875
-0.00146484375
0.00146484375
0.008056640625
-0.0069580078125
0.0
-0.0069580078125
-0.0029296875
-0.0054931640625
-0.0003662109375
0.0084228515625
0.006591796875
0.0062255859375
0.003662109375
-0.0018310546875
0.0087890625
-0.0087890625
0.0084228515625
-0.0263671875
0.03076171875
-0.0311279296875
0.0347900390625
-0.0179443359375
-0.022705078125
0.0146484375
-0.02490234375
0.0223388671875
-0.0252685546875
0.024169921875
-0.03076171875
0.0245361328125
-0.0274658203125
0.01904296875
-0.0234375
0.0091552734375
-0.00732421875
-0.0029296875
-0.0047607421875
0.013916015625
0.00146484375
0.0157470703125
-0.0025634765625
0.008056640625
-0.0069580078125
0.003662109375
-0.0032958984375
0.0025634765625
-0.006591796875
0.006591796875
-0.0047607421875
0.002197265625
-0.0040283203125
0.005126953125
-0.00439453125
-0.0032958984375
-0.0142822265625
-0.0003662109375
-0.0032958984375
0.010986328125
0.005859375
0.0084228515625
0.0025634765625
0.0010986328125
0.0032958984375
-0.0018310546875
-0.0205078125
0.0
0.0087890625
-0.0062255859375
0.0205078125
0.002197265625
-0.009521484375
0.0047607421875
-0.01611328125
0.0040283203125
-0.01318359375
0.0032958984375
-0.0087890625
0.0029296875
-0.01171875
0.0040283203125
-0.00732421875
-0.002197265625
0.000732421875
-0.0069580078125
0.01904296875
-0.008056640625
0.01318359375
0.005126953125
0.005126953125
0.0010986328125
-0.0003662109375
-0.002197265625
0.0025634765625
0.00146484375
0.006591796875
0.0
0.0025634765625
-0.0003662109375
0.0113525390625
0.000732421875
0.0003662109375
-0.0029296875
-0.0032958984375
-0.010986328125
0.000732421875
0.0047607421875
0.0032958984375
0.0087890625
0.0032958984375
0.0
-0.0025634765625
0.0010986328125
-0.0003662109375
-0.0223388671875
0.0311279296875
-0.0106201171875
0.0289306640625
0.0142822265625
-0.005126953125
0.0091552734375
0.005126953125
0.0003662109375
0.00146484375
-0.00146484375
-0.00439453125
0.00146484375
-0.0098876953125
0.0029296875
-0.01611328125
0.0029296875
0.0054931640625
-0.0142822265625
0.0164794921875
-0.0087890625
0.0179443359375
-0.0010986328125
0.0076904296875
0.0
0.0018310546875
-0.000732421875
0.000732421875
-0.000732421875
-0.00146484375
0.00146484375
0.003662109375
-0.00439453125
-0.00146484375
-0.0018310546875
-0.000732421875
-0.00732421875
-0.0069580078125
-0.0010986328125
0.000732421875
0.0069580078125
0.0087890625
0.0029296875
0.0029296875
0.0010986328125
0.000732421875
0.0010986328125
-0.0216064453125
0.0003662109375
0.0069580078125
-0.0106201171875
0.0150146484375
0.0025634765625
-0.0054931640625
0.008056640625
-0.0010986328125
0.0003662109375
-0.0029296875
-0.000732421875
-0.00439453125
-0.0003662109375
-0.013916015625
0.005126953125
-0.0098876953125
-0.00439453125
-0.0076904296875
-0.008056640625
0.010986328125
-0.002197265625
0.01171875
0.0054931640625
0.0029296875
0.002197265625
0.000732421875
0.0
0.0003662109375
0.0
0.00439453125
-0.0047607421875
-0.00439453125
0.000732421875
0.0
-0.0025634765625
-0.008056640625
-0.006591796875
-0.005859375
0.0010986328125
0.003662109375
0.009521484375
0.0062255859375
0.0040283203125
0.0040283203125
-0.00146484375
-0.012451171875
0.0120849609375
-0.0062255859375
0.0113525390625
0.0150146484375
-0.0172119140625
0.01611328125
-0.0205078125
-0.0047607421875
0.0010986328125
-0.0106201171875
0.00146484375
-0.0069580078125
-0.002197265625
-0.003662109375
-0.0003662109375
-0.00439453125
-0.002197265625
-0.0040283203125
-0.0091552734375
0.009521484375
-0.00439453125
0.0076904296875
0.0098876953125
0.00732421875
0.0029296875
0.000732421875
0.002197265625
-0.0040283203125
-0.0465087890625
0.0223388671875
-0.148712158203125
0.0245361328125
-0.090118408203125
-0.0113525390625
0.148712158203125
-0.0289306640625
0.161529541015625
-0.0113525390625
0.0238037109375
-0.006591796875
0.0234375
-0.0018310546875
0.02490234375
-0.0084228515625
0.03076171875
-0.01611328125
0.031494140625
0.005859375
-0.0223388671875
0.0150146484375
-0.0618896484375
0.01904296875
-0.052734375
0.0084228515625
-0.021240234375
0.00146484375
-0.005126953125
0.0
-0.000732421875
-0.0010986328125
-0.0018310546875
0.0003662109375
-0.003662109375
-0.00146484375
0.0003662109375
0.00439453125
-0.0040283203125
-0.0047607421875
0.002197265625
0.0003662109375
-0.00146484375
0.003662109375
-0.0025634765625
0.00146484375
0.0003662109375
0.0
0.00146484375
-0.0032958984375
0.003662109375
0.000732421875
-0.00146484375
-0.0040283203125
0.0029296875
-0.000732421875
-0.008056640625
-0.0062255859375
-0.0054931640625
0.00146484375
0.009521484375
0.01025390625
0.003662109375
0.002197265625
-0.00146484375
0.00146484375
0.0010986328125
-0.02490234375
0.0208740234375
0.0062255859375
-0.0091552734375
0.0216064453125
-0.01904296875
-0.0062255859375
0.0040283203125
-0.0054931640625
0.0010986328125
-0.005126953125
0.003662109375
-0.0069580078125
0.002197265625
-0.017578125
0.005126953125
-0.012451171875
-0.0032958984375
-0.0047607421875
-0.005126953125
0.012451171875
0.0
0.0087890625
0.0047607421875
0.0029296875
0.00146484375
0.0010986328125
0.0003662109375
-0.0018310546875
0.0025634765625
0.0032958984375
0.0
-0.000732421875
0.002197265625
-0.000732421875
0.000732421875
-0.005126953125
-0.003662109375
-0.00439453125
0.0
-0.00146484375
0.01025390625
0.0076904296875
0.005126953125
0.0076904296875
-0.00439453125
0.0018310546875
-0.00146484375
-0.01318359375
-0.00146484375
0.0018310546875
-0.006591796875
0.019775390625
-0.0025634765625
-0.005859375
0.0091552734375
-0.0032958984375
0.003662109375
-0.003662109375
0.0018310546875
-0.008056640625
0.003662109375
-0.009521484375
0.0029296875
-0.0120849609375
0.00146484375
0.008056640625
-0.01171875
0.013916015625
-0.006591796875
0.0120849609375
0.0
0.00439453125
0.0
-0.00732421875
-0.0340576171875
0.0113525390625
-0.1234130859375
0.0318603515625
-0.118316650390625
-0.000732421875
0.12158203125
-0.0289306640625
0.179473876953125
-0.0098876953125
0.0205078125
-0.0113525390625
0.0106201171875
-0.006591796875
0.030029296875
-0.005126953125
0.03515625
-0.012451171875
0.0281982421875
0.0076904296875
-0.0238037109375
0.0194091796875
-0.0655517578125
0.0194091796875
-0.05419921875
0.00732421875
-0.0186767578125
0.0040283203125
-0.0054931640625
-0.002197265625
-0.0010986328125
-0.003662109375
-0.0018310546875
0.006591796875
-0.00732421875
0.0018310546875
-0.0029296875
0.0076904296875
-0.00732421875
0.0054931640625
-0.005126953125
0.0091552734375
-0.0087890625
0.0113525390625
-0.01171875
0.0098876953125
-0.01025390625
0.0054931640625
-0.0054931640625
0.000732421875
-0.00146484375
0.0029296875
-0.0025634765625
-0.002197265625
0.000732421875
0.01171875
-0.010986328125
0.01318359375
-0.013916015625
0.005859375
-0.01611328125
0.003662109375
-0.0054931640625
0.0106201171875
0.0029296875
0.018310546875
-0.00732421875
0.008056640625
-0.005859375
-0.006591796875
-0.0062255859375
-0.0040283203125
0.00732421875
0.0120849609375
-0.0003662109375
-0.005859375
-0.000732421875
-0.0098876953125
0.008056640625
-0.0025634765625
0.002197265625
-0.0142822265625
0.0098876953125
-0.0172119140625
0.0091552734375
-0.0208740234375
0.008056640625
-0.012451171875
-0.0018310546875
-0.00732421875
0.008056640625
0.0
0.018310546875
0.0010986328125
0.010986328125
-0.0029296875
0.0069580078125
-0.002197265625
0.003662109375
-0.010986328125
0.0087890625
-0.005126953125
0.00439453125
-0.003662109375
0.0047607421875
0.000732421875
-0.002197265625
-0.005859375
-0.005126953125
-0.005126953125
0.008056640625
0.0040283203125
0.01171875
-0.0010986328125
0.0087890625
0.0032958984375
0.0003662109375
-0.016845703125
0.0098876953125
-0.006591796875
0.0113525390625
0.0106201171875
-0.0076904296875
0.0003662109375
-0.0087890625
-0.0054931640625
0.005126953125
-0.0040283203125
0.0040283203125
-0.0018310546875
-0.00146484375
-0.0146484375
0.0062255859375
-0.0106201171875
0.0
-0.0054931640625
-0.009521484375
0.0091552734375
-0.003662109375
0.0084228515625
0.0113525390625
-0.00146484375
0.0106201171875
-0.005126953125
-0.01611328125
-0.0047607421875
-0.0985107421875
0.040283203125
-0.161529541015625
0.0157470703125
0.065185546875
-0.03515625
0.205108642578125
-0.02197265625
0.07177734375
-0.0087890625
0.008056640625
-0.013916015625
0.015380859375
-0.0157470703125
0.041748046875
-0.005859375
0.03662109375
-0.00146484375
0.0003662109375
0.017578125
-0.0556640625
0.019775390625
-0.0626220703125
0.0113525390625
-0.029296875
-0.0010986328125
-0.005859375
-0.0076904296875
0.0
-0.003662109375
-0.0010986328125
-0.0062255859375
0.000732421875
-0.00146484375
-0.00146484375
-0.0047607421875
0.0032958984375
0.000732421875
0.000732421875
0.0
0.0018310546875
0.0010986328125
0.000732421875
0.0018310546875
-0.00146484375
-0.0040283203125
0.0018310546875
0.00146484375
0.000732421875
-0.003662109375
0.0040283203125
0.0003662109375
0.0003662109375
0.0
-0.0003662109375
0.0010986328125
-0.0003662109375
-0.0010986328125
-0.002197265625
-0.005859375
-0.00439453125
0.000732421875
0.0018310546875
0.00439453125
0.005859375
0.0084228515625
-0.000732421875
-0.00146484375
0.0
-0.00439453125
-0.02197265625
0.017578125
-0.01318359375
0.0091552734375
0.0179443359375
-0.0120849609375
0.01171875
-0.003662109375
0.00439453125
0.00146484375
0.0
-0.0040283203125
0.00146484375
-0.005859375
0.0032958984375
-0.01318359375
0.00732421875
-0.0018310546875
-0.005859375
0.0157470703125
-0.0135498046875
0.016845703125
-0.00146484375
0.0146484375
-0.003662109375
0.0040283203125
-0.00146484375
0.002197265625
-0.0018310546875
-0.0040283203125
-0.0003662109375
-0.0040283203125
-0.0003662109375
-0.0062255859375
-0.000732421875
-0.0076904296875
-0.0069580078125
-0.005859375
-0.0032958984375
-0.0003662109375
0.01025390625
0.0113525390625
0.0010986328125
0.003662109375
-0.0029296875
0.0040283203125
-0.0029296875
-0.0172119140625
0.00146484375
0.005126953125
-0.0098876953125
0.0146484375
-0.003662109375
-0.01318359375
0.0098876953125
0.0
-0.003662109375
-0.00146484375
-0.002197265625
0.0018310546875
-0.00439453125
-0.0018310546875
-0.003662109375
0.0047607421875
-0.012451171875
0.0120849609375
-0.015380859375
0.0157470703125
-0.000732421875
0.01171875
0.003662109375
0.0010986328125
-0.0018310546875
0.0076904296875
-0.0728759765625
0.0380859375
-0.180938720703125
0.0311279296875
-0.04248046875
-0.027099609375
0.192291259765625
-0.0194091796875
0.12158203125
-0.0029296875
0.00439453125
-0.0047607421875
0.0179443359375
0.0018310546875
0.027099609375
-0.01025390625
0.034423828125
-0.010986328125
0.021240234375
0.000732421875
-0.0274658203125
0.022705078125
-0.065185546875
0.0205078125
-0.0472412109375
0.005859375
-0.0142822265625
-0.00146484375
-0.0010986328125
-0.00732421875
0.003662109375
-0.002197265625
0.0
-0.005859375
0.0029296875
0.0
0.0010986328125
0.0010986328125
-0.0010986328125
0.0025634765625
-0.00146484375
0.0040283203125
-0.0018310546875
-0.0010986328125
0.0003662109375
0.0
0.000732421875
-0.0054931640625
0.0040283203125
-0.0025634765625
0.0032958984375
-0.006591796875
-0.00146484375
-0.0047607421875
-0.006591796875
0.0047607421875
0.0040283203125
0.010986328125
0.003662109375
0.0076904296875
-0.00439453125
-0.009521484375
-0.006591796875
0.0062255859375
-0.0018310546875
0.008056640625
0.005859375
-0.002197265625
-0.0029296875
-0.005126953125
0.0047607421875
-0.0076904296875
0.005859375
-0.0106201171875
0.005859375
-0.0146484375
0.008056640625
-0.0091552734375
-0.0032958984375
-0.0076904296875
-0.0076904296875
0.006591796875
-0.0010986328125
0.0025634765625
0.0157470703125
-0.00146484375
0.010986328125
-0.0018310546875
0.0040283203125
-0.003662109375
0.0047607421875
0.0
0.0010986328125
-0.00146484375
0.000732421875
0.0029296875
-0.0025634765625
-0.005126953125
0.00439453125
-0.0029296875
0.0047607421875
-0.0040283203125
0.0040283203125
-0.008056640625
-0.00146484375
-0.0076904296875
0.0029296875
-0.00439453125
0.0146484375
0.01318359375
0.0010986328125
0.00439453125
-0.002197265625
-0.000732421875
0.0018310546875
-0.027099609375
0.0223388671875
0.005126953125
-0.0106201171875
0.0263671875
-0.0234375
-0.00732421875
0.0084228515625
0.0
0.0010986328125
-0.005859375
0.002197265625
-0.0040283203125
-0.000732421875
-0.01171875
0.0018310546875
-0.0069580078125
-0.008056640625
0.0040283203125
-0.0091552734375
0.0142822265625
0.000732421875
0.012451171875
0.0040283203125
-0.0003662109375
0.0029296875
0.003662109375
-0.003662109375
0.0003662109375
0.0003662109375
0.003662109375
-0.0018310546875
0.0040283203125
-0.002197265625
0.0040283203125
-0.0029296875
-0.000732421875
-0.0032958984375
-0.00439453125
0.0
0.0025634765625
0.005859375
0.0025634765625
0.0084228515625
0.0084228515625
-0.003662109375
0.000732421875
0.0
-0.017578125
0.0
0.0087890625
-0.0054931640625
0.0205078125
-0.0025634765625
-0.005126953125
0.0
-0.0054931640625
0.0018310546875
-0.0029296875
0.0003662109375
-0.0106201171875
0.00439453125
-0.0113525390625
0.00146484375
-0.0128173828125
-0.0010986328125
-0.0029296875
-0.0091552734375
0.0113525390625
-0.005126953125
0.009521484375
0.005126953125
0.003662109375
0.000732421875
-0.003662109375
0.0032958984375
-0.00146484375
0.0010986328125
-0.0054931640625
0.0018310546875
0.000732421875
0.0
0.000732421875
0.0010986328125
-0.00146484375
0.003662109375
-0.0010986328125
-0.00732421875
-0.01025390625
-0.0010986328125
0.0003662109375
0.0091552734375
0.0062255859375
0.0054931640625
0.005859375
-0.0003662109375
-0.002197265625
0.002197265625
-0.015380859375
-0.013916015625
0.0106201171875
-0.0091552734375
0.0142822265625
0.01611328125
-0.005859375
0.006591796875
-0.0062255859375
0.003662109375
-0.0040283203125
0.0010986328125
-0.0062255859375
0.0040283203125
-0.012451171875
0.0076904296875
-0.0157470703125
0.003662109375
-0.0025634765625
-0.0084228515625
0.0172119140625
-0.0106201171875
0.01318359375
0.0003662109375
0.0076904296875
-0.000732421875
0.0
0.0040283203125
0.0025634765625
-0.000732421875
0.0
-0.0047607421875
-0.0018310546875
-0.0032958984375
0.0003662109375
0.000732421875
-0.0025634765625
0.003662109375
-0.0018310546875
-0.0106201171875
-0.0062255859375
-0.0003662109375
0.0054931640625
0.009521484375
0.006591796875
0.002197265625
0.0062255859375
-0.00146484375
0.0040283203125
0.00146484375
-0.013916015625
-0.0164794921875
0.01025390625
-0.015380859375
0.01171875
0.0164794921875
-0.006591796875
0.008056640625
-0.003662109375
0.00146484375
-0.000732421875
-0.000732421875
-0.0069580078125
0.0010986328125
-0.012451171875
0.003662109375
-0.0106201171875
-0.00146484375
-0.0062255859375
-0.0076904296875
0.013916015625
-0.0091552734375
0.01171875
0.0018310546875
0.005859375
-0.0003662109375
0.0003662109375
-0.0003662109375
0.0010986328125
-0.002197265625
-0.00146484375
-0.0018310546875
-0.0040283203125
0.002197265625
0.0025634765625
-0.0018310546875
-0.0029296875
0.0
-0.00146484375
-0.00732421875
-0.006591796875
0.000732421875
0.0
0.0106201171875
0.008056640625
0.0029296875
0.00732421875
-0.0025634765625
0.003662109375
-0.002197265625
-0.0208740234375
0.0025634765625
0.009521484375
-0.0091552734375
0.019775390625
-0.0040283203125
-0.00439453125
0.00439453125
-0.002197265625
0.0018310546875
-0.000732421875
-0.0010986328125
-0.0010986328125
-0.002197265625
-0.008056640625
0.0010986328125
-0.006591796875
-0.00732421875
-0.002197265625
-0.0084228515625
0.01318359375
0.00146484375
0.0076904296875
0.0098876953125
0.0032958984375
0.0029296875
0.0025634765625
-0.000732421875
0.000732421875
-0.0010986328125
0.00439453125
-0.0029296875
-0.000732421875
0.0003662109375
0.0029296875
-0.002197265625
-0.00146484375
0.0003662109375
-0.0010986328125
-0.0032958984375
-0.00732421875
-0.0032958984375
-0.002197265625
0.0076904296875
0.0062255859375
0.008056640625
0.0032958984375
0.0003662109375
0.0087890625
-0.006591796875
-0.00732421875
-0.0025634765625
0.0010986328125
0.0076904296875
0.0113525390625
-0.003662109375
0.002197265625
-0.010986328125
-0.0054931640625
0.005126953125
-0.005126953125
0.0032958984375
-0.0010986328125
-0.0029296875
-0.0098876953125
0.0018310546875
-0.0069580078125
-0.0032958984375
-0.00439453125
-0.0084228515625
0.008056640625
-0.002197265625
0.009521484375
0.0087890625
0.0040283203125
0.0062255859375
-0.000732421875
0.0040283203125
-0.00439453125
0.00439453125
0.0025634765625
-0.003662109375
-0.00146484375
0.0
0.00439453125
-0.0018310546875
0.000732421875
0.0
0.0003662109375
0.0010986328125
-0.00146484375
0.0010986328125
-0.006591796875
-0.0003662109375
-0.0054931640625
-0.003662109375
-0.005126953125
0.01025390625
0.008056640625
0.00439453125
0.00439453125
-0.002197265625
0.005859375
-0.00439453125
-0.0076904296875
-0.005859375
0.005126953125
0.0010986328125
0.0150146484375
-0.0018310546875
-0.00732421875
0.0
-0.00146484375
0.0018310546875
-0.0029296875
0.0
0.0010986328125
-0.0054931640625
-0.008056640625
0.0
-0.0098876953125
-0.00146484375
-0.00146484375
-0.010986328125
0.0076904296875
-0.0018310546875
0.0150146484375
0.005126953125
0.0025634765625
0.0047607421875
0.00146484375
-0.00146484375
0.0003662109375
0.0
0.0025634765625
-0.00146484375
-0.000732421875
0.0010986328125
-0.0018310546875
0.002197265625
0.000732421875
-0.0018310546875
-0.0032958984375
0.0032958984375
-0.000732421875
-0.0003662109375
-0.0098876953125
-0.0025634765625
-0.0054931640625
0.005126953125
-0.000732421875
0.01171875
0.005126953125
0.002197265625
0.0054931640625
-0.0018310546875
-0.006591796875
0.0098876953125
-0.0238037109375
0.0230712890625
0.0040283203125
-0.010986328125
0.0252685546875
-0.02490234375
-0.0098876953125
0.0076904296875
-0.006591796875
0.003662109375
-0.0032958984375
0.00146484375
-0.0091552734375
0.0062255859375
-0.01171875
0.0040283203125
-0.0091552734375
-0.005126953125
0.0084228515625
-0.0113525390625
0.0120849609375
0.0
0.009521484375
0.0047607421875
0.0
0.0054931640625
-0.0003662109375
0.000732421875
0.00146484375
0.0
-0.0025634765625
0.0032958984375
0.0025634765625
-0.002197265625
-0.0010986328125
0.0
0.00146484375
-0.00146484375
-0.000732421875
0.0
-0.0029296875
-0.0040283203125
-0.0091552734375
0.002197265625
-0.0032958984375
0.0120849609375
0.010986328125
0.000732421875
0.0040283203125
-0.002197265625
0.0032958984375
-0.002197265625
-0.013916015625
-0.0146484375
0.01025390625
-0.0142822265625
0.0142822265625
0.01171875
-0.009521484375
0.0120849609375
-0.0018310546875
0.0029296875
-0.0054931640625
0.0025634765625
-0.003662109375
0.000732421875
-0.0120849609375
0.0062255859375
-0.0084228515625
-0.002197265625
0.0003662109375
-0.0098876953125
0.015380859375
-0.009521484375
0.0142822265625
-0.0018310546875
0.0025634765625
0.002197265625
0.0018310546875
0.0
-0.0029296875
0.0010986328125
0.0010986328125
-0.0029296875
-0.000732421875
-0.002197265625
0.00439453125
-0.00439453125
0.0032958984375
-0.0018310546875
0.0003662109375
-0.0029296875
-0.0018310546875
-0.01025390625
-0.005859375
0.002197265625
0.00439453125
0.0076904296875
0.003662109375
0.003662109375
0.0076904296875
-0.0047607421875
-0.00439453125
0.0087890625
-0.0164794921875
0.01318359375
0.0164794921875
-0.02197265625
0.019775390625
-0.018310546875
-0.0032958984375
0.0029296875
-0.0047607421875
0.0018310546875
-0.00146484375
-0.0025634765625
-0.006591796875
0.0
-0.0062255859375
-0.0047607421875
-0.00146484375
-0.013916015625
0.010986328125
-0.0128173828125
0.018310546875
0.0018310546875
0.006591796875
0.0087890625
0.0062255859375
-0.00146484375
0.0032958984375
-0.0029296875
0.00439453125
-0.005859375
-0.0003662109375
-0.0018310546875
0.000732421875
-0.000732421875
0.009521484375
-0.0087890625
0.008056640625
-0.00732421875
0.00439453125
-0.005859375
-0.0084228515625
-0.003662109375
-0.002197265625
0.005126953125
0.0025634765625
0.010986328125
0.0029296875
0.002197265625
0.002197265625
-0.002197265625
-0.0087890625
0.0032958984375
-0.0010986328125
0.0091552734375
0.01611328125
-0.0135498046875
0.0106201171875
-0.0179443359375
-0.0087890625
0.0076904296875
-0.00146484375
0.0
-0.003662109375
-0.00146484375
-0.0120849609375
0.0040283203125
-0.0120849609375
0.0003662109375
-0.0062255859375
-0.0084228515625
0.0054931640625
-0.0025634765625
0.000732421875
0.018310546875
0.0003662109375
0.0135498046875
-0.003662109375
0.0062255859375
-0.00146484375
0.002197265625
-0.00439453125
0.003662109375
-0.0084228515625
0.0054931640625
-0.0025634765625
0.0010986328125
-0.003662109375
0.0029296875
0.0
0.0
-0.0047607421875
0.00439453125
-0.0029296875
-0.003662109375
-0.0084228515625
0.0025634765625
-0.00439453125
0.0146484375
0.0087890625
0.0018310546875
0.002197265625
-0.00146484375
0.0029296875
-0.0029296875
-0.0245361328125
0.0076904296875
0.005859375
-0.0091552734375
0.0234375
-0.008056640625
-0.008056640625
0.010986328125
-0.0047607421875
0.003662109375
-0.0054931640625
0.0010986328125
-0.008056640625
0.0018310546875
-0.01904296875
0.0091552734375
-0.0128173828125
-0.000732421875
-0.0062255859375
-0.0047607421875
0.0076904296875
0.0029296875
0.009521484375
0.0087890625
0.0032958984375
0.003662109375
0.0010986328125
0.0003662109375
-0.0029296875
0.0025634765625
0.000732421875
-0.000732421875
-0.005859375
0.00439453125
-0.0003662109375
0.0010986328125
-0.0003662109375
0.00146484375
-0.0003662109375
0.0018310546875
0.0003662109375
-0.0047607421875
-0.0069580078125
-0.002197265625
-0.000732421875
0.0076904296875
0.0040283203125
0.008056640625
0.0054931640625
-0.0025634765625
-0.00146484375
-0.0003662109375
-0.0098876953125
-0.0025634765625
0.0054931640625
0.0003662109375
0.015380859375
-0.003662109375
0.00146484375
-0.0054931640625
-0.0029296875
0.0032958984375
0.002197265625
-0.0032958984375
-0.005859375
0.0
-0.009521484375
0.00146484375
-0.0128173828125
-0.000732421875
-0.0047607421875
-0.01025390625
0.01025390625
-0.006591796875
0.0106201171875
0.0087890625
0.0084228515625
0.003662109375
0.0
0.0032958984375
0.00146484375
-0.0010986328125
-0.003662109375
-0.0003662109375
-0.0029296875
0.000732421875
-0.0018310546875
0.000732421875
-0.003662109375
0.0032958984375
-0.0003662109375
0.0003662109375
-0.005126953125
-0.0029296875
-0.0054931640625
-0.0040283203125
-0.0040283203125
0.0087890625
0.0076904296875
0.005126953125
0.0054931640625
0.0
-0.003662109375
0.0
-0.01904296875
-0.005859375
0.0054931640625
-0.0018310546875
0.018310546875
0.0029296875
-0.0087890625
0.00439453125
0.0010986328125
-0.0003662109375
-0.0040283203125
0.0032958984375
-0.005859375
0.0032958984375
-0.008056640625
0.0025634765625
-0.0164794921875
0.003662109375
-0.0040283203125
-0.0076904296875
0.0113525390625
-0.009521484375
0.0142822265625
0.0
0.0025634765625
0.0047607421875
0.005126953125
-0.002197265625
0.0032958984375
-0.0003662109375
-0.0010986328125
0.0
0.0003662109375
-0.0025634765625
-0.0025634765625
0.0003662109375
0.0003662109375
-0.0003662109375
-0.00439453125
0.0003662109375
-0.002197265625
-0.009521484375
-0.003662109375
0.0010986328125
0.0003662109375
0.0113525390625
0.00732421875
-0.0003662109375
0.0084228515625
-0.005859375
0.0076904296875
-0.0010986328125
-0.0179443359375
-0.0091552734375
0.005859375
-0.015380859375
0.0146484375
0.0120849609375
-0.0062255859375
0.0128173828125
-0.00439453125
-0.0003662109375
-0.00146484375
-0.000732421875
-0.00439453125
0.0018310546875
-0.018310546875
0.00732421875
-0.006591796875
-0.0018310546875
-0.0010986328125
-0.0076904296875
0.0113525390625
-0.0069580078125
0.0120849609375
0.0003662109375
0.0069580078125
0.0003662109375
0.002197265625
-0.00146484375
-0.002197265625
0.0
0.0029296875
-0.0025634765625
-0.0010986328125
0.000732421875
-0.0003662109375
-0.002197265625
-0.00439453125
0.00146484375
0.0010986328125
-0.0029296875
-0.0032958984375
-0.00439453125
-0.0010986328125
0.0084228515625
0.0091552734375
0.006591796875
0.003662109375
0.000732421875
0.005126953125
-0.0029296875
-0.0146484375
-0.00146484375
0.0069580078125
-0.002197265625
0.0135498046875
-0.0003662109375
-0.0076904296875
0.000732421875
-0.000732421875
0.0003662109375
-0.0025634765625
0.002197265625
0.0
-0.002197265625
-0.008056640625
0.00146484375
-0.006591796875
-0.005126953125
-0.002197265625
-0.0113525390625
0.01025390625
-0.0025634765625
0.010986328125
0.00732421875
0.0029296875
0.0047607421875
0.00146484375
-0.0003662109375
-0.0018310546875
0.0010986328125
0.005126953125
-0.0029296875
0.0018310546875
-0.00146484375
0.0040283203125
-0.0029296875
0.00146484375
-0.0003662109375
-0.0010986328125
-0.00439453125
-0.00439453125
-0.005126953125
-0.0047607421875
0.010986328125
0.0091552734375
0.005859375
0.0047607421875
-0.0003662109375
0.00439453125
-0.0025634765625
-0.012451171875
-0.0029296875
0.0062255859375
-0.0018310546875
0.0142822265625
0.0
-0.0087890625
0.0032958984375
-0.002197265625
0.00146484375
-0.005126953125
0.0018310546875
-0.00146484375
-0.0003662109375
-0.0091552734375
0.0025634765625
-0.0084228515625
-0.0029296875
-0.00146484375
-0.0098876953125
0.0091552734375
-0.00146484375
0.013916015625
0.005859375
0.0029296875
0.0054931640625
0.002197265625
0.000732421875
-0.0025634765625
0.0018310546875
0.00146484375
-0.0010986328125
0.00146484375
0.0
0.0029296875
-0.000732421875
0.0018310546875
-0.0029296875
-0.0018310546875
0.0
0.002197265625
-0.009521484375
-0.008056640625
-0.0029296875
-0.0029296875
0.0106201171875
0.0054931640625
0.0062255859375
0.0076904296875
-0.0025634765625
0.0003662109375
0.0003662109375
-0.0216064453125
0.0029296875
0.008056640625
-0.0106201171875
0.019775390625
-0.00439453125
-0.00439453125
0.00439453125
-0.0062255859375
0.003662109375
-0.003662109375
0.002197265625
-0.008056640625
0.00146484375
-0.0106201171875
0.0010986328125
-0.0098876953125
-0.005126953125
-0.005126953125
-0.0087890625
0.0098876953125
-0.0032958984375
0.0054931640625
0.0076904296875
0.0025634765625
0.002197265625
-0.0040283203125
0.0032958984375
-0.002197265625
0.002197265625
0.0010986328125
0.0003662109375
0.0003662109375
-0.0003662109375
0.0025634765625
-0.0025634765625
0.0018310546875
0.0018310546875
0.005126953125
0.0003662109375
-0.0062255859375
-0.0025634765625
-0.0062255859375
0.0010986328125
-0.002197265625
0.0098876953125
0.0029296875
0.003662109375
0.00439453125
-0.0010986328125
-0.0029296875
0.0054931640625
-0.0223388671875
0.0135498046875
0.00439453125
-0.0091552734375
0.0263671875
-0.01611328125
-0.0084228515625
0.0091552734375
-0.0040283203125
0.002197265625
-0.0069580078125
0.0010986328125
-0.01171875
0.006591796875
-0.0084228515625
0.0032958984375
-0.0106201171875
-0.0003662109375
0.006591796875
-0.012451171875
0.0164794921875
-0.005859375
0.01611328125
0.0032958984375
0.0062255859375
-0.0003662109375
0.0029296875
0.0
0.0010986328125
-0.000732421875
-0.0047607421875
0.000732421875
0.0018310546875
-0.000732421875
-0.0003662109375
-0.00146484375
0.00439453125
-0.00439453125
-0.0010986328125
-0.0087890625
-0.0054931640625
0.0018310546875
0.000732421875
0.0135498046875
0.00732421875
0.000732421875
0.0087890625
-0.0076904296875
-0.0010986328125
0.003662109375
-0.01171875
-0.0098876953125
0.003662109375
-0.0098876953125
0.015380859375
0.0062255859375
-0.0025634765625
0.0084228515625
-0.00146484375
0.0076904296875
-0.0018310546875
-0.0010986328125
-0.0091552734375
0.002197265625
-0.012451171875
0.0054931640625
-0.016845703125
0.00146484375
0.0018310546875
-0.01171875
0.015380859375
-0.008056640625
0.01318359375
0.0
0.0054931640625
-0.002197265625
-0.00439453125
0.0010986328125
0.000732421875
-0.0010986328125
0.0
0.0010986328125
0.0025634765625
-0.002197265625
0.000732421875
-0.002197265625
0.003662109375
-0.0047607421875
0.000732421875
-0.0113525390625
-0.0029296875
-0.002197265625
0.0087890625
0.00439453125
0.0098876953125
0.00146484375
0.0106201171875
-0.0069580078125
0.0
0.000732421875
-0.016845703125
0.0120849609375
0.017578125
-0.0223388671875
0.032958984375
-0.02783203125
0.0003662109375
-0.0010986328125
-0.0010986328125
-0.002197265625
0.0025634765625
-0.003662109375
-0.005859375
0.0003662109375
-0.0032958984375
-0.005126953125
-0.0018310546875
-0.0128173828125
0.0047607421875
-0.009521484375
0.00732421875
0.0069580078125
0.0025634765625
0.0135498046875
0.00146484375
0.005126953125
-0.000732421875
0.0025634765625
0.0040283203125
-0.0018310546875
-0.006591796875
0.0047607421875
-0.005859375
0.0062255859375
-0.00732421875
0.006591796875
-0.0098876953125
0.00439453125
-0.00732421875
-0.0040283203125
-0.0054931640625
0.009521484375
0.0062255859375
0.01025390625
0.0040283203125
-0.002197265625
0.005859375
-0.005859375
-0.0120849609375
0.002197265625
-0.005859375
0.0120849609375
0.01318359375
-0.005126953125
0.0
-0.0084228515625
-0.0062255859375
0.005126953125
-0.0054931640625
0.002197265625
0.0
-0.002197265625
-0.0098876953125
0.0040283203125
-0.0113525390625
0.0003662109375
-0.003662109375
-0.010986328125
0.008056640625
-0.0054931640625
0.0091552734375
0.0098876953125
-0.003662109375
0.0135498046875
-0.0018310546875
0.00439453125
-0.002197265625
0.0003662109375
0.0032958984375
-0.005126953125
0.0
-0.00146484375
-0.0003662109375
-0.0018310546875
0.0
-0.0040283203125
-0.005859375
0.0025634765625
-0.006591796875
-0.0040283203125
-0.010986328125
0.0040283203125
-0.0003662109375
0.009521484375
0.0040283203125
0.0032958984375
0.0076904296875
-0.0032958984375
0.002197265625
0.0
-0.03076171875
0.028564453125
0.0087890625
-0.01171875
0.029296875
-0.028564453125
-0.0029296875
0.00439453125
-0.0010986328125
-0.0025634765625
0.0029296875
-0.005859375
-0.0069580078125
0.0025634765625
-0.015380859375
0.005859375
-0.008056640625
-0.0040283203125
0.0025634765625
-0.006591796875
0.01025390625
0.00439453125
0.000732421875
0.01318359375
0.003662109375
0.0003662109375
-0.000732421875
0.0
0.000732421875
0.00146484375
0.002197265625
-0.000732421875
0.000732421875
-0.002197265625
0.0069580078125
-0.0069580078125
0.00439453125
-0.0029296875
0.006591796875
-0.01025390625
-0.0076904296875
-0.00146484375
-0.0069580078125
0.0146484375
-0.0010986328125
0.0113525390625
-0.00146484375
0.0032958984375
0.0
-0.0003662109375
-0.01904296875
-0.002197265625
0.013916015625
-0.0106201171875
0.0252685546875
-0.0062255859375
-0.000732421875
0.0
-0.003662109375
0.0032958984375
-0.0029296875
-0.000732421875
-0.0084228515625
0.0018310546875
-0.017578125
0.0069580078125
-0.009521484375
-0.0025634765625
-0.00146484375
-0.0098876953125
0.01318359375
-0.006591796875
0.00439453125
0.01171875
0.000732421875
0.0106201171875
-0.000732421875
0.0025634765625
-0.0040283203125
0.0010986328125
-0.00439453125
0.0025634765625
-0.0076904296875
0.003662109375
0.0010986328125
-0.0018310546875
-0.00439453125
0.0032958984375
-0.0032958984375
-0.0010986328125
-0.0084228515625
-0.0025634765625
-0.005859375
0.0087890625
0.0018310546875
0.0106201171875
0.0003662109375
0.0040283203125
0.0010986328125
-0.00146484375
-0.0157470703125
0.00732421875
-0.0029296875
0.0084228515625
0.0128173828125
-0.0106201171875
0.0069580078125
-0.0146484375
-0.005126953125
0.0029296875
-0.0098876953125
0.0069580078125
-0.0062255859375
0.003662109375
-0.01171875
0.0069580078125
-0.0113525390625
0.0032958984375
-0.0084228515625
-0.003662109375
0.009521484375
-0.0087890625
0.0135498046875
-0.00146484375
0.01171875
0.0025634765625
0.00732421875
0.0025634765625
0.000732421875
0.0029296875
0.0025634765625
-0.0032958984375
-0.00439453125
-0.0010986328125
0.000732421875
-0.00146484375
-0.0018310546875
0.0029296875
-0.0025634765625
-0.0029296875
-0.005859375
-0.0069580078125
-0.002197265625
0.0076904296875
0.009521484375
0.0069580078125
0.0032958984375
-0.0010986328125
0.00439453125
-0.0047607421875
-0.0098876953125
-0.00439453125
0.01318359375
-0.0128173828125
0.012451171875
0.00439453125
-0.01171875
0.01611328125
-0.0010986328125
0.0029296875
-0.000732421875
0.000732421875
-0.00146484375
-0.002197265625
-0.01171875
0.006591796875
-0.0069580078125
-0.002197265625
-0.0018310546875
-0.0091552734375
0.0113525390625
-0.005126953125
0.0146484375
-0.0010986328125
0.006591796875
0.00146484375
0.005859375
-0.00146484375
0.0032958984375
-0.0025634765625
0.0029296875
-0.0018310546875
-0.0029296875
0.0025634765625
0.0018310546875
-0.0025634765625
-0.0025634765625
0.000732421875
-0.005859375
-0.00146484375
-0.0040283203125
-0.005859375
0.0003662109375
0.0069580078125
0.0076904296875
0.00439453125
0.0025634765625
-0.0018310546875
0.0047607421875
-0.0047607421875
-0.0084228515625
-0.013916015625
0.01611328125
-0.009521484375
0.0157470703125
0.0025634765625
-0.0106201171875
0.002197265625
0.00439453125
-0.00439453125
0.0032958984375
-0.00439453125
0.0010986328125
-0.00439453125
-0.0091552734375
0.0018310546875
-0.0062255859375
-0.00439453125
0.003662109375
-0.0146484375
0.013916015625
-0.005859375
0.0135498046875
0.005859375
0.003662109375
0.0040283203125
0.0069580078125
-0.0047607421875
0.0040283203125
-0.003662109375
0.006591796875
-0.0054931640625
-0.0003662109375
0.00146484375
0.0003662109375
0.00146484375
0.003662109375
-0.0032958984375
-0.0010986328125
-0.00439453125
-0.00146484375
-0.006591796875
-0.0010986328125
0.005859375
0.010986328125
0.0032958984375
0.0069580078125
-0.002197265625
0.003662109375
-0.0032958984375
-0.0194091796875
0.0003662109375
0.00146484375
0.0010986328125
0.019775390625
-0.0018310546875
-0.008056640625
0.0032958984375
-0.0018310546875
0.000732421875
-0.00439453125
0.000732421875
-0.0018310546875
-0.002197265625
-0.01171875
0.0047607421875
-0.0128173828125
0.000732421875
0.0032958984375
-0.0164794921875
0.017578125
-0.01025390625
0.0128173828125
0.0076904296875
-0.00732421875
0.01318359375
-0.002197265625
0.0040283203125
-0.002197265625
0.0018310546875
-0.003662109375
0.0029296875
-0.009521484375
0.0087890625
-0.005859375
0.005859375
0.0018310546875
-0.000732421875
-0.0087890625
0.006591796875
-0.0098876953125
0.0010986328125
-0.0091552734375
0.009521484375
-0.0040283203125
0.013916015625
-0.0025634765625
0.0047607421875
0.003662109375
-0.000732421875
-0.01171875
0.012451171875
-0.0179443359375
0.019775390625
0.0208740234375
-0.021240234375
0.0146484375
-0.017578125
-0.0025634765625
0.0025634765625
-0.002197265625
-0.00146484375
-0.000732421875
-0.00439453125
-0.0054931640625
-0.00146484375
-0.01171875
0.00146484375
-0.0032958984375
-0.0106201171875
0.0076904296875
-0.01025390625
0.0164794921875
0.0018310546875
0.0032958984375
0.00732421875
0.0010986328125
-0.0025634765625
0.0029296875
-0.0025634765625
0.0018310546875
0.0
-0.00146484375
0.0025634765625
-0.0018310546875
0.0025634765625
0.0069580078125
-0.005126953125
0.0010986328125
0.0
0.0032958984375
-0.0025634765625
-0.0069580078125
-0.0025634765625
-0.006591796875
0.0098876953125
0.0025634765625
0.01318359375
-0.00146484375
0.00439453125
0.00146484375
-0.0029296875
-0.017578125
0.0179443359375
-0.0142822265625
0.0157470703125
0.0186767578125
-0.024169921875
0.015380859375
-0.019775390625
-0.010986328125
0.009521484375
-0.0098876953125
0.0069580078125
-0.008056640625
0.002197265625
-0.0201416015625
0.01171875
-0.021240234375
0.0106201171875
-0.01904296875
0.0032958984375
0.002197265625
-0.002197265625
0.0087890625
0.006591796875
0.0029296875
0.0087890625
0.0003662109375
0.00439453125
-0.0032958984375
0.0032958984375
-0.0010986328125
0.0003662109375
-0.0047607421875
0.0040283203125
0.0018310546875
-0.0003662109375
0.0
0.00146484375
0.0010986328125
-0.000732421875
-0.000732421875
-0.003662109375
-0.0054931640625
-0.0003662109375
0.0003662109375
0.0047607421875
0.0040283203125
0.0054931640625
0.0091552734375
-0.0018310546875
-0.00146484375
0.0010986328125
-0.012451171875
-0.01318359375
0.01171875
-0.0091552734375
0.013916015625
0.0098876953125
-0.0084228515625
0.0062255859375
-0.00439453125
0.0029296875
-0.0003662109375
0.00146484375
-0.0054931640625
0.00439453125
-0.0084228515625
0.0047607421875
-0.015380859375
0.0029296875
-0.0018310546875
-0.0084228515625
0.01904296875
-0.0120849609375
0.016845703125
-0.0018310546875
0.010986328125
-0.00146484375
0.0047607421875
-0.0010986328125
0.003662109375
-0.000732421875
-0.0010986328125
0.0010986328125
0.0047607421875
-0.003662109375
0.005859375
-0.005126953125
0.0040283203125
-0.002197265625
0.0029296875
-0.005859375
-0.00439453125
-0.008056640625
0.0047607421875
0.0
0.0062255859375
0.0069580078125
0.0047607421875
-0.0025634765625
0.00146484375
-0.0025634765625
-0.0135498046875
0.005859375
0.0029296875
-0.0106201171875
0.0135498046875
-0.0091552734375
-0.0029296875
0.0069580078125
-0.0047607421875
0.000732421875
0.0091552734375
-0.0120849609375
0.0172119140625
-0.0186767578125
0.0087890625
-0.01171875
-0.005859375
-0.005126953125
-0.003662109375
-0.0106201171875
0.0069580078125
-0.0069580078125
0.0091552734375
0.00732421875
0.0091552734375
0.005126953125
-0.0003662109375
0.00439453125
0.00732421875
-0.0040283203125
0.0084228515625
-0.0087890625
0.003662109375
-0.0054931640625
0.0069580078125
-0.0069580078125
0.0087890625
-0.008056640625
0.006591796875
-0.0047607421875
-0.0106201171875
0.000732421875
-0.01318359375
0.006591796875
-0.0120849609375
0.02197265625
0.0018310546875
0.009521484375
0.0029296875
0.00146484375
-0.0040283203125
0.0062255859375
-0.0267333984375
0.0120849609375
-0.003662109375
-0.0018310546875
0.0223388671875
-0.009521484375
-0.0106201171875
0.009521484375
-0.00146484375
0.0003662109375
-0.0003662109375
-0.0018310546875
-0.000732421875
-0.0029296875
-0.0062255859375
-0.002197265625
-0.013916015625
-0.0018310546875
-0.0018310546875
-0.008056640625
0.00146484375
0.0087890625
0.0029296875
0.0157470703125
-0.0032958984375
0.00732421875
-0.0003662109375
0.0025634765625
-0.0010986328125
0.0032958984375
-0.002197265625
0.0025634765625
0.0032958984375
0.0010986328125
0.0010986328125
0.0003662109375
0.00732421875
-0.006591796875
0.002197265625
-0.0040283203125
0.0010986328125
-0.010986328125
-0.0040283203125
-0.0069580078125
-0.0069580078125
0.012451171875
-0.002197265625
0.0135498046875
-0.0032958984375
0.0076904296875
-0.0054931640625
0.005126953125
-0.03076171875
0.0098876953125
0.0018310546875
-0.006591796875
0.017578125
-0.0025634765625
-0.0113525390625
0.01025390625
-0.0087890625
0.0032958984375
-0.003662109375
0.00146484375
0.0
-0.0040283203125
-0.0106201171875
0.0025634765625
-0.010986328125
0.0003662109375
-0.0054931640625
-0.005859375
0.0113525390625
-0.003662109375
0.010986328125
0.00439453125
0.0018310546875
0.0040283203125
0.0025634765625
0.00146484375
0.0018310546875
-0.000732421875
0.0076904296875
-0.0069580078125
0.0029296875
-0.00146484375
0.0047607421875
-0.0047607421875
0.0025634765625
-0.0047607421875
-0.0003662109375
0.002197265625
-0.006591796875
0.0032958984375
-0.01318359375
0.006591796875
-0.0018310546875
0.008056640625
0.0032958984375
0.005859375
0.0076904296875
-0.0029296875
-0.0003662109375
0.0032958984375
-0.015380859375
-0.01171875
0.0076904296875
-0.0091552734375
0.01171875
0.0172119140625
-0.012451171875
0.010986328125
-0.008056640625
0.0054931640625
-0.0010986328125
0.0040283203125
-0.008056640625
0.006591796875
-0.0087890625
0.005859375
-0.0120849609375
0.003662109375
-0.0029296875
-0.00439453125
0.0150146484375
-0.0091552734375
0.01318359375
0.000732421875
0.0069580078125
0.0025634765625
0.0025634765625
-0.000732421875
0.0040283203125
-0.0010986328125
-0.003662109375
0.0025634765625
0.0
0.0
0.0025634765625
-0.0025634765625
0.0003662109375
-0.0029296875
-0.0018310546875
-0.006591796875
-0.008056640625
-0.0040283203125
0.0
0.0062255859375
0.0040283203125
0.0054931640625
0.0069580078125
-0.0084228515625
-0.00146484375
-0.0010986328125
-0.013916015625
-0.0084228515625
0.0142822265625
-0.012451171875
0.01318359375
0.005126953125
-0.0091552734375
0.0032958984375
-0.005126953125
0.0010986328125
-0.00146484375
-0.0010986328125
-0.005126953125
0.0
-0.0054931640625
-0.0025634765625
-0.0025634765625
-0.01025390625
0.008056640625
-0.0194091796875
0.0216064453125
-0.010986328125
0.0142822265625
0.0069580078125
0.009521484375
0.0010986328125
0.002197265625
-0.0003662109375
0.00439453125
-0.00439453125
0.0029296875
-0.0054931640625
0.003662109375
-0.00439453125
0.0128173828125
-0.009521484375
0.0146484375
-0.0128173828125
0.0091552734375
-0.0194091796875
-0.00439453125
0.0003662109375
0.0032958984375
0.0113525390625
0.005859375
0.0029296875
0.0054931640625
-0.0025634765625
-0.0084228515625
0.010986328125
-0.03076171875
0.031494140625
0.01318359375
-0.017578125
0.0263671875
-0.031494140625
-0.0003662109375
0.0003662109375
-0.0018310546875
0.000732421875
-0.002197265625
0.00146484375
-0.0135498046875
0.009521484375
-0.0194091796875
0.0098876953125
-0.0054931640625
-0.0087890625
0.0032958984375
-0.0091552734375
0.0076904296875
0.0091552734375
0.0010986328125
0.0150146484375
0.0076904296875
-0.0003662109375
0.0120849609375
-0.010986328125
0.0054931640625
-0.005859375
-0.005126953125
0.005859375
-0.01025390625
0.0076904296875
-0.0047607421875
0.00439453125
-0.0087890625
0.0098876953125
-0.0087890625
0.0032958984375
-0.01171875
0.0
-0.0040283203125
0.00732421875
-0.002197265625
0.009521484375
0.002197265625
0.0018310546875
0.002197265625
0.002197265625
-0.0252685546875
0.0113525390625
-0.0029296875
0.00439453125
0.0098876953125
-0.0018310546875
-0.0040283203125
-0.0018310546875
-0.0032958984375
0.0032958984375
-0.0003662109375
0.0010986328125
-0.005126953125
0.0
-0.0157470703125
0.0069580078125
-0.0150146484375
0.0025634765625
-0.0120849609375
-0.0018310546875
0.0084228515625
-0.0025634765625
0.008056640625
0.008056640625
0.0032958984375
0.0087890625
-0.000732421875
0.00146484375
0.0
-0.0010986328125
0.0029296875
-0.0025634765625
-0.00732421875
0.003662109375
-0.00146484375
0.0025634765625
-0.005126953125
0.005126953125
-0.0032958984375
0.0040283203125
-0.0069580078125
-0.0018310546875
-0.0098876953125
0.0069580078125
-0.002197265625
0.01318359375
0.0032958984375
0.00439453125
0.0054931640625
-0.0040283203125
-0.0003662109375
0.00146484375
-0.0216064453125
0.0047607421875
0.000732421875
-0.0113525390625
0.0245361328125
-0.005859375
-0.0047607421875
0.0091552734375
-0.005126953125
0.0
0.0010986328125
-0.0018310546875
-0.005859375
0.003662109375
-0.0098876953125
0.0047607421875
-0.012451171875
0.00146484375
0.0040283203125
-0.01318359375
0.01611328125
-0.010986328125
0.013916015625
0.0010986328125
0.00732421875
0.00146484375
0.0018310546875
0.0029296875
0.0084228515625
-0.005126953125
0.002197265625
-0.0032958984375
0.0018310546875
-0.0010986328125
0.000732421875
-0.0018310546875
0.002197265625
-0.0018310546875
-0.0010986328125
-0.0084228515625
-0.005126953125
0.000732421875
0.00732421875
0.0076904296875
0.0076904296875
0.003662109375
0.008056640625
-0.0032958984375
-0.0032958984375
0.00732421875
-0.00439453125
-0.01318359375
0.012451171875
-0.0186767578125
0.006591796875
0.0091552734375
-0.0032958984375
0.003662109375
-0.002197265625
-0.0010986328125
0.0003662109375
-0.00439453125
-0.00439453125
-0.002197265625
-0.002197265625
-0.00439453125
-0.00146484375
-0.009521484375
0.009521484375
-0.0135498046875
0.018310546875
-0.0047607421875
0.0087890625
0.002197265625
0.0029296875
-0.0029296875
-0.0040283203125
-0.0380859375
0.0234375
-0.140655517578125
0.032958984375
-0.126739501953125
-0.0010986328125
0.119415283203125
-0.01611328125
0.176910400390625
-0.003662109375
0.0318603515625
0.000732421875
-0.0040283203125
-0.005126953125
0.013916015625
-0.00146484375
0.031494140625
-0.010986328125
0.0362548828125
0.000732421875
-0.0029296875
0.0186767578125
-0.0582275390625
0.0216064453125
-0.06005859375
0.010986328125
-0.0263671875
-0.005126953125
0.000732421875
-0.0062255859375
0.00439453125
-0.0047607421875
0.0010986328125
0.002197265625
-0.0054931640625
-0.0029296875
0.0040283203125
-0.00146484375
0.0062255859375
-0.0029296875
0.0029296875
0.0
-0.0003662109375
0.0040283203125
-0.00439453125
-0.005859375
0.0025634765625
-0.000732421875
0.0018310546875
-0.0047607421875
0.00439453125
-0.000732421875
-0.0003662109375
-0.000732421875
-0.00146484375
-0.002197265625
0.0010986328125
0.0025634765625
0.0003662109375
-0.0025634765625
0.0010986328125
-0.0076904296875
-0.00439453125
-0.0106201171875
0.0076904296875
0.000732421875
0.013916015625
-0.0010986328125
0.0076904296875
-0.0029296875
0.0003662109375
-0.0120849609375
-0.0029296875
-0.00439453125
0.008056640625
0.009521484375
0.00146484375
-0.005126953125
0.002197265625
-0.00439453125
0.003662109375
-0.0076904296875
0.00146484375
-0.008056640625
0.005859375
-0.012451171875
0.005859375
-0.016845703125
0.002197265625
-0.00732421875
-0.0087890625
0.005859375
-0.0062255859375
0.017578125
0.00146484375
0.0084228515625
0.0047607421875
0.005859375
0.0
0.00146484375
0.0
-0.0032958984375
0.0025634765625
-0.0025634765625
0.00146484375
-0.0029296875
0.002197265625
0.0010986328125
-0.00146484375
-0.00439453125
-0.00439453125
-0.0040283203125
0.000732421875
-0.0025634765625
0.01318359375
0.006591796875
0.0054931640625
0.0040283203125
0.0003662109375
0.000732421875
0.00146484375
-0.018310546875
-0.008056640625
-0.000732421875
-0.005859375
0.0205078125
0.005859375
-0.0087890625
0.0106201171875
-0.000732421875
0.000732421875
-0.0003662109375
0.0010986328125
-0.006591796875
0.00439453125
-0.0128173828125
0.005859375
-0.0146484375
0.002197265625
0.002197265625
-0.0120849609375
0.01318359375
-0.0069580078125
0.01318359375
0.00146484375
0.0029296875
0.0010986328125
0.0040283203125
-0.0029296875
0.002197265625
-0.0025634765625
-0.0010986328125
-0.0010986328125
0.0003662109375
-0.0025634765625
0.0
0.0
0.0010986328125
-0.0047607421875
-0.005859375
-0.00732421875
0.00732421875
-0.0018310546875
0.0146484375
0.0003662109375
0.01171875
-0.005859375
0.00732421875
-0.0025634765625
-0.01318359375
0.00439453125
0.005859375
0.0018310546875
0.0150146484375
-0.006591796875
-0.00146484375
-0.00732421875
-0.0054931640625
0.003662109375
-0.0010986328125
-0.0018310546875
-0.00146484375
-0.00146484375
-0.0076904296875
0.0047607421875
-0.006591796875
-0.0032958984375
-0.0025634765625
-0.01171875
0.015380859375
-0.0120849609375
0.012451171875
0.002197265625
0.008056640625
0.0025634765625
0.0047607421875
-0.00146484375
0.0040283203125
-0.0032958984375
0.0054931640625
-0.005126953125
0.0018310546875
-0.0029296875
0.010986328125
-0.009521484375
0.008056640625
-0.01171875
0.0025634765625
-0.0142822265625
0.0047607421875
-0.0029296875
0.0106201171875
0.0025634765625
0.002197265625
0.0029296875
0.0003662109375
-0.002197265625
-0.006591796875
-0.006591796875
-0.0135498046875
0.0205078125
0.0040283203125
0.0076904296875
-0.0032958984375
-0.0040283203125
-0.0054931640625
0.0047607421875
-0.0040283203125
0.00146484375
-0.0091552734375
0.00439453125
-0.0120849609375
0.0062255859375
-0.015380859375
0.0047607421875
-0.00439453125
-0.006591796875
0.003662109375
0.0003662109375
0.010986328125
0.0087890625
0.0003662109375
0.0091552734375
-0.0025634765625
0.002197265625
0.0018310546875
0.0003662109375
-0.0054931640625
0.0047607421875
-0.0025634765625
0.0018310546875
-0.00146484375
0.00146484375
0.0047607421875
-0.0032958984375
0.0010986328125
-0.0062255859375
-0.00439453125
-0.003662109375
-0.0054931640625
0.01318359375
0.000732421875
0.010986328125
0.00439453125
0.0
-0.003662109375
0.0018310546875
-0.018310546875
-0.0032958984375
0.002197265625
-0.003662109375
0.016845703125
0.000732421875
-0.0084228515625
0.0084228515625
-0.0054931640625
0.0062255859375
-0.005126953125
0.0025634765625
-0.0106201171875
0.005126953125
-0.0120849609375
0.0047607421875
-0.0179443359375
0.0040283203125
-0.003662109375
-0.008056640625
0.01025390625
-0.0047607421875
0.0120849609375
0.0025634765625
0.0047607421875
0.00146484375
-0.0003662109375
0.0025634765625
0.0025634765625
-0.000732421875
-0.0010986328125
0.0010986328125
0.0003662109375
-0.002197265625
-0.005126953125
0.00146484375
-0.00146484375
0.000732421875
-0.005126953125
-0.0047607421875
-0.0098876953125
0.000732421875
0.000732421875
0.0087890625
0.0069580078125
0.003662109375
0.008056640625
-0.0054931640625
0.0018310546875
0.0010986328125
-0.0150146484375
-0.0069580078125
0.0054931640625
-0.01025390625
0.021240234375
0.0062255859375
-0.005859375
0.009521484375
-0.003662109375
0.0003662109375
0.002197265625
-0.000732421875
-0.0076904296875
0.0054931640625
-0.010986328125
0.005126953125
-0.0150146484375
0.0010986328125
-0.0010986328125
-0.01025390625
0.013916015625
-0.0076904296875
0.0128173828125
-0.000732421875
0.006591796875
-0.0003662109375
-0.0010986328125
0.000732421875
0.0040283203125
-0.0040283203125
-0.0003662109375
-0.0003662109375
-0.0003662109375
-0.0018310546875
-0.0003662109375
-0.002197265625
0.002197265625
-0.0040283203125
-0.0010986328125
-0.0087890625
-0.0047607421875
0.0010986328125
0.0062255859375
0.00732421875
0.008056640625
0.0029296875
0.0128173828125
-0.009521484375
-0.000732421875
0.002197265625
-0.0120849609375
0.0054931640625
0.0172119140625
-0.0216064453125
0.0223388671875
-0.0172119140625
-0.002197265625
0.0018310546875
-0.00732421875
0.003662109375
-0.000732421875
-0.0025634765625
-0.0054931640625
0.0003662109375
-0.0054931640625
-0.0025634765625
-0.00146484375
-0.01171875
0.006591796875
-0.0106201171875
0.0120849609375
0.0025634765625
0.0054931640625
0.0084228515625
0.005859375
-0.002197265625
0.005126953125
-0.0047607421875
0.0032958984375
-0.0018310546875
-0.00732421875
0.0062255859375
-0.0040283203125
0.0040283203125
-0.00146484375
0.0018310546875
-0.005126953125
-0.003662109375
-0.00439453125
0.0
-0.00439453125
0.01611328125
0.00439453125
0.0054931640625
-0.0010986328125
0.0047607421875
0.0
0.005126953125
-0.0303955078125
0.0164794921875
0.005126953125
-0.010986328125
0.0333251953125
-0.0223388671875
-0.01025390625
0.009521484375
-0.0047607421875
0.00439453125
-0.00732421875
0.0032958984375
-0.003662109375
-0.0025634765625
-0.0054931640625
-0.0025634765625
-0.0018310546875
-0.01025390625
0.00732421875
-0.016845703125
0.01318359375
0.0
0.010986328125
0.0098876953125
-0.0018310546875
0.006591796875
-0.0025634765625
0.002197265625
-0.008056640625
0.005126953125
-0.0054931640625
0.0032958984375
-0.005126953125
0.0032958984375
-0.003662109375
0.00439453125
-0.0018310546875
0.0029296875
-0.0062255859375
0.0003662109375
-0.005859375
-0.0040283203125
-0.0047607421875
0.009521484375
0.0047607421875
0.008056640625
-0.0003662109375
0.000732421875
-0.00146484375
-0.0003662109375
-0.0150146484375
-0.0018310546875
-0.0010986328125
0.0018310546875
0.0128173828125
0.002197265625
-0.0069580078125
0.0032958984375
-0.00146484375
0.0
-0.008056640625
0.0040283203125
-0.0076904296875
0.0047607421875
-0.01171875
0.005859375
-0.0106201171875
0.0040283203125
0.00439453125
-0.01025390625
0.0128173828125
-0.0062255859375
0.018310546875
0.0010986328125
0.005859375
0.0025634765625
0.005126953125
-0.0018310546875
0.00146484375
0.0
-0.0003662109375
-0.000732421875
0.000732421875
-0.00146484375
-0.0032958984375
0.0018310546875
0.0
0.0
-0.00439453125
0.000732421875
-0.00439453125
-0.005126953125
-0.003662109375
0.0040283203125
0.006591796875
0.0040283203125
0.0047607421875
-0.0003662109375
0.002197265625
-0.00146484375
-0.01171875
0.0142822265625
-0.0003662109375
-0.017578125
0.0223388671875
-0.0216064453125
-0.00146484375
0.0194091796875
-0.0025634765625
0.003662109375
-0.0018310546875
0.000732421875
-0.0032958984375
-0.0010986328125
-0.008056640625
0.0029296875
-0.013916015625
0.0062255859375
-0.0069580078125
-0.0047607421875
0.000732421875
-0.0084228515625
0.017578125
-0.0069580078125
0.0120849609375
-0.0003662109375
0.003662109375
-0.000732421875
0.0047607421875
-0.0025634765625
0.0029296875
-0.0025634765625
0.0010986328125
-0.0032958984375
0.000732421875
0.0003662109375
0.00439453125
-0.003662109375
-0.00146484375
0.0
0.0003662109375
-0.009521484375
-0.0047607421875
-0.0018310546875
0.0029296875
0.0106201171875
0.0142822265625
-0.000732421875
0.0069580078125
-0.003662109375
0.002197265625
0.0010986328125
-0.0311279296875
0.0267333984375
0.0091552734375
-0.013916015625
0.0325927734375
-0.03076171875
-0.0003662109375
0.0018310546875
0.0025634765625
-0.0025634765625
0.0
-0.0025634765625
-0.002197265625
-0.002197265625
-0.01318359375
0.0032958984375
-0.0076904296875
-0.0069580078125
0.00146484375
-0.008056640625
0.0120849609375
0.0025634765625
0.0069580078125
0.008056640625
0.003662109375
0.0029296875
0.005126953125
-0.0032958984375
-0.0018310546875
0.0003662109375
0.0025634765625
-0.00146484375
0.000732421875
-0.0018310546875
0.006591796875
-0.006591796875
0.00439453125
-0.005859375
-0.0003662109375
-0.006591796875
-0.00439453125
-0.003662109375
-0.00146484375
0.0087890625
0.0084228515625
0.005126953125
0.00732421875
-0.003662109375
0.0084228515625
-0.00732421875
-0.0208740234375
0.000732421875
0.003662109375
-0.00439453125
0.0157470703125
0.0025634765625
-0.015380859375
0.0146484375
-0.0091552734375
0.0084228515625
-0.03955078125
0.0245361328125
-0.0333251953125
0.0194091796875
