0.0706787109375
0.749359130859375
0.0948486328125
0.749359130859375
0.0325927734375
0.0
0.022705078125
0.0
0.0087890625
0.0
-0.035888671875
0.0003662109375
0.0113525390625
0.0
0.010986328125
0.0
0.025665283203125
0.0003662109375
0.082061767578125
0.0
0.0205078125
-0.0003662109375
0.000732421875
0.0
-0.01318359375
0.0
0.0205078125
-0.0003662109375
0.0684814453125
0.0
0.04833984375
0.0
-0.0487060546875
0.0003662109375
-0.0380859375
0.0
0.0831298828125
0.0
0.015380859375
0.0
-0.0230712890625
0.0
-0.029296875
0.0
0.0194091796875
0.0
0.005126953125
0.0
0.034423828125
0.0
0.175048828125
0.0003662109375
0.0501708984375
0.0
-0.05419921875
-0.136260986328125
0.043212890625
-0.108428955078125
0.157867431640625
0.012451171875
0.075469970703125
-0.1131591796875
0.1307373046875
-0.1893310546875
0.2310791015625
-0.165557861328125
0.109527587890625
-0.101470947265625
0.054595947265625
-0.0802001953125
0.0260009765625
-0.066650390625
0.0032958984375
-0.059326171875
0.0054931640625
-0.123779296875
0.0
-0.125640869140625
0.0
-0.056427001953125
-0.0003662109375
0.049468994140625
-0.0084228515625
0.0003662109375
0.0003662109375
-0.101470947265625
0.0084228515625
-0.075439453125
-0.0003662109375
-0.0450439453125
-0.0003662109375
-0.032958984375
-0.00146484375
-0.05419921875
-0.079132080078125
0.0087890625
-0.056060791015625
0.0289306640625
0.009521484375
0.0216064453125
-0.028564453125
0.05419921875
-0.0435791015625
-0.0186767578125
-0.0574951171875
-0.0018310546875
-0.030029296875
0.082763671875
-0.0263671875
0.068115234375
-0.1380615234375
0.0157470703125
-0.0596923828125
0.04541015625
0.019775390625
0.056427001953125
-0.0706787109375
0.032989501953125
-0.054931640625
0.09375
-0.020538330078125
0.088623046875
-0.043975830078125
0.0501708984375
-0.0849609375
0.0809326171875
-0.0384521484375
0.087158203125
-0.0322265625
0.0146484375
0.008056640625
0.0084228515625
0.09521484375
0.0263671875
0.0084228515625
-0.032958984375
-0.0531005859375
0.003662109375
0.015380859375
0.028564453125
0.0142822265625
-0.0311279296875
-0.087890625
-0.0325927734375
-0.056396484375
0.090118408203125
0.021240234375
0.0391845703125
-0.02783203125
-0.173614501953125
0.0091552734375
-0.08203125
0.0882568359375
0.047607421875
0.0010986328125
-0.01171875
-0.056396484375
-0.0322265625
0.017578125
-0.0040283203125
-0.0084228515625
-0.017578125
0.0172119140625
0.0142822265625
0.0164794921875
0.022705078125
-0.0384521484375
-0.0029296875
-0.0179443359375
0.0186767578125
-0.0032958984375
-0.0106201171875
0.0234375
-0.0281982421875
-0.0120849609375
-0.0040283203125
0.0113525390625
0.032958984375
0.0084228515625
0.016845703125
0.006591796875
-0.044677734375
-0.01025390625
0.006591796875
-0.04248046875
0.056396484375
0.0135498046875
0.0208740234375
0.03662109375
-0.00439453125
0.030029296875
-0.03515625
-0.0281982421875
-0.0054931640625
-0.0120849609375
-0.0062255859375
-0.0172119140625
0.03515625
-0.00439453125
0.0098876953125
0.04541015625
-0.04248046875
-0.0054931640625
0.0003662109375
-0.00146484375
0.0142822265625
-0.044677734375
0.0179443359375
-0.0369873046875
-0.0238037109375
0.025634765625
0.0
0.052001953125
0.005126953125
0.02197265625
-0.06591796875
0.0047607421875
-0.0406494140625
0.0904541015625
0.0274658203125
0.144317626953125
-0.078369140625
0.149810791015625
-0.158599853515625
0.0750732421875
-0.089019775390625
0.08056640625
-0.0567626953125
0.0465087890625
-0.084228515625
0.0545654296875
-0.0970458984375
0.123809814453125
-0.052734375
0.044342041015625
-0.0208740234375
-0.0179443359375
-0.084228515625
-0.0047607421875
-0.0556640625
0.0186767578125
-0.023834228515625
0.0047607421875
-0.075469970703125
0.0
0.019805908203125
0.0
0.0205078125
-0.024169921875
-0.053497314453125
-0.056793212890625
0.072540283203125
-0.019805908203125
0.059722900390625
-0.0450439453125
-0.074737548828125
-0.1351318359375
-0.026031494140625
-0.101806640625
0.012451171875
-0.052001953125
0.010284423828125
-0.0677490234375
-0.0245361328125
-0.128570556640625
-0.010650634765625
0.0047607421875
0.143218994140625
0.0289306640625
0.139556884765625
-0.140655517578125
0.224517822265625
-0.0194091796875
0.331817626953125
-0.0303955078125
0.1768798828125
-0.1329345703125
0.0098876953125
-0.1029052734375
-0.052001953125
-0.054931640625
0.0545654296875
-0.01611328125
0.141754150390625
-0.092315673828125
0.046539306640625
-0.130035400390625
0.0076904296875
-0.0498046875
0.0560302734375
-0.010986328125
0.00732421875
-0.0791015625
-0.0091552734375
-0.05419921875
0.0728759765625
-0.0084228515625
0.0172119140625
-0.0303955078125
-0.0633544921875
-0.0545654296875
0.0205078125
0.028564453125
-0.0311279296875
0.0362548828125
-0.105499267578125
-0.03076171875
-0.0003662109375
0.02490234375
0.008056640625
-0.005126953125
-0.023468017578125
-0.024169921875
-0.047607421875
0.0347900390625
-0.0355224609375
0.03955078125
-0.003662109375
-0.005859375
0.0252685546875
-0.01318359375
0.003662109375
0.01611328125
-0.021240234375
0.0029296875
0.0322265625
-0.022705078125
0.112091064453125
-0.147613525390625
0.082061767578125
-0.242095947265625
-0.109527587890625
0.053863525390625
-0.179473876953125
0.141387939453125
0.0194091796875
-0.0355224609375
0.1116943359375
-0.034454345703125
-0.095947265625
-0.047271728515625
-0.1358642578125
-0.58306884765625
0.302886962890625
-0.298492431640625
0.350494384765625
0.51568603515625
-0.319366455078125
0.56585693359375
-0.65704345703125
0.62554931640625
-0.288970947265625
0.198883056640625
0.769134521484375
-0.68890380859375
0.734344482421875
-1.0
-0.0003662109375
-0.46405029296875
-0.0003662109375
0.0
0.0003662109375
0.0
0.0
0.0
-0.0003662109375
0.0
0.0
0.0
0.0
0.0
0.0
0.0
0.0
0.0
0.0
0.0
0.0
0.048370361328125
-1.0
1.0
-1.0
-0.048370361328125
-0.016845703125
-1.0
0.58160400390625
0.0
0.44537353515625
0.0
0.303253173828125
0.0
1.0
0.0
0.613861083984375
0.0
0.0
0.0
0.0
0.0
0.0
0.0
0.0
0.0
0.0
0.0
0.0
0.0
0.0
0.0
0.0
0.0
0.0
0.0
0.0
0.0
0.0
0.0
0.0
0.0
0.0
0.0
0.0
0.0
0.0
0.0
0.0
0.0
0.0
0.0
0.0
0.0
0.0
0.0
0.0
0.0
0.0
0.0
0.0
0.0
0.0
0.0
0.0
0.0
0.0
0.0
0.0
0.0
0.0
1.0
-1.0
0.0
-0.0003662109375
-1.0
1.0
0.0
0.0003662109375
0.0
0.0
1.0
-1.0
1.0
-1.0
-0.0018310546875
-0.48492431640625
0.0
0.0
0.0
0.0
0.0
0.0
0.0
0.0
0.0
0.0
0.0
0.0
-0.43804931640625
0.0
-1.0
0.0
-1.0
0.0
0.0
0.0
0.0
0.0
0.0
0.0
0.0
0.0
0.0
0.0
0.0
0.0
0.0
0.0
0.0
0.0
0.135528564453125
0.0
0.0
0.0
1.0
0.0
1.0
0.0
-1.0
0.0
0.128936767578125
0.0
0.882659912109375
0.0
-1.0
1.0
-1.0
1.0
0.0
-0.009521484375
1.0
-1.0
1.0
-1.0
0.0003662109375
0.0
-0.303253173828125
0.0
-1.0
0.0
0.302886962890625
0.0
-0.0003662109375
0.9595947265625
-1.0
0.0
1.0
-0.9530029296875
1.0
0.125640869140625
-1.0
1.0
-1.0
1.0
0.036651611328125
-0.220123291015625
0.0
0.0
-0.036651611328125
0.220123291015625
1.0
-1.0
1.0
-1.0
0.0010986328125
-0.1827392578125
-0.9976806640625
1.0
-0.811981201171875
0.73175048828125
0.928436279296875
-1.0
0.66033935546875
-0.828094482421875
-0.0736083984375
0.624847412109375
0.151275634765625
0.0
0.142852783203125
-0.624847412109375
-1.0
1.0
-1.0
0.43072509765625
1.0
-0.36114501953125
1.0
-0.43072509765625
0.204742431640625
-0.839447021484375
0.0003662109375
0.0
0.0
0.0
-1.0
1.0
-0.632904052734375
0.41680908203125
1.0
-1.0
-0.864715576171875
0.74127197265625
-1.0
1.0
0.46002197265625
-0.0941162109375
1.0
-1.0
1.0
-1.0
-1.0
0.312408447265625
-1.0
0.39154052734375
0.0
-0.0582275390625
0.0
0.50323486328125
0.0
1.0
1.0
-0.8929443359375
1.0
-1.0
-1.0
0.234039306640625
-1.0
0.59588623046875
0.824066162109375
-0.0087890625
-0.094512939453125
0.192291259765625
-0.58746337890625
-0.104736328125
0.0
-0.187164306640625
-0.35162353515625
0.60943603515625
0.238067626953125
0.128936767578125
0.43365478515625
-0.031494140625
-0.238067626953125
0.173614501953125
-0.386749267578125
0.144287109375
0.51055908203125
0.0509033203125
-0.046905517578125
0.654144287109375
-0.51055908203125
-0.59332275390625
1.0
-1.0
1.0
-0.36114501953125
-1.0
0.9310302734375
-1.0
0.0
-0.36114501953125
-0.57830810546875
-0.117584228515625
1.0
0.0
0.64385986328125
0.0
-1.0
0.0
-0.803192138671875
1.0
-0.097076416015625
1.0
-0.193389892578125
-1.0
0.55560302734375
-0.62335205078125
0.0
-0.318634033203125
-0.55560302734375
-0.65264892578125
0.59002685546875
1.0
0.0
1.0
-0.59002685546875
0.076202392578125
0.0
0.064117431640625
0.0
-0.39959716796875
0.0
-1.0
0.871673583984375
-0.920013427734375
0.797698974609375
-0.146881103515625
-0.870941162109375
1.0
-0.797698974609375
1.0
-0.000732421875
-0.0010986328125
0.0
-1.0
0.031494140625
0.0003662109375
0.0
1.0
-0.031494140625
0.0010986328125
0.0
-1.0
1.0
-1.0
1.0
0.0
-1.0
0.0
-1.0
0.0
0.0
0.0208740234375
1.0
0.0
1.0
1.0
0.000732421875
1.0
0.000732421875
0.308746337890625
-1.0
0.126373291015625
-1.0
0.0
0.0
-0.0142822265625
1.0
-1.0
1.0
-1.0
-1.0
0.0
-1.0
0.0
0.0
0.0
1.0
0.0
1.0
0.0
-0.239532470703125
0.0
-1.0
0.0
-1.0
0.0
0.0
0.0
0.0
0.0
0.0
0.0
1.0
0.0296630859375
0.0
0.0
-1.0
-0.0296630859375
0.0
0.0
0.0
0.0
0.0
0.0
0.0
0.0
0.0
0.0
0.0
0.0
0.0
0.0
0.0
1.0
0.0
1.0
1.0
-1.0
1.0
-1.0
-0.000732421875
0.0
-1.0
0.0
-1.0
0.0
0.0
0.0
0.0
0.0
0.0
0.0
0.0
0.0
0.0
1.0
0.0
1.0
0.0
-1.0
0.0
0.0128173828125
0.0
0.187896728515625
0.0
-0.0018310546875
0.0
1.0
0.0
0.0
0.0
0.0018310546875
0.0
-0.0076904296875
0.9833984375
-0.0018310546875
0.0
-0.033721923828125
0.51605224609375
-1.0
1.0
-1.0
-0.000732421875
1.0
-1.0
0.0
-1.0
-1.0
-0.053863525390625
0.0
0.0
0.005859375
1.0
1.0
1.0
-0.005859375
-1.0
-1.0
-1.0
0.0
1.0
0.0
1.0
0.0
0.0
0.0
0.0
0.0
0.0
1.0
-1.0
1.0
-1.0
-0.0018310546875
-0.070343017578125
0.0003662109375
0.0
0.0
0.0
0.0
0.0
0.0
1.0
0.0
1.0
0.0
-1.0
0.0
-1.0
-1.0
0.0
-0.056793212890625
0.036651611328125
0.188995361328125
1.0
-0.095947265625
-0.036651611328125
1.0
-1.0
-1.0
1.0
0.224884033203125
0.0
0.0
0.048004150390625
0.0
0.0296630859375
0.0
-0.089752197265625
0.0
-0.0296630859375
0.729217529296875
-1.0
0.0
0.0
0.749725341796875
0.0
-0.065948486328125
0.0146484375
0.0205078125
0.0
-0.926605224609375
0.738372802734375
0.0
0.00732421875
-0.465484619140625
0.55963134765625
0.0
-0.00732421875
0.982269287109375
-0.963226318359375
-0.0267333984375
0.0
0.430328369140625
-0.34942626953125
-0.97607421875
0.758148193359375
0.045440673828125
0.0
-0.49664306640625
0.740570068359375
0.0
0.02783203125
0.041046142578125
-0.0069580078125
0.0
-0.02783203125
0.0970458984375
-0.199615478515625
-0.9482421875
0.58599853515625
1.0
-1.0
-0.55120849609375
0.810516357421875
0.069610595703125
0.0
0.0
0.102203369140625
0.0
0.005859375
0.47906494140625
-0.56475830078125
0.0
-0.005859375
1.0
-0.9339599609375
-1.0
0.744598388671875
0.000732421875
0.0
-0.36553955078125
0.754119873046875
0.0
0.0
0.037750244140625
0.0003662109375
0.0
0.017578125
0.0120849609375
-0.084259033203125
-0.693695068359375
0.40911865234375
0.893646240234375
-1.0
-0.805755615234375
0.986663818359375
0.54791259765625
-0.35748291015625
0.0003662109375
0.085723876953125
0.008056640625
0.0
0.0172119140625
-0.0003662109375
-0.296295166015625
0.132965087890625
-0.017578125
-0.0142822265625
-1.0
1.0
0.50909423828125
-0.669891357421875
-0.072540283203125
0.32415771484375
0.98193359375
-0.814544677734375
0.035552978515625
0.0
-0.0084228515625
0.0
1.0
-1.0
0.0146484375
0.0
0.132598876953125
-0.252716064453125
-1.0
0.839080810546875
0.11865234375
0.0
-0.141387939453125
0.659637451171875
0.130767822265625
0.0245361328125
0.0234375
0.0
-0.44940185546875
-0.021240234375
-0.0234375
-0.272857666015625
-1.0
0.59771728515625
0.042877197265625
-1.0
0.0
0.825164794921875
0.84381103515625
-0.0208740234375
0.027099609375
0.072540283203125
0.50250244140625
0.0311279296875
-0.027099609375
0.0
-0.965789794921875
0.015777587890625
0.0003662109375
-0.766204833984375
-0.42340087890625
0.920013427734375
0.37469482421875
-0.732513427734375
0.0018310546875
0.53179931640625
0.961029052734375
0.0
0.0157470703125
0.0
-0.0194091796875
0.012451171875
-0.017578125
-0.179840087890625
-1.0
0.35272216796875
0.032958984375
-1.0
-0.277252197265625
0.973480224609375
0.824066162109375
-0.264068603515625
0.01904296875
0.160064697265625
0.642425537109375
0.0238037109375
-0.009521484375
0.0
-0.32672119140625
-0.013916015625
-0.009521484375
-0.43182373046875
-1.0
0.732879638671875
0.259307861328125
-1.0
-0.124542236328125
0.752655029296875
0.9888916015625
-0.0087890625
0.037384033203125
0.0032958984375
0.251251220703125
0.029296875
-0.037384033203125
-0.0318603515625
-0.838714599609375
0.083526611328125
0.0018310546875
-1.0
-0.660736083984375
0.839080810546875
0.58746337890625
-0.39410400390625
0.0205078125
0.451934814453125
0.803924560546875
0.02783203125
-0.0205078125
0.0516357421875
-0.58453369140625
-0.02783203125
0.0
-0.996917724609375
-0.808685302734375
0.005859375
0.044708251953125
-0.45855712890625
0.0
0.710906982421875
0.83465576171875
0.01171875
0.027099609375
0.770233154296875
0.50140380859375
-0.01025390625
-0.027099609375
-0.32598876953125
-0.980072021484375
-0.00146484375
0.000732421875
-1.0
-0.40069580078125
0.141021728515625
0.287139892578125
-0.117584228515625
0.016845703125
1.0
1.0
0.0135498046875
0.009521484375
0.104034423828125
0.1534423828125
0.0040283203125
-0.0263671875
-0.083160400390625
-0.81707763671875
0.226348876953125
0.025634765625
-1.0
-0.641693115234375
0.9866943359375
0.788909912109375
-0.36663818359375
0.0
0.268096923828125
0.684173583984375
0.0281982421875
0.015380859375
0.0
-0.289703369140625
-0.0281982421875
-0.015380859375
-0.844940185546875
-1.0
0.243194580078125
0.181671142578125
-0.653778076171875
-0.039947509765625
1.0
0.973846435546875
0.0
0.036651611328125
0.130035400390625
0.31500244140625
0.000732421875
-0.036651611328125
-0.34173583984375
-0.9749755859375
-0.000732421875
0.0
-1.0
-0.49554443359375
0.260772705078125
0.46148681640625
-0.123077392578125
0.0069580078125
1.0
0.928436279296875
0.0296630859375
0.0076904296875
0.189727783203125
-0.0439453125
-0.0296630859375
-0.0146484375
-0.282012939453125
-0.882293701171875
0.306549072265625
0.065582275390625
-1.0
-0.46368408203125
1.0
0.888153076171875
-0.195220947265625
0.009521484375
0.179473876953125
0.54571533203125
0.024169921875
0.008056640625
0.0
-0.195587158203125
-0.0201416015625
-0.017578125
-0.48712158203125
-1.0
0.652313232421875
0.287506103515625
-1.0
-0.215728759765625
0.78741455078125
0.9742431640625
0.0
0.037384033203125
0.054962158203125
0.1651611328125
0.0
-0.037384033203125
-0.51678466796875
-1.0
0.0
0.00146484375
-0.98193359375
-0.36334228515625
0.35162353515625
0.58746337890625
0.0
0.0120849609375
0.952972412109375
0.837982177734375
0.0252685546875
-0.0084228515625
0.123046875
-0.363311767578125
-0.0252685546875
-0.003662109375
-0.838348388671875
-1.0
0.002197265625
0.066314697265625
-0.58929443359375
-0.0003662109375
0.687835693359375
0.920745849609375
0.0
0.036651611328125
0.809051513671875
0.51239013671875
0.029296875
-0.036651611328125
-0.0223388671875
-0.53216552734375
-0.029296875
0.0
-1.0
-0.96728515625
0.113555908203125
0.309844970703125
-0.34283447265625
0.0
0.956634521484375
0.9779052734375
0.029296875
0.0205078125
0.42852783203125
0.0274658203125
-0.029296875
-0.0205078125
-0.57281494140625
-1.0
0.0
0.01171875
-0.9259033203125
-0.232208251953125
0.41973876953125
0.690032958984375
0.0
0.03076171875
0.949676513671875
0.774993896484375
0.0238037109375
-0.0289306640625
0.072509765625
-0.49591064453125
-0.0238037109375
-0.0018310546875
-0.982269287109375
-0.9808349609375
0.02783203125
0.141754150390625
-0.45965576171875
0.0
0.855560302734375
0.951873779296875
0.0029296875
0.032958984375
0.615325927734375
0.38494873046875
0.003662109375
-0.032958984375
-0.256378173828125
-0.878662109375
-0.006591796875
0.0
-1.0
-0.59991455078125
0.309844970703125
0.44647216796875
-0.157135009765625
0.0
0.984130859375
0.930267333984375
0.029296875
0.019775390625
0.204742431640625
-0.0662841796875
-0.029296875
-0.019775390625
-0.613861083984375
-1.0
0.0208740234375
0.037017822265625
-0.884857177734375
-0.234405517578125
0.750457763671875
0.81927490234375
0.0
0.0322265625
0.716033935546875
0.643157958984375
0.024169921875
-0.03076171875
-0.050567626953125
-0.53839111328125
-0.024169921875
-0.00146484375
-0.962127685546875
-0.9610595703125
0.201080322265625
0.223785400390625
-0.47467041015625
0.0
0.906463623046875
0.976806640625
0.01318359375
0.035186767578125
0.39117431640625
0.289337158203125
-0.01318359375
-0.035186767578125
-0.50836181640625
-0.9288330078125
0.0
0.0003662109375
-0.939422607421875
-0.56109619140625
0.42669677734375
0.54644775390625
-0.050933837890625
0.008056640625
0.926239013671875
0.875701904296875
0.0303955078125
0.0047607421875
0.145782470703125
-0.2105712890625
-0.0303955078125
-0.0128173828125
-0.722991943359375
-1.0
0.031494140625
0.063385009765625
-0.775726318359375
-0.143585205078125
0.731048583984375
0.876800537109375
0.0
0.036285400390625
0.722259521484375
0.55926513671875
0.01611328125
-0.036285400390625
-0.124176025390625
-0.635467529296875
-0.01611328125
0.0
-1.0
-0.863983154296875
0.219024658203125
0.295196533203125
-0.304718017578125
0.0
0.958831787109375
0.969482421875
0.0234375
0.0296630859375
0.32086181640625
0.1556396484375
-0.0234375
-0.0296630859375
-0.41204833984375
-1.0
0.0
0.005859375
-1.0
-0.39886474609375
0.58599853515625
0.640594482421875
-0.050567626953125
0.019775390625
0.823333740234375
0.81085205078125
0.0296630859375
-0.010986328125
0.079132080078125
-0.319732666015625
-0.0296630859375
-0.0087890625
-0.814178466796875
-1.0
0.073272705078125
0.102935791015625
-0.674285888671875
-0.088287353515625
0.874603271484375
0.925506591796875
0.0
0.036651611328125
0.55084228515625
0.47100830078125
0.0135498046875
-0.036651611328125
-0.169219970703125
-0.759613037109375
-0.0135498046875
0.0
-1.0
-0.739837646484375
0.303253173828125
0.36334228515625
-0.272125244140625
0.0
0.9365234375
0.958831787109375
0.0260009765625
0.0252685546875
0.258941650390625
0.0618896484375
-0.0260009765625
-0.0252685546875
-0.51422119140625
-1.0
0.0010986328125
0.015380859375
-0.9844970703125
-0.34686279296875
0.613861083984375
0.720428466796875
0.0
0.025634765625
0.81268310546875
0.744232177734375
0.0263671875
-0.021240234375
0.028564453125
-0.42889404296875
-0.0263671875
-0.00439453125
-0.932464599609375
-1.0
0.068145751953125
0.140655517578125
-0.52374267578125
-0.035919189453125
0.852264404296875
0.950408935546875
0.00439453125
0.035186767578125
0.57830810546875
0.39886474609375
0.00146484375
-0.035186767578125
-0.267730712890625
-0.868743896484375
-0.005859375
0.0
-1.0
-0.621185302734375
0.284210205078125
0.42413330078125
-0.164093017578125
0.0
0.966552734375
0.935394287109375
0.029296875
0.0194091796875
0.247955322265625
-0.041015625
-0.029296875
-0.0194091796875
-0.665496826171875
-1.0
0.0
0.0274658203125
-0.833221435546875
-0.251983642578125
0.619354248046875
0.772430419921875
0.0
0.031494140625
0.81231689453125
0.694793701171875
0.0216064453125
-0.03076171875
-0.0439453125
-0.48675537109375
-0.0216064453125
-0.000732421875
-1.0
-1.0
0.068878173828125
0.183135986328125
-0.300323486328125
-0.006591796875
0.885223388671875
0.966156005859375
0.018310546875
0.0325927734375
0.54461669921875
0.32562255859375
-0.018310546875
-0.0325927734375
-0.41094970703125
-0.9317626953125
0.0
0.0
-1.0
-0.54315185546875
0.37066650390625
0.49224853515625
-0.064483642578125
0.0032958984375
0.949310302734375
0.902069091796875
0.0296630859375
0.0128173828125
0.176177978515625
-0.13330078125
-0.0296630859375
-0.01611328125
-0.733978271484375
-1.0
0.131500244140625
0.048004150390625
-0.762176513671875
-0.191925048828125
0.933563232421875
0.857391357421875
0.0
0.036285400390625
0.43365478515625
0.59405517578125
0.0238037109375
-0.030426025390625
-0.063018798828125
-0.40216064453125
0.034820556640625
-0.005859375
-0.985565185546875
-1.0
0.905364990234375
0.294830322265625
-0.45013427734375
-0.068145751953125
0.53472900390625
0.9720458984375
0.01025390625
0.037017822265625
0.0
0.224517822265625
-0.00732421875
-0.037017822265625
-0.307647705078125
-0.821502685546875
0.275787353515625
0.0018310546875
-1.0
-0.669891357421875
0.99658203125
0.623382568359375
-0.113189697265625
0.0
0.223419189453125
0.82220458984375
0.0311279296875
0.0205078125
0.0
-0.1475830078125
-0.0311279296875
-0.0205078125
-0.678314208984375
-1.0
0.621185302734375
0.083526611328125
-0.820404052734375
-0.247589111328125
0.81927490234375
0.906097412109375
0.0
0.03076171875
0.058258056640625
0.50982666015625
0.0194091796875
-0.003662109375
0.0
-0.064849853515625
0.0010986328125
0.128204345703125
-0.654876708984375
-0.985565185546875
0.822235107421875
0.931732177734375
-0.843841552734375
-0.44903564453125
0.655975341796875
0.41241455078125
0.0
0.0252685546875
0.0
0.0
0.02490234375
-0.0194091796875
-0.046173095703125
-0.42449951171875
0.194122314453125
0.237701416015625
-0.980072021484375
-1.0
1.0
0.94091796875
-0.47247314453125
-0.035186767578125
0.278717041015625
0.314971923828125
0.0150146484375
0.037017822265625
0.0
-0.0303955078125
-0.013916015625
-0.037017822265625
-0.35711669921875
-0.900634765625
0.56402587890625
0.272125244140625
-1.0
-0.56842041015625
0.877899169921875
0.947509765625
-0.058624267578125
0.0069580078125
0.055694580078125
0.279815673828125
0.0303955078125
0.0076904296875
-0.0003662109375
-0.278717041015625
0.025299072265625
-0.0146484375
-0.804656982421875
-1.0
0.925506591796875
0.50689697265625
-0.693695068359375
-0.140655517578125
0.51751708984375
0.894012451171875
0.0
0.037750244140625
0.0
0.098541259765625
0.0146484375
-0.037750244140625
-0.132598876953125
-0.688201904296875
0.265167236328125
0.038116455078125
-1.0
-0.811248779296875
0.988525390625
0.83465576171875
-0.295196533203125
0.0
0.230377197265625
0.626678466796875
0.0252685546875
0.029296875
0.0
-0.094879150390625
-0.0252685546875
-0.029296875
-0.46734619140625
-0.997283935546875
0.624114990234375
0.223052978515625
-1.0
-0.40728759765625
0.83831787109375
0.975341796875
-0.0040283203125
0.01904296875
0.036285400390625
0.301055908203125
0.02783203125
-0.00732421875
-0.0234375
-0.33551025390625
0.023468017578125
-0.01171875
-0.9215087890625
-1.0
0.907928466796875
0.55340576171875
-0.55377197265625
-0.117218017578125
0.53948974609375
0.865447998046875
0.0
0.038116455078125
0.0
0.074371337890625
0.009521484375
-0.038116455078125
-0.196685791015625
-0.691497802734375
0.249053955078125
0.054229736328125
-1.0
-0.801727294921875
1.0
0.862884521484375
-0.187530517578125
0.0
0.214630126953125
0.58233642578125
0.0263671875
0.0263671875
0.0
-0.127105712890625
-0.0252685546875
-0.0263671875
-0.48858642578125
-1.0
0.662933349609375
0.259674072265625
-1.0
-0.35748291015625
0.803192138671875
0.98193359375
0.0
0.0234375
0.031494140625
0.257843017578125
0.02783203125
-0.01611328125
-0.019775390625
-0.39886474609375
0.049835205078125
-0.00732421875
-0.8841552734375
-1.0
0.951873779296875
0.58599853515625
-0.59478759765625
-0.058624267578125
0.46917724609375
0.845672607421875
0.0
0.038116455078125
-0.0003662109375
0.056427001953125
0.01171875
-0.038116455078125
-0.186431884765625
-0.800994873046875
0.32635498046875
0.067413330078125
-1.0
-0.687103271484375
0.976409912109375
0.893646240234375
-0.234405517578125
0.0
0.184234619140625
0.53839111328125
0.029296875
0.02490234375
0.0
-0.153472900390625
-0.028564453125
-0.02490234375
-0.54571533203125
-1.0
0.670623779296875
0.295928955078125
-0.9530029296875
-0.317169189453125
0.806121826171875
0.9932861328125
0.0
0.0
0.021240234375
0.210235595703125
0.01171875
0.0087890625
-0.094512939453125
-0.43768310546875
0.076202392578125
-0.0087890625
-0.908660888671875
-1.0
1.0
0.622283935546875
-0.49554443359375
-0.0032958984375
0.39447021484375
0.82769775390625
0.0
0.037017822265625
0.0
0.029693603515625
0.0098876953125
-0.037017822265625
-0.210235595703125
-0.809417724609375
0.35345458984375
0.093780517578125
-1.0
-0.670257568359375
0.971649169921875
0.924407958984375
-0.204376220703125
0.0
0.163726806640625
0.48126220703125
0.030029296875
0.0234375
0.0
-0.184600830078125
-0.0234375
-0.0234375
-0.59112548828125
-1.0
0.743499755859375
0.33660888671875
-0.9075927734375
-0.272125244140625
0.743865966796875
0.962493896484375
0.0
0.0322265625
0.0047607421875
0.200347900390625
0.0234375
-0.0311279296875
-0.064483642578125
-0.53070068359375
0.099639892578125
0.0018310546875
-1.0
-0.96875
0.987396240234375
0.681610107421875
-0.42376708984375
0.0
0.38824462890625
0.781951904296875
0.0146484375
0.035186767578125
0.0
-0.014312744140625
-0.01318359375
-0.035186767578125
-0.314971923828125
-0.930267333984375
0.44097900390625
0.103302001953125
-1.0
-0.52191162109375
0.951873779296875
0.933563232421875
-0.136993408203125
0.005859375
0.104400634765625
0.46258544921875
0.0311279296875
0.01171875
0.0
-0.222686767578125
-0.0252685546875
-0.017578125
-0.761077880859375
-1.0
0.773162841796875
0.38385009765625
-0.737640380859375
-0.213897705078125
0.719329833984375
0.949310302734375
0.0
0.03369140625
0.0003662109375
0.166290283203125
0.013916015625
-0.030029296875
-0.197052001953125
-0.39373779296875
0.054962158203125
0.032257080078125
-1.0
-0.970550537109375
0.867645263671875
1.0
-0.133331298828125
-0.135162353515625
0.56219482421875
0.45306396484375
0.03076171875
0.037750244140625
0.0
-0.0003662109375
-0.03076171875
-0.037750244140625
-0.58746337890625
-0.739471435546875
0.312042236328125
0.165557861328125
-0.9112548828125
-0.759613037109375
1.0
0.955535888671875
0.0
0.0
0.167755126953125
0.37835693359375
0.0303955078125
0.017578125
0.0
-0.260772705078125
-0.002197265625
-0.017578125
-0.694793701171875
-1.0
0.9097900390625
0.39190673828125
-0.803924560546875
-0.131134033203125
0.56072998046875
0.936859130859375
0.0
0.037384033203125
0.0
0.158966064453125
0.029296875
-0.037384033203125
-0.00146484375
-0.807586669921875
0.32855224609375
0.01171875
-0.8914794921875
-0.680145263671875
0.950408935546875
0.726654052734375
-0.60577392578125
0.0
0.190460205078125
0.747161865234375
0.013916015625
0.029296875
0.0
-0.078765869140625
-0.013916015625
-0.029296875
-0.40802001953125
-0.910858154296875
0.47283935546875
0.189727783203125
-1.0
-0.49591064453125
0.925506591796875
0.946014404296875
0.0
0.0091552734375
0.100372314453125
0.36370849609375
0.0296630859375
0.0054931640625
-0.01025390625
-0.270294189453125
-0.0113525390625
-0.0146484375
-0.903564453125
-1.0
0.773529052734375
0.50506591796875
-0.58489990234375
-0.217926025390625
0.700286865234375
0.885589599609375
0.000732421875
0.035919189453125
0.006591796875
0.108795166015625
0.0120849609375
-0.035919189453125
-0.143585205078125
-0.698455810546875
0.233306884765625
0.024169921875
-1.0
-0.800994873046875
0.9976806640625
0.782684326171875
-0.35235595703125
0.0
0.254913330078125
0.686004638671875
0.0098876953125
0.0263671875
0.0
-0.046539306640625
-0.0098876953125
-0.0263671875
-0.51202392578125
-0.905731201171875
0.45416259765625
0.206939697265625
-0.9866943359375
-0.54058837890625
0.923675537109375
0.9808349609375
0.0
0.008056640625
0.120880126953125
0.311676025390625
0.029296875
0.00146484375
0.0
-0.37762451171875
0.036285400390625
-0.009521484375
-0.780120849609375
-1.0
0.870941162109375
0.45599365234375
-0.718597412109375
-0.113555908203125
0.56219482421875
0.940155029296875
0.0
0.037384033203125
0.0003662109375
0.103302001953125
0.013916015625
-0.037384033203125
-0.168487548828125
-0.664398193359375
0.204742431640625
0.035186767578125
-1.0
-0.835052490234375
1.0
0.83062744140625
-0.263702392578125
0.0
0.273956298828125
0.633636474609375
0.0267333984375
0.0296630859375
0.0
-0.105133056640625
-0.0267333984375
-0.0296630859375
-0.38568115234375
-1.0
0.670989990234375
0.161895751953125
-0.913787841796875
-0.33111572265625
0.827362060546875
0.966156005859375
-0.199249267578125
0.0311279296875
0.0003662109375
0.37139892578125
0.03076171875
-0.029296875
0.0
-0.51678466796875
0.090484619140625
-0.0018310546875
-0.709075927734375
-0.9727783203125
0.941619873046875
0.46002197265625
-0.789642333984375
-0.0098876953125
0.43585205078125
0.918914794921875
0.0
0.035186767578125
0.0
0.096343994140625
0.0194091796875
-0.035186767578125
-0.099273681640625
-0.840545654296875
0.30657958984375
0.032958984375
-1.0
-0.634735107421875
0.972747802734375
0.811248779296875
-0.33331298828125
0.0
0.199981689453125
0.655242919921875
0.0205078125
0.0234375
0.0
-0.156402587890625
-0.0205078125
-0.0234375
-0.43438720703125
-1.0
0.669525146484375
0.202178955078125
-1.0
-0.279815673828125
0.796600341796875
0.9771728515625
-0.0322265625
0.0296630859375
0.0325927734375
0.320098876953125
0.0296630859375
-0.0252685546875
-0.01318359375
-0.46295166015625
0.036651611328125
-0.00439453125
-0.832122802734375
-0.977874755859375
0.883758544921875
0.53399658203125
-0.653411865234375
-0.058624267578125
0.54864501953125
0.884124755859375
0.0047607421875
0.038116455078125
0.0
0.081329345703125
0.0
-0.038116455078125
-0.251983642578125
-0.762542724609375
0.241363525390625
0.046905517578125
-1.0
-0.736907958984375
1.0
0.84051513671875
-0.220855712890625
0.0
0.220123291015625
0.612030029296875
0.029296875
0.024169921875
0.0
-0.150177001953125
-0.029296875
-0.024169921875
-0.52593994140625
-1.0
0.640594482421875
0.234405517578125
-0.9727783203125
-0.309844970703125
0.828826904296875
0.96728515625
0.0
0.029296875
0.029296875
0.297760009765625
0.028564453125
-0.0263671875
-0.012451171875
-0.51239013671875
0.081329345703125
-0.0029296875
-0.820037841796875
-0.978271484375
0.940155029296875
0.53948974609375
-0.666229248046875
-0.0087890625
0.44866943359375
0.874969482421875
0.0
0.037017822265625
0.0
0.067047119140625
0.0091552734375
-0.037017822265625
-0.209136962890625
-0.820404052734375
0.295562744140625
0.053863525390625
-1.0
-0.661102294921875
0.9925537109375
0.868377685546875
-0.200714111328125
0.0
0.201446533203125
0.57720947265625
0.029296875
0.0234375
0.0
-0.168853759765625
-0.029296875
-0.0234375
-0.54498291015625
-1.0
0.670257568359375
0.250152587890625
-0.9537353515625
-0.287139892578125
0.798065185546875
0.98046875
0.0
0.0281982421875
0.0303955078125
0.268829345703125
0.025634765625
-0.02490234375
-0.037750244140625
-0.46075439453125
0.052032470703125
-0.0032958984375
-0.956634521484375
-0.998748779296875
0.926239013671875
0.58306884765625
-0.50433349609375
-0.039947509765625
0.49481201171875
0.850799560546875
0.0087890625
0.037384033203125
0.0
0.046539306640625
-0.0029296875
-0.037384033203125
-0.241729736328125
-0.846771240234375
0.33184814453125
0.063385009765625
-1.0
-0.633636474609375
0.988861083984375
0.880096435546875
-0.178009033203125
0.0
0.172149658203125
0.55596923828125
0.030029296875
0.0205078125
0.0
-0.197052001953125
-0.02783203125
-0.0205078125
-0.55340576171875
-1.0
0.734710693359375
0.269561767578125
-0.9453125
-0.242095947265625
0.748626708984375
0.97607421875
0.0
0.031494140625
0.01318359375
0.253814697265625
0.02490234375
-0.0296630859375
-0.044708251953125
-0.50067138671875
0.076202392578125
-0.0018310546875
-0.960662841796875
-0.992919921875
0.968719482421875
0.611297607421875
-0.49334716796875
-0.005859375
0.42889404296875
0.83099365234375
0.005859375
0.035919189453125
0.0
0.028594970703125
0.0
-0.035919189453125
-0.266998291015625
-0.861419677734375
0.34393310546875
0.076934814453125
-1.0
-0.609466552734375
0.984466552734375
0.904632568359375
-0.142120361328125
0.0
0.164459228515625
0.51788330078125
0.03076171875
0.0205078125
0.0
-0.195953369140625
-0.0296630859375
-0.0205078125
-0.650482177734375
-1.0
0.710906982421875
0.303253173828125
-0.848236083984375
-0.263702392578125
0.775360107421875
0.9691162109375
0.0
0.0325927734375
0.0113525390625
0.227081298828125
0.0238037109375
-0.0318603515625
-0.055328369140625
-0.53802490234375
0.099273681640625
-0.000732421875
-0.977508544921875
-0.96142578125
0.977508544921875
0.644622802734375
-0.46588134765625
0.0
0.39813232421875
0.80828857421875
0.0087890625
0.035186767578125
0.0
0.006591796875
-0.005126953125
-0.035186767578125
-0.286773681640625
-0.899505615234375
0.40509033203125
0.089019775390625
-1.0
-0.55999755859375
0.949310302734375
0.913055419921875
-0.129669189453125
0.00146484375
0.140655517578125
0.49737548828125
0.0311279296875
0.0164794921875
0.0
-0.226348876953125
-0.0238037109375
-0.0179443359375
-0.679046630859375
-1.0
0.773162841796875
0.33184814453125
-0.819671630859375
-0.212799072265625
0.717132568359375
0.961395263671875
0.0
0.035186767578125
0.0010986328125
0.206207275390625
0.0205078125
-0.035186767578125
-0.076934814453125
-0.56365966796875
0.115020751953125
0.0025634765625
-1.0
-0.935791015625
0.987396240234375
0.676116943359375
-0.41168212890625
0.0
0.37579345703125
0.78558349609375
0.0150146484375
0.035186767578125
0.0
-0.0157470703125
-0.0135498046875
-0.035186767578125
-0.32598876953125
-0.917816162109375
0.43804931640625
0.105499267578125
-1.0
-0.53070068359375
0.946014404296875
0.928070068359375
-0.094512939453125
0.005859375
0.113189697265625
0.46588134765625
0.03076171875
0.01025390625
0.0
-0.257843017578125
-0.01611328125
-0.01611328125
-0.714569091796875
-1.0
0.794403076171875
0.35858154296875
-0.784149169921875
-0.191558837890625
0.689666748046875
0.959564208984375
0.0
0.035552978515625
0.0
0.181304931640625
0.01904296875
-0.035552978515625
-0.089752197265625
-0.60504150390625
0.139190673828125
0.0062255859375
-1.0
-0.8944091796875
0.999114990234375
0.702850341796875
-0.38970947265625
0.0
0.34136962890625
0.765472412109375
0.017578125
0.0325927734375
0.0
-0.035552978515625
-0.017578125
-0.0325927734375
-0.35565185546875
-0.946746826171875
0.47869873046875
0.124176025390625
-1.0
-0.49224853515625
0.924041748046875
0.942352294921875
-0.074737548828125
0.0098876953125
0.095977783203125
0.43292236328125
0.0311279296875
0.0040283203125
0.0
-0.283111572265625
-0.0106201171875
-0.013916015625
-0.743499755859375
-1.0
0.826995849609375
0.38970947265625
-0.755218505859375
-0.155303955078125
0.651214599609375
0.944915771484375
0.0
0.036651611328125
0.0003662109375
0.164825439453125
0.0179443359375
-0.036651611328125
-0.103302001953125
-0.648651123046875
0.175445556640625
0.01171875
-1.0
-0.850799560546875
0.99365234375
0.738372802734375
-0.35455322265625
0.0
0.311676025390625
0.731781005859375
0.0201416015625
0.031494140625
0.0
-0.055328369140625
-0.0201416015625
-0.031494140625
-0.38275146484375
-0.964324951171875
0.49993896484375
0.140655517578125
-1.0
-0.46221923828125
0.913787841796875
0.958831787109375
-0.052764892578125
0.0135498046875
0.084991455078125
0.39996337890625
0.0303955078125
-0.000732421875
-0.0003662109375
-0.309478759765625
-0.0018310546875
-0.0128173828125
-0.775360107421875
-1.0
0.851165771484375
0.41168212890625
-0.722991943359375
-0.134796142578125
0.618988037109375
0.938690185546875
0.0
0.037384033203125
0.0
0.149078369140625
0.01611328125
-0.037384033203125
-0.120147705078125
-0.670257568359375
0.190093994140625
0.01611328125
-1.0
-0.829193115234375
0.9998779296875
0.755584716796875
-0.32525634765625
0.0
0.292633056640625
0.717864990234375
0.0234375
0.030029296875
0.0
-0.073638916015625
-0.0234375
-0.030029296875
-0.41131591796875
-0.979705810546875
0.52301025390625
0.156036376953125
-1.0
-0.43621826171875
0.898040771484375
0.957366943359375
-0.035186767578125
0.01611328125
0.077667236328125
0.38604736328125
0.030029296875
-0.00439453125
-0.0025634765625
-0.32855224609375
0.0029296875
-0.01171875
-0.800628662109375
-1.0
0.865478515625
0.43402099609375
-0.695526123046875
-0.120147705078125
0.60028076171875
0.926971435546875
0.0
0.037384033203125
0.0
0.138458251953125
0.015380859375
-0.037384033203125
-0.133697509765625
-0.695159912109375
0.208770751953125
0.0205078125
-1.0
-0.804290771484375
1.0
0.781585693359375
-0.306915283203125
0.0
0.273590087890625
0.693328857421875
0.0238037109375
0.029296875
0.0003662109375
-0.090118408203125
-0.0238037109375
-0.029296875
-0.43109130859375
-0.987396240234375
0.53765869140625
0.166656494140625
-1.0
-0.41790771484375
0.894744873046875
0.968353271484375
-0.0252685546875
0.0186767578125
0.066314697265625
0.36407470703125
0.0296630859375
-0.0091552734375
-0.00732421875
-0.34613037109375
0.012115478515625
-0.009521484375
-0.824432373046875
-1.0
0.881195068359375
0.45050048828125
-0.666961669921875
-0.107330322265625
0.57574462890625
0.922943115234375
0.0
0.038116455078125
0.0
0.126007080078125
0.013916015625
-0.038116455078125
-0.146514892578125
-0.720062255859375
0.223785400390625
0.02490234375
-1.0
-0.779388427734375
1.0
0.791473388671875
-0.283111572265625
0.0
0.260772705078125
0.681976318359375
0.0252685546875
0.02783203125
0.0
-0.102935791015625
-0.0252685546875
-0.02783203125
-0.45452880859375
-1.0
0.57940673828125
0.176177978515625
-1.0
-0.39300537109375
0.857757568359375
0.967987060546875
-0.008056640625
0.0208740234375
0.061553955078125
0.35528564453125
0.029296875
-0.0120849609375
-0.0113525390625
-0.36553955078125
0.019073486328125
-0.0087890625
-0.850799560546875
-1.0
0.896942138671875
0.47100830078125
-0.636566162109375
-0.087921142578125
0.55340576171875
0.908660888671875
0.0
0.038116455078125
0.0003662109375
0.119415283203125
0.0128173828125
-0.038116455078125
-0.163726806640625
-0.747528076171875
0.242095947265625
0.029296875
-1.0
-0.751556396484375
1.0
0.805023193359375
-0.261138916015625
0.0
0.238067626953125
0.664764404296875
0.0267333984375
0.0267333984375
0.0
-0.120147705078125
-0.0267333984375
-0.0267333984375
-0.48126220703125
-1.0
0.58966064453125
0.190460205078125
-1.0
-0.37103271484375
0.858123779296875
0.972015380859375
0.0
0.0234375
0.050933837890625
0.33697509765625
0.0281982421875
-0.0164794921875
-0.0179443359375
-0.39483642578125
0.031890869140625
-0.0069580078125
-0.873870849609375
-1.0
0.906097412109375
0.48968505859375
-0.606903076171875
-0.074737548828125
0.53216552734375
0.901702880859375
0.0
0.038116455078125
0.000732421875
0.102203369140625
0.01171875
-0.038116455078125
-0.177642822265625
-0.769500732421875
0.261138916015625
0.036651611328125
-1.0
-0.724090576171875
0.9976806640625
0.82110595703125
-0.237335205078125
0.0
0.228179931640625
0.641693115234375
0.0274658203125
0.025634765625
0.0
-0.130401611328125
-0.0274658203125
-0.025634765625
-0.50616455078125
-1.0
0.621185302734375
0.208770751953125
-0.9925537109375
-0.34613037109375
0.83502197265625
0.9716796875
0.0
0.025634765625
0.042510986328125
0.319000244140625
0.0281982421875
-0.019775390625
-0.02197265625
-0.41241455078125
0.038116455078125
-0.005859375
-0.8907470703125
-1.0
0.931365966796875
0.52008056640625
-0.58599853515625
-0.057159423828125
0.50103759765625
0.883026123046875
0.0
0.038116455078125
0.0
0.085723876953125
0.009521484375
-0.038116455078125
-0.197052001953125
-0.791473388671875
0.285308837890625
0.043243408203125
-1.0
-0.697357177734375
0.99658203125
0.84381103515625
-0.214996337890625
0.0
0.207305908203125
0.612396240234375
0.029296875
0.0245361328125
0.0
-0.146881103515625
-0.029296875
-0.0245361328125
-0.53765869140625
-1.0
0.651580810546875
0.226348876953125
-0.9610595703125
-0.32159423828125
0.816009521484375
0.9775390625
0.0
0.0274658203125
0.0311279296875
0.295562744140625
0.0267333984375
-0.022705078125
-0.029296875
-0.44317626953125
0.053131103515625
-0.0047607421875
-0.9127197265625
-1.0
0.948944091796875
0.54937744140625
-0.55670166015625
-0.039947509765625
0.46990966796875
0.869110107421875
0.0003662109375
0.037384033203125
0.0
0.064849853515625
0.00732421875
-0.037384033203125
-0.218658447265625
-0.816375732421875
0.31390380859375
0.053497314453125
-1.0
-0.666961669921875
0.987030029296875
0.861785888671875
-0.191925048828125
0.0
0.190093994140625
0.58453369140625
0.0296630859375
0.0234375
0.0
-0.166656494140625
-0.0296630859375
-0.0234375
-0.57684326171875
-1.0
0.686004638671875
0.249420166015625
-0.921875
-0.292999267578125
0.791839599609375
0.972412109375
0.0
0.029296875
0.0208740234375
0.277618408203125
0.025634765625
-0.0260009765625
-0.039581298828125
-0.47540283203125
0.069244384765625
-0.0032958984375
-0.945648193359375
-1.0
0.958099365234375
0.58087158203125
-0.51348876953125
-0.0208740234375
0.44573974609375
0.848602294921875
0.00439453125
0.037017822265625
0.0
0.047271728515625
0.0018310546875
-0.037017822265625
-0.243194580078125
-0.843475341796875
0.34136962890625
0.061553955078125
-1.0
-0.633270263671875
0.981170654296875
0.881927490234375
-0.168853759765625
0.0
0.169952392578125
0.55633544921875
0.030029296875
0.0208740234375
0.0
-0.187896728515625
-0.02783203125
-0.0208740234375
-0.60211181640625
-1.0
0.710540771484375
0.271392822265625
-0.8966064453125
-0.264068603515625
0.773529052734375
0.974609375
0.0
0.0311279296875
0.012451171875
0.253448486328125
0.0245361328125
-0.029296875
-0.046173095703125
-0.50982666015625
0.087188720703125
-0.0018310546875
-0.968353271484375
-0.98486328125
0.967987060546875
0.609466552734375
-0.48419189453125
-0.0047607421875
0.41900634765625
0.83428955078125
0.008056640625
0.035919189453125
0.0
0.024200439453125
-0.003662109375
-0.035919189453125
-0.272491455078125
-0.8760986328125
0.37432861328125
0.077301025390625
-1.0
-0.59185791015625
0.969451904296875
0.895477294921875
-0.138092041015625
0.0
0.150543212890625
0.52667236328125
0.03076171875
0.01904296875
0.0
-0.217193603515625
-0.02490234375
-0.01904296875
-0.643890380859375
-1.0
0.757781982421875
0.302154541015625
-0.854827880859375
-0.229278564453125
0.731781005859375
0.969482421875
0.0
0.032958984375
0.0032958984375
0.227813720703125
0.0234375
-0.0325927734375
-0.062286376953125
-0.55010986328125
0.107330322265625
-0.0003662109375
-0.986663818359375
-0.9493408203125
0.986663818359375
0.653778076171875
-0.44976806640625
0.0
0.38128662109375
0.80206298828125
0.01318359375
0.035186767578125
0.0
0.0003662109375
-0.010986328125
-0.035186767578125
-0.306915283203125
-0.906463623046875
0.41680908203125
0.090850830078125
-1.0
-0.54974365234375
0.958465576171875
0.917083740234375
-0.114654541015625
0.0029296875
0.121246337890625
0.49151611328125
0.0311279296875
0.0135498046875
0.0
-0.249053955078125
-0.016845703125
-0.0164794921875
-0.687103271484375
-1.0
0.788543701171875
0.33990478515625
-0.811614990234375
-0.197418212890625
0.695892333984375
0.960296630859375
0.0
0.035552978515625
0.0
0.199249267578125
0.019775390625
-0.035552978515625
-0.079498291015625
-0.59881591796875
0.138458251953125
0.0040283203125
-1.0
-0.900634765625
0.993255615234375
0.687469482421875
-0.40582275390625
0.0
0.34722900390625
0.777923583984375
0.0164794921875
0.032958984375
0.0003662109375
-0.028594970703125
-0.01611328125
-0.032958984375
-0.34613037109375
-0.945648193359375
0.46954345703125
0.114288330078125
-1.0
-0.49517822265625
0.924774169921875
0.937957763671875
-0.082061767578125
0.0091552734375
0.104034423828125
0.44720458984375
0.03076171875
0.0054931640625
0.0
-0.284942626953125
-0.0087890625
-0.0146484375
-0.742767333984375
-1.0
0.835418701171875
0.38385009765625
-0.755950927734375
-0.157501220703125
0.641326904296875
0.944915771484375
0.0
0.037017822265625
0.0
0.170684814453125
0.017578125
-0.037017822265625
-0.103668212890625
-0.657806396484375
0.175811767578125
0.01171875
-1.0
-0.841644287109375
0.99658203125
0.741302490234375
-0.34686279296875
0.0
0.308746337890625
0.731781005859375
0.021240234375
0.03076171875
0.0
-0.068145751953125
-0.021240234375
-0.03076171875
-0.40106201171875
-0.980072021484375
0.52886962890625
0.146881103515625
-1.0
-0.43658447265625
0.893646240234375
0.962493896484375
-0.041046142578125
0.0164794921875
0.076202392578125
0.39007568359375
0.030029296875
-0.0047607421875
-0.0047607421875
-0.34063720703125
0.007720947265625
-0.01171875
-0.812713623046875
-1.0
0.884124755859375
0.44390869140625
-0.681243896484375
-0.109527587890625
0.57720947265625
0.926971435546875
0.0
0.038116455078125
-0.0003662109375
0.128570556640625
0.0135498046875
-0.038116455078125
-0.148345947265625
-0.730316162109375
0.225250244140625
0.0263671875
-1.0
-0.769134521484375
1.0
0.796234130859375
-0.278717041015625
0.0
0.250518798828125
0.676483154296875
0.0263671875
0.027099609375
0.0
-0.117950439453125
-0.0263671875
-0.027099609375
-0.48492431640625
-1.0
0.60540771484375
0.199249267578125
-1.0
-0.36370849609375
0.848602294921875
0.973480224609375
0.0
0.0245361328125
0.044708251953125
0.32672119140625
0.02783203125
-0.0179443359375
-0.0205078125
-0.41497802734375
0.038848876953125
-0.006591796875
-0.8944091796875
-1.0
0.935394287109375
0.52886962890625
-0.58380126953125
-0.053131103515625
0.49664306640625
0.879364013671875
0.0
0.037384033203125
0.0
0.077667236328125
0.0087890625
-0.037384033203125
-0.208038330078125
-0.814178466796875
0.309478759765625
0.049835205078125
-1.0
-0.671722412109375
0.987060546875
0.863616943359375
-0.202178955078125
0.0
0.193389892578125
0.58599853515625
0.0296630859375
0.0234375
0.0
-0.171051025390625
-0.0296630859375
-0.0234375
-0.58563232421875
-1.0
0.700286865234375
0.261505126953125
-0.9130859375
-0.282379150390625
0.782684326171875
0.9822998046875
0.0
0.0311279296875
0.0157470703125
0.255645751953125
0.0245361328125
-0.029296875
-0.048736572265625
-0.50946044921875
0.084625244140625
-0.0018310546875
-0.969451904296875
-0.989990234375
0.979339599609375
0.625579833984375
-0.48052978515625
0.0
0.41021728515625
0.82476806640625
0.009521484375
0.035552978515625
0.0
0.01318359375
-0.0062255859375
-0.035552978515625
-0.291168212890625
-0.896575927734375
0.40106201171875
0.088287353515625
-1.0
-0.56695556640625
0.958831787109375
0.916717529296875
-0.120147705078125
0.0029296875
0.135528564453125
0.49444580078125
0.0311279296875
0.013916015625
0.0
-0.243560791015625
-0.0194091796875
-0.016845703125
-0.701019287109375
-1.0
0.798431396484375
0.35162353515625
-0.797698974609375
-0.190826416015625
0.688568115234375
0.959930419921875
0.0
0.035919189453125
0.0
0.187896728515625
0.01904296875
-0.035919189453125
-0.092315673828125
-0.621551513671875
0.146514892578125
0.008056640625
-1.0
-0.877899169921875
1.0
0.723358154296875
-0.37652587890625
0.0
0.32562255859375
0.749725341796875
0.019775390625
0.031494140625
0.0
-0.054962158203125
-0.019775390625
-0.031494140625
-0.38604736328125
-0.962493896484375
0.49993896484375
0.140655517578125
-1.0
-0.46368408203125
0.914154052734375
0.960662841796875
-0.048370361328125
0.0157470703125
0.084625244140625
0.39813232421875
0.030029296875
-0.0040283203125
-0.0018310546875
-0.33148193359375
0.008087158203125
-0.01171875
-0.812347412109375
-1.0
0.873504638671875
0.44610595703125
-0.684539794921875
-0.117218017578125
0.58709716796875
0.922943115234375
0.0
0.037750244140625
0.0
0.130401611328125
0.0135498046875
-0.037750244140625
-0.151275634765625
-0.735809326171875
0.232940673828125
0.02783203125
-1.0
-0.763641357421875
1.0
0.804656982421875
-0.273590087890625
0.0
0.247222900390625
0.666595458984375
0.0267333984375
0.0263671875
0.0
-0.123077392578125
-0.0267333984375
-0.0263671875
-0.49591064453125
-1.0
0.623382568359375
0.208404541015625
-1.0
-0.34759521484375
0.83428955078125
0.976806640625
0.0
0.0263671875
0.041046142578125
0.314239501953125
0.027099609375
-0.0205078125
-0.0263671875
-0.43182373046875
0.047637939453125
-0.005859375
-0.9097900390625
-1.0
0.947479248046875
0.55487060546875
-0.56256103515625
-0.044342041015625
0.47650146484375
0.865081787109375
0.00146484375
0.037384033203125
0.0
0.061187744140625
0.005859375
-0.037384033203125
-0.227813720703125
-0.833953857421875
0.32781982421875
0.062286376953125
-1.0
-0.647186279296875
0.992523193359375
0.885955810546875
-0.182037353515625
0.0
0.171051025390625
0.55120849609375
0.030029296875
0.0205078125
0.0
-0.193756103515625
-0.027099609375
-0.0205078125
-0.616790771484375
-1.0
0.735443115234375
0.292999267578125
-0.881927490234375
-0.251983642578125
0.755950927734375
0.976806640625
0.0
0.032958984375
0.00439453125
0.229644775390625
0.0234375
-0.0325927734375
-0.062286376953125
-0.55377197265625
0.112457275390625
0.000732421875
-0.998016357421875
-0.9456787109375
0.985565185546875
0.671722412109375
-0.43841552734375
0.0
0.37725830078125
0.792205810546875
0.0146484375
0.035186767578125
0.0
-0.016143798828125
-0.01318359375
-0.035186767578125
-0.32672119140625
-0.927337646484375
0.44793701171875
0.113189697265625
-1.0
-0.52154541015625
0.938690185546875
0.941619873046875
-0.090484619140625
0.0087890625
0.110626220703125
0.44464111328125
0.03076171875
0.005859375
0.0
-0.285308837890625
-0.00732421875
-0.0146484375
-0.751922607421875
-1.0
0.837982177734375
0.39849853515625
-0.746795654296875
-0.153839111328125
0.636932373046875
0.941986083984375
0.0
0.037017822265625
0.0003662109375
0.158966064453125
0.0164794921875
-0.037017822265625
-0.117950439453125
-0.676116943359375
0.194488525390625
0.017578125
-1.0
-0.823333740234375
1.0
0.770599365234375
-0.320098876953125
0.0
0.286773681640625
0.705780029296875
0.024169921875
0.029296875
0.0
-0.094512939453125
-0.024169921875
-0.029296875
-0.44390869140625
-0.995086669921875
0.55670166015625
0.175811767578125
-1.0
-0.40435791015625
0.881561279296875
0.977508544921875
-0.0120849609375
0.021240234375
0.060455322265625
0.34613037109375
0.029296875
-0.013916015625
-0.0150146484375
-0.39703369140625
0.029327392578125
-0.00732421875
-0.863616943359375
-1.0
0.918548583984375
0.50396728515625
-0.620086669921875
-0.070343017578125
0.52154541015625
0.897308349609375
0.0
0.037384033203125
0.0
0.089019775390625
0.009521484375
-0.037384033203125
-0.196319580078125
-0.794036865234375
0.286773681640625
0.047637939453125
-1.0
-0.696258544921875
0.9940185546875
0.854095458984375
-0.215362548828125
0.0
0.208404541015625
0.59771728515625
0.029296875
0.0234375
0.0
-0.165924072265625
-0.029296875
-0.0234375
-0.56842041015625
-1.0
0.691497802734375
0.261505126953125
-0.9302978515625
-0.289337158203125
0.789276123046875
0.9757080078125
0.0
0.03076171875
0.0179443359375
0.262237548828125
0.02490234375
-0.0281982421875
-0.046173095703125
-0.50177001953125
0.086822509765625
-0.0025634765625
-0.964691162109375
-0.9969482421875
0.973480224609375
0.627777099609375
-0.48785400390625
-0.000732421875
0.41351318359375
0.82037353515625
0.009521484375
0.035919189453125
0.0
0.013916015625
-0.005859375
-0.035919189453125
-0.291534423828125
-0.895477294921875
0.39849853515625
0.090850830078125
-1.0
-0.56658935546875
0.963958740234375
0.927703857421875
-0.118682861328125
0.002197265625
0.132598876953125
0.48089599609375
0.03076171875
0.013916015625
0.0
-0.252716064453125
-0.01611328125
-0.01611328125
-0.701751708984375
-1.0
0.806121826171875
0.35894775390625
-0.796966552734375
-0.185333251953125
0.677947998046875
0.960296630859375
0.0
0.036285400390625
0.0
0.180206298828125
0.0186767578125
-0.036285400390625
-0.098175048828125
-0.639495849609375
0.163726806640625
0.01171875
-1.0
-0.859954833984375
1.0
0.736541748046875
-0.35931396484375
0.0
0.316070556640625
0.738372802734375
0.021240234375
0.03076171875
0.0
-0.069244384765625
-0.021240234375
-0.03076171875
-0.40582275390625
-0.980804443359375
0.52740478515625
0.156768798828125
-1.0
-0.43658447265625
0.897674560546875
0.963226318359375
-0.035186767578125
0.0179443359375
0.073638916015625
0.37945556640625
0.0296630859375
-0.0084228515625
-0.008056640625
-0.36260986328125
0.017242431640625
-0.009521484375
-0.837982177734375
-1.0
0.900970458984375
0.47576904296875
-0.652679443359375
-0.091217041015625
0.55084228515625
0.909393310546875
0.0
0.038116455078125
0.0
0.108428955078125
0.0120849609375
-0.038116455078125
-0.168121337890625
-0.771331787109375
0.263336181640625
0.036651611328125
-1.0
-0.722259521484375
1.0
0.83538818359375
-0.248687744140625
0.0
0.219757080078125
0.627410888671875
0.02783203125
0.0245361328125
0.0003662109375
-0.145416259765625
-0.02783203125
-0.0245361328125
-0.54022216796875
-1.0
0.658538818359375
0.238800048828125
-0.9588623046875
-0.310577392578125
0.815277099609375
0.9833984375
0.0
0.029296875
0.02490234375
0.277252197265625
0.025634765625
-0.0260009765625
-0.038116455078125
-0.48162841796875
0.071441650390625
-0.0032958984375
-0.946380615234375
-1.0
0.968353271484375
0.60284423828125
-0.51422119140625
-0.01318359375
0.43328857421875
0.840179443359375
0.0069580078125
0.035919189453125
0.0
0.025665283203125
-0.0025634765625
-0.035919189453125
-0.272857666015625
-0.8870849609375
0.38861083984375
0.084259033203125
-1.0
-0.58160400390625
0.964691162109375
0.915252685546875
-0.133331298828125
0.000732421875
0.141021728515625
0.49993896484375
0.0311279296875
0.016845703125
0.0
-0.235137939453125
-0.021240234375
-0.017578125
-0.689666748046875
-1.0
0.794403076171875
0.34979248046875
-0.809051513671875
-0.199249267578125
0.694061279296875
0.959564208984375
0.0
0.035919189453125
0.0003662109375
0.190093994140625
0.0194091796875
-0.035919189453125
-0.091583251953125
-0.620452880859375
0.152740478515625
0.0087890625
-1.0
-0.878997802734375
1.0
0.731781005859375
-0.37506103515625
0.0
0.319000244140625
0.741668701171875
0.019775390625
0.03076171875
0.0
-0.061920166015625
-0.019775390625
-0.03076171875
-0.39556884765625
-0.977874755859375
0.52154541015625
0.149444580078125
-1.0
-0.44244384765625
0.904632568359375
0.970916748046875
-0.041046142578125
0.017578125
0.072540283203125
0.37908935546875
0.0296630859375
-0.008056640625
-0.0076904296875
-0.35784912109375
0.017974853515625
-0.009521484375
-0.831390380859375
-1.0
0.894378662109375
0.47100830078125
-0.659637451171875
-0.095245361328125
0.55670166015625
0.914886474609375
0.0
0.038116455078125
0.0
0.108795166015625
0.0120849609375
-0.038116455078125
-0.176177978515625
-0.768035888671875
0.263336181640625
0.038482666015625
-1.0
-0.726654052734375
1.0
0.84051513671875
-0.242462158203125
0.0
0.221954345703125
0.620452880859375
0.0281982421875
0.024169921875
0.0
-0.149444580078125
-0.0281982421875
-0.024169921875
-0.54791259765625
-1.0
0.675018310546875
0.243560791015625
-0.9508056640625
-0.305816650390625
0.801727294921875
0.9801025390625
0.0
0.0296630859375
0.02197265625
0.275787353515625
0.0252685546875
-0.0267333984375
-0.041412353515625
-0.48602294921875
0.077301025390625
-0.0029296875
-0.956268310546875
-1.0
0.972381591796875
0.609832763671875
-0.50103759765625
-0.0091552734375
0.42376708984375
0.83319091796875
0.008056640625
0.035552978515625
0.0
0.023834228515625
-0.0040283203125
-0.035552978515625
-0.283477783203125
-0.888916015625
0.39190673828125
0.085357666015625
-1.0
-0.57794189453125
0.965057373046875
0.918548583984375
-0.125274658203125
0.00146484375
0.137725830078125
0.49554443359375
0.03076171875
0.0150146484375
0.0
-0.245391845703125
-0.018310546875
-0.0164794921875
-0.696624755859375
-1.0
0.796966552734375
0.35308837890625
-0.802093505859375
-0.192291259765625
0.688934326171875
0.961761474609375
0.0
0.036285400390625
0.0003662109375
0.184600830078125
0.0186767578125
-0.036285400390625
-0.098175048828125
-0.629608154296875
0.160064697265625
0.01171875
-1.0
-0.869842529296875
1.0
0.735076904296875
-0.36334228515625
0.0
0.317169189453125
0.739471435546875
0.0208740234375
0.03076171875
0.0
-0.068145751953125
-0.0208740234375
-0.03076171875
-0.40802001953125
-0.981903076171875
0.53106689453125
0.155303955078125
-1.0
-0.43621826171875
0.894744873046875
0.964691162109375
-0.036651611328125
0.0179443359375
0.072906494140625
0.37945556640625
0.029296875
-0.0087890625
-0.0076904296875
-0.35894775390625
0.017974853515625
-0.0091552734375
-0.843109130859375
-1.0
0.898406982421875
0.48052978515625
-0.647918701171875
-0.093780517578125
0.55303955078125
0.906463623046875
0.0
0.038116455078125
0.0
0.105865478515625
0.01171875
-0.038116455078125
-0.175079345703125
-0.771697998046875
0.266632080078125
0.038116455078125
-1.0
-0.721160888671875
1.0
0.84197998046875
-0.236602783203125
0.0
0.219390869140625
0.619354248046875
0.0281982421875
0.024169921875
0.0
-0.154571533203125
-0.0281982421875
-0.024169921875
-0.54351806640625
-1.0
0.677947998046875
0.243927001953125
-0.9552001953125
-0.308380126953125
0.796600341796875
0.98486328125
0.0
0.030029296875
0.024169921875
0.270660400390625
0.0252685546875
-0.027099609375
-0.043609619140625
-0.50177001953125
0.082427978515625
-0.0029296875
-0.962860107421875
-0.9918212890625
0.972015380859375
0.615692138671875
-0.49224853515625
-0.005859375
0.41900634765625
0.83172607421875
0.0091552734375
0.035552978515625
0.0
0.0146484375
-0.005859375
-0.035552978515625
-0.292266845703125
-0.903167724609375
0.40911865234375
0.091583251953125
-1.0
-0.55889892578125
0.956634521484375
0.921478271484375
-0.118682861328125
0.003662109375
0.129669189453125
0.48638916015625
0.0311279296875
0.012451171875
0.0
-0.262237548828125
-0.0146484375
-0.01611328125
-0.713470458984375
-1.0
0.811614990234375
0.36517333984375
-0.785247802734375
-0.178741455078125
0.670623779296875
0.955169677734375
0.0
0.036651611328125
0.0
0.179107666015625
0.017578125
-0.036651611328125
-0.107330322265625
-0.654144287109375
0.175811767578125
0.012451171875
-1.0
-0.845306396484375
1.0
0.751556396484375
-0.34393310546875
0.0
0.299957275390625
0.724456787109375
0.0234375
0.0296630859375
0.0
-0.081329345703125
-0.0234375
-0.0296630859375
-0.42926025390625
-0.995819091796875
0.55560302734375
0.165557861328125
-1.0
-0.41131591796875
0.879364013671875
0.973114013671875
-0.0201416015625
0.0205078125
0.063751220703125
0.36077880859375
0.029296875
-0.012451171875
-0.01318359375
-0.38348388671875
0.026397705078125
-0.008056640625
-0.863616943359375
-1.0
0.917083740234375
0.49920654296875
-0.621917724609375
-0.074737548828125
0.52593994140625
0.900604248046875
0.0
0.038116455078125
0.0003662109375
0.088653564453125
0.009521484375
-0.038116455078125
-0.199615478515625
-0.807586669921875
0.300323486328125
0.048736572265625
-1.0
-0.680877685546875
0.9888916015625
0.862152099609375
-0.208404541015625
0.0
0.199981689453125
0.58856201171875
0.0296630859375
0.0234375
0.0
-0.176544189453125
-0.029296875
-0.0234375
-0.58160400390625
-1.0
0.714935302734375
0.271392822265625
-0.9171142578125
-0.271392822265625
0.769866943359375
0.98046875
0.0
0.0318603515625
0.0135498046875
0.247589111328125
0.0238037109375
-0.0303955078125
-0.056060791015625
-0.53472900390625
0.102203369140625
-0.00146484375
-0.987762451171875
-0.9647216796875
0.986297607421875
0.652679443359375
-0.45489501953125
0.0
0.38641357421875
0.80609130859375
0.01318359375
0.035186767578125
0.0
-0.0069580078125
-0.01171875
-0.035186767578125
-0.32049560546875
-0.928436279296875
0.43511962890625
0.108062744140625
-1.0
-0.52337646484375
0.949676513671875
0.943084716796875
-0.093780517578125
0.008056640625
0.112457275390625
0.44830322265625
0.03076171875
0.006591796875
0.0
-0.287872314453125
-0.0062255859375
-0.0146484375
-0.754119873046875
-1.0
0.837982177734375
0.39703369140625
-0.744598388671875
-0.150909423828125
0.636199951171875
0.946014404296875
0.0
0.037384033203125
0.0
0.156402587890625
0.0157470703125
-0.037384033203125
-0.128570556640625
-0.699920654296875
0.208404541015625
0.0205078125
-1.0
-0.799530029296875
1.0
0.784515380859375
-0.304718017578125
0.0
0.265899658203125
0.693328857421875
0.0252685546875
0.02783203125
0.0
-0.110626220703125
-0.0252685546875
-0.02783203125
-0.46954345703125
-1.0
0.60430908203125
0.194854736328125
-1.0
-0.36773681640625
0.846771240234375
0.981903076171875
0.0
0.02490234375
0.047637939453125
0.32269287109375
0.0274658203125
-0.01904296875
-0.0234375
-0.42706298828125
0.045440673828125
-0.005859375
-0.9039306640625
-1.0
0.951507568359375
0.54791259765625
-0.57135009765625
-0.042877197265625
0.47430419921875
0.870941162109375
0.0003662109375
0.037017822265625
0.0
0.061920166015625
0.0069580078125
-0.037017822265625
-0.231109619140625
-0.836151123046875
0.33441162109375
0.062652587890625
-1.0
-0.644622802734375
0.989593505859375
0.889251708984375
-0.173614501953125
0.0
0.167388916015625
0.54754638671875
0.03076171875
0.019775390625
0.0
-0.204742431640625
-0.025634765625
-0.019775390625
-0.630340576171875
-1.0
0.742767333984375
0.301422119140625
-0.868377685546875
-0.239532470703125
0.747161865234375
0.9786376953125
0.0
0.035186767578125
0.003662109375
0.219390869140625
0.021240234375
-0.035186767578125
-0.072906494140625
-0.57464599609375
0.128204345703125
0.003662109375
-1.0
-0.9248046875
0.992523193359375
0.690032958984375
-0.41387939453125
0.0
0.35675048828125
0.777923583984375
0.017578125
0.0322265625
0.0
-0.034088134765625
-0.017578125
-0.0322265625
-0.36260986328125
-0.955169677734375
0.48309326171875
0.128936767578125
-1.0
-0.48236083984375
0.922576904296875
0.952606201171875
-0.064483642578125
0.013916015625
0.093048095703125
0.41790771484375
0.0303955078125
-0.0018310546875
-0.0003662109375
-0.320465087890625
0.002197265625
-0.0120849609375
-0.802459716796875
-1.0
0.8731689453125
0.43548583984375
-0.695892333984375
-0.123077392578125
0.59295654296875
0.928802490234375
0.0
0.038116455078125
0.0
0.135162353515625
0.013916015625
-0.038116455078125
-0.153472900390625
-0.731048583984375
0.234405517578125
0.029296875
-1.0
-0.768402099609375
1.0
0.811614990234375
-0.270294189453125
0.0
0.243560791015625
0.658538818359375
0.0267333984375
0.0263671875
0.0
-0.131866455078125
-0.0267333984375
-0.0263671875
-0.50689697265625
-1.0
0.625946044921875
0.214996337890625
-0.9918212890625
-0.34356689453125
0.83575439453125
0.9837646484375
0.0
0.027099609375
0.037017822265625
0.300689697265625
0.027099609375
-0.022705078125
-0.0311279296875
-0.45233154296875
0.058258056640625
-0.00439453125
-0.92626953125
-1.0
0.953704833984375
0.56915283203125
-0.54132080078125
-0.0303955078125
0.45965576171875
0.860321044921875
0.0032958984375
0.036651611328125
0.0
0.045440673828125
0.0025634765625
-0.036651611328125
-0.255645751953125
-0.865447998046875
0.35784912109375
0.074371337890625
-1.0
-0.609466552734375
0.980804443359375
0.899505615234375
-0.152740478515625
0.0
0.154205322265625
0.52557373046875
0.03076171875
0.018310546875
0.0
-0.219024658203125
-0.0234375
-0.018310546875
-0.658905029296875
-1.0
0.762542724609375
0.320098876953125
-0.839813232421875
-0.220855712890625
0.728118896484375
0.9705810546875
0.0
0.035186767578125
0.0010986328125
0.208770751953125
0.0205078125
-0.035186767578125
-0.080963134765625
-0.58856201171875
0.136260986328125
0.005859375
-1.0
-0.910888671875
0.998748779296875
0.705047607421875
-0.39849853515625
0.0
0.34320068359375
0.761810302734375
0.0179443359375
0.0322265625
0.0
-0.039581298828125
-0.0179443359375
-0.0322265625
-0.36553955078125
-0.957733154296875
0.49224853515625
0.133331298828125
-1.0
-0.47540283203125
0.914154052734375
0.955902099609375
-0.058624267578125
0.0135498046875
0.092315673828125
0.41021728515625
0.0303955078125
-0.0010986328125
-0.0003662109375
-0.320465087890625
0.0010986328125
-0.012451171875
-0.798065185546875
-1.0
0.8651123046875
0.42779541015625
-0.700286865234375
-0.124908447265625
0.60211181640625
0.934661865234375
0.0
0.038116455078125
0.0
0.136993408203125
0.0142822265625
-0.038116455078125
-0.147247314453125
-0.724456787109375
0.226348876953125
0.0274658203125
-1.0
-0.774993896484375
1.0
0.796600341796875
-0.276885986328125
0.0
0.249786376953125
0.675018310546875
0.0267333984375
0.0267333984375
0.0
-0.125274658203125
-0.0267333984375
-0.0267333984375
-0.49481201171875
-1.0
0.615325927734375
0.205108642578125
-1.0
-0.35235595703125
0.83905029296875
0.9786376953125
0.0
0.0263671875
0.044342041015625
0.315704345703125
0.027099609375
-0.0205078125
-0.0252685546875
-0.43731689453125
0.049835205078125
-0.005859375
-0.912353515625
-1.0
0.940155029296875
0.54571533203125
-0.56109619140625
-0.041046142578125
0.48162841796875
0.872406005859375
0.00146484375
0.037017822265625
0.0
0.061187744140625
0.0054931640625
-0.037017822265625
-0.236602783203125
-0.843841552734375
0.33770751953125
0.062286376953125
-1.0
-0.635467529296875
0.983367919921875
0.884124755859375
-0.171417236328125
0.0
0.171051025390625
0.55303955078125
0.0303955078125
0.0205078125
-0.0003662109375
-0.200714111328125
-0.0274658203125
-0.0205078125
-0.624114990234375
-1.0
0.739471435546875
0.296295166015625
-0.874603271484375
-0.241729736328125
0.749359130859375
0.975341796875
0.0
0.0333251953125
0.0069580078125
0.228179931640625
0.0234375
-0.0333251953125
-0.064117431640625
-0.55853271484375
0.114288330078125
0.00146484375
-1.0
-0.9412841796875
0.986663818359375
0.667694091796875
-0.43438720703125
0.0
0.37432861328125
0.79364013671875
0.0146484375
0.035186767578125
0.0
-0.0164794921875
-0.01318359375
-0.035186767578125
-0.33404541015625
-0.932830810546875
0.44793701171875
0.117218017578125
-1.0
-0.51348876953125
0.940521240234375
0.942718505859375
-0.084991455078125
0.0087890625
0.108795166015625
0.43951416015625
0.03076171875
0.005126953125
0.0003662109375
-0.290802001953125
-0.00732421875
-0.013916015625
-0.758514404296875
-1.0
0.835418701171875
0.40252685546875
-0.740570068359375
-0.148712158203125
0.639495849609375
0.941619873046875
0.0
0.037017822265625
0.0003662109375
0.155303955078125
0.01611328125
-0.037017822265625
-0.124176025390625
-0.683807373046875
0.198516845703125
0.01904296875
-1.0
-0.815643310546875
1.0
0.774261474609375
-0.318634033203125
0.0
0.276153564453125
0.701751708984375
0.024169921875
0.029296875
0.0
-0.100372314453125
-0.024169921875
-0.029296875
-0.44830322265625
-1.0
0.56951904296875
0.183135986328125
-1.0
-0.39373779296875
0.872406005859375
0.977508544921875
-0.0084228515625
0.0216064453125
0.056793212890625
0.33880615234375
0.029296875
-0.0142822265625
-0.01611328125
-0.39520263671875
0.031158447265625
-0.00732421875
-0.870208740234375
-1.0
0.920745849609375
0.51129150390625
-0.612396240234375
-0.066680908203125
0.51751708984375
0.892181396484375
0.0
0.037384033203125
0.0
0.084625244140625
0.009521484375
-0.037384033203125
-0.199981689453125
-0.803192138671875
0.298858642578125
0.049835205078125
-1.0
-0.684906005859375
0.9940185546875
0.861419677734375
-0.209503173828125
0.0
0.196319580078125
0.58819580078125
0.029296875
0.0234375
0.0
-0.169586181640625
-0.029296875
-0.0234375
-0.57391357421875
-1.0
0.688568115234375
0.264068603515625
-0.9248046875
-0.286407470703125
0.789642333984375
0.9775390625
0.0
0.03076171875
0.0205078125
0.258209228515625
0.02490234375
-0.0281982421875
-0.047637939453125
-0.50799560546875
0.087921142578125
-0.0025634765625
-0.972015380859375
-0.9918212890625
0.977142333984375
0.624847412109375
-0.47906494140625
0.0
0.40875244140625
0.82257080078125
0.0098876953125
0.035552978515625
0.0
0.0146484375
-0.0062255859375
-0.035552978515625
-0.291168212890625
-0.896942138671875
0.40655517578125
0.091217041015625
-1.0
-0.56512451171875
0.955902099609375
0.923309326171875
-0.117584228515625
0.002197265625
0.132598876953125
0.48492431640625
0.0311279296875
0.0142822265625
0.0
-0.251251220703125
-0.0179443359375
-0.0164794921875
-0.694427490234375
-1.0
0.795501708984375
0.35162353515625
-0.804290771484375
-0.187530517578125
0.690032958984375
0.960662841796875
0.0
0.035919189453125
0.0
0.187164306640625
0.01904296875
-0.035919189453125
-0.093048095703125
-0.625946044921875
0.153839111328125
0.0091552734375
-1.0
-0.873504638671875
1.0
0.726654052734375
-0.37213134765625
0.0
0.32342529296875
0.745697021484375
0.0201416015625
0.0311279296875
0.0
-0.058990478515625
-0.0201416015625
-0.0311279296875
-0.39556884765625
-0.976409912109375
0.51165771484375
0.146514892578125
-1.0
-0.44610595703125
0.906829833984375
0.959197998046875
-0.043975830078125
0.0164794921875
0.080230712890625
0.39373779296875
0.030029296875
-0.0047607421875
-0.0054931640625
-0.34136962890625
0.010284423828125
-0.01171875
-0.823699951171875
-1.0
0.887054443359375
0.45159912109375
-0.669525146484375
-0.107696533203125
0.57135009765625
0.920745849609375
0.0
0.038116455078125
0.0
0.126739501953125
0.01318359375
-0.038116455078125
-0.157135009765625
-0.748992919921875
0.245025634765625
0.0303955078125
-1.0
-0.750091552734375
0.997314453125
0.816009521484375
-0.265533447265625
0.0
0.243194580078125
0.653045654296875
0.0267333984375
0.025634765625
0.0
-0.130767822265625
-0.0267333984375
-0.025634765625
-0.50946044921875
-1.0
0.628143310546875
0.218292236328125
-0.9892578125
-0.34503173828125
0.83575439453125
0.9786376953125
0.0
0.027099609375
0.034820556640625
0.302520751953125
0.027099609375
-0.0223388671875
-0.02783203125
-0.44317626953125
0.052032470703125
-0.0047607421875
-0.9097900390625
-1.0
0.946014404296875
0.56365966796875
-0.56109619140625
-0.036651611328125
0.47357177734375
0.862884521484375
0.0018310546875
0.036651611328125
0.0
0.050933837890625
0.0047607421875
-0.036651611328125
-0.241729736328125
-0.844573974609375
0.34100341796875
0.065948486328125
-1.0
-0.632904052734375
0.984832763671875
0.886688232421875
-0.169219970703125
0.0
0.166290283203125
0.54681396484375
0.0303955078125
0.019775390625
0.0
-0.199981689453125
-0.027099609375
-0.019775390625
-0.626678466796875
-1.0
0.740936279296875
0.303253173828125
-0.872039794921875
-0.244659423828125
0.750823974609375
0.9705810546875
0.0
0.0333251953125
0.003662109375
0.225616455078125
0.0234375
-0.0333251953125
-0.066314697265625
-0.55706787109375
0.109893798828125
0.0010986328125
-0.995819091796875
-0.9423828125
0.990325927734375
0.672088623046875
-0.43658447265625
0.0
0.37506103515625
0.78997802734375
0.0146484375
0.0333251953125
0.0
-0.015380859375
-0.01318359375
-0.0333251953125
-0.33624267578125
-0.927703857421875
0.45416259765625
0.112091064453125
-1.0
-0.52008056640625
0.936859130859375
0.940155029296875
-0.084991455078125
0.0087890625
0.106231689453125
0.44720458984375
0.03076171875
0.005126953125
0.0
-0.284942626953125
-0.00732421875
-0.013916015625
-0.750091552734375
-1.0
0.824798583984375
0.39556884765625
-0.748626708984375
-0.157135009765625
0.650482177734375
0.947113037109375
0.0
0.037017822265625
0.0
0.156768798828125
0.0164794921875
-0.037017822265625
-0.118682861328125
-0.672454833984375
0.194488525390625
0.01611328125
-1.0
-0.826995849609375
1.0
0.762542724609375
-0.32379150390625
0.0
0.284576416015625
0.713836669921875
0.0234375
0.029296875
0.0
-0.090850830078125
-0.0234375
-0.029296875
-0.44097900390625
-0.995452880859375
0.56915283203125
0.177642822265625
-1.0
-0.40618896484375
0.870208740234375
0.972747802734375
-0.013916015625
0.0208740234375
0.059356689453125
0.34906005859375
0.029296875
-0.0128173828125
-0.013916015625
-0.38824462890625
0.023468017578125
-0.008056640625
-0.860321044921875
-1.0
0.912689208984375
0.50067138671875
-0.624481201171875
-0.076202392578125
0.53326416015625
0.896942138671875
0.0
0.037384033203125
0.0
0.092315673828125
0.01025390625
-0.037384033203125
-0.193023681640625
-0.790374755859375
0.287506103515625
0.044342041015625
-1.0
-0.699554443359375
0.99658203125
0.850067138671875
-0.217559814453125
0.0
0.204376220703125
0.60504150390625
0.029296875
0.0234375
0.0
-0.163360595703125
-0.029296875
-0.0234375
-0.56365966796875
-1.0
0.688568115234375
0.258209228515625
-0.93505859375
-0.293365478515625
0.792572021484375
0.981201171875
0.0
0.0303955078125
0.017578125
0.260040283203125
0.02490234375
-0.0281982421875
-0.045074462890625
-0.50689697265625
0.085357666015625
-0.002197265625
-0.962860107421875
-0.989990234375
0.964691162109375
0.617156982421875
-0.49078369140625
-0.0025634765625
0.42376708984375
0.82952880859375
0.0091552734375
0.035552978515625
0.0
0.0157470703125
-0.0054931640625
-0.035552978515625
-0.296295166015625
-0.898040771484375
0.40838623046875
0.094146728515625
-1.0
-0.56439208984375
0.954437255859375
0.921112060546875
-0.117218017578125
0.0029296875
0.132232666015625
0.48419189453125
0.0311279296875
0.0135498046875
0.0
-0.257110595703125
-0.0172119140625
-0.0164794921875
-0.709442138671875
-1.0
0.806488037109375
0.36517333984375
-0.789276123046875
-0.181671142578125
0.678314208984375
0.957366943359375
0.0
0.036651611328125
0.0
0.176910400390625
0.018310546875
-0.036651611328125
-0.104034423828125
-0.640228271484375
0.169219970703125
0.01171875
-1.0
-0.859222412109375
1.0
0.741668701171875
-0.35162353515625
0.0
0.307647705078125
0.732513427734375
0.02197265625
0.0303955078125
0.0
-0.075469970703125
-0.02197265625
-0.0303955078125
-0.41461181640625
-0.988494873046875
0.54388427734375
0.164093017578125
-1.0
-0.42193603515625
0.888885498046875
0.969085693359375
-0.029296875
0.01904296875
0.065948486328125
0.36627197265625
0.0296630859375
-0.01025390625
-0.0091552734375
-0.37725830078125
0.020172119140625
-0.0087890625
-0.841644287109375
-1.0
0.909759521484375
0.48272705078125
-0.647918701171875
-0.080596923828125
0.53912353515625
0.910125732421875
0.0
0.038116455078125
0.0
0.097808837890625
0.01171875
-0.038116455078125
-0.182769775390625
-0.790374755859375
0.286407470703125
0.043243408203125
-1.0
-0.700286865234375
0.994384765625
0.84783935546875
-0.230010986328125
0.0
0.206207275390625
0.608367919921875
0.029296875
0.0234375
0.0
-0.165191650390625
-0.029296875
-0.0234375
-0.56365966796875
-1.0
0.681976318359375
0.261505126953125
-0.93505859375
-0.287139892578125
0.797698974609375
0.9815673828125
0.0
0.03076171875
0.01904296875
0.256378173828125
0.0245361328125
-0.0289306640625
-0.046905517578125
-0.51495361328125
0.086822509765625
-0.0018310546875
-0.975311279296875
-0.9844970703125
0.980804443359375
0.633636474609375
-0.47650146484375
0.0
0.40655517578125
0.81854248046875
0.01171875
0.035186767578125
0.0
0.0047607421875
-0.0087890625
-0.035186767578125
-0.302886962890625
-0.912689208984375
0.42047119140625
0.100372314453125
-1.0
-0.54425048828125
0.954803466796875
0.935394287109375
-0.105865478515625
0.0062255859375
0.120513916015625
0.46368408203125
0.03076171875
0.0087890625
0.0
-0.274688720703125
-0.01318359375
-0.0150146484375
-0.729217529296875
-1.0
0.826995849609375
0.38092041015625
-0.769500732421875
-0.164093017578125
0.654144287109375
0.952972412109375
0.0
0.037017822265625
0.0
0.165557861328125
0.0164794921875
-0.037017822265625
-0.117950439453125
-0.676849365234375
0.190826416015625
0.017578125
-1.0
-0.822601318359375
1.0
0.773895263671875
-0.319366455078125
0.0
0.281280517578125
0.703582763671875
0.024169921875
0.029296875
0.0
-0.099639892578125
-0.024169921875
-0.029296875
-0.45489501953125
-1.0
0.57501220703125
0.190460205078125
-1.0
-0.38494873046875
0.872772216796875
0.976043701171875
-0.00439453125
0.024169921875
0.050933837890625
0.33294677734375
0.0281982421875
-0.0179443359375
-0.0208740234375
-0.41461181640625
0.040313720703125
-0.0062255859375
-0.899169921875
-1.0
0.939422607421875
0.54022216796875
-0.57867431640625
-0.048004150390625
0.49078369140625
0.875701904296875
0.0
0.037017822265625
0.0
0.064849853515625
0.00732421875
-0.037017822265625
-0.236236572265625
-0.842376708984375
0.33258056640625
0.062286376953125
-1.0
-0.638397216796875
0.987396240234375
0.891448974609375
-0.167388916015625
0.0
0.171417236328125
0.54571533203125
0.03076171875
0.0194091796875
0.0
-0.212432861328125
-0.0260009765625
-0.0194091796875
-0.646087646484375
-1.0
0.757049560546875
0.307281494140625
-0.852630615234375
-0.227081298828125
0.734710693359375
0.9764404296875
0.0
0.035186767578125
0.002197265625
0.215728759765625
0.0208740234375
-0.035186767578125
-0.081329345703125
-0.59405517578125
0.135894775390625
0.0047607421875
-1.0
-0.9053955078125
1.0
0.705780029296875
-0.39117431640625
0.0
0.33953857421875
0.765838623046875
0.01904296875
0.031494140625
-0.0003662109375
-0.049835205078125
-0.01904296875
-0.031494140625
-0.38787841796875
-0.974578857421875
0.50872802734375
0.141387939453125
-1.0
-0.45196533203125
0.913055419921875
0.963226318359375
-0.044708251953125
0.017578125
0.076934814453125
0.39483642578125
0.030029296875
-0.008056640625
-0.008056640625
-0.35455322265625
0.013946533203125
-0.009521484375
-0.840179443359375
-1.0
0.899505615234375
0.47869873046875
-0.650482177734375
-0.093780517578125
0.55523681640625
0.909027099609375
0.0
0.038116455078125
0.0
0.104034423828125
0.01171875
-0.038116455078125
-0.189727783203125
-0.785980224609375
0.281280517578125
0.043975830078125
-1.0
-0.705780029296875
0.9998779296875
0.857025146484375
-0.222686767578125
0.0
0.205841064453125
0.59844970703125
0.029296875
0.0234375
0.0
-0.176177978515625
-0.028564453125
-0.0234375
-0.59295654296875
-1.0
0.709442138671875
0.276153564453125
-0.90576171875
-0.271392822265625
0.776458740234375
0.97900390625
0.0
0.0325927734375
0.0120849609375
0.244293212890625
0.0234375
-0.0322265625
-0.061920166015625
-0.55303955078125
0.108795166015625
0.0010986328125
-1.0
-0.9464111328125
0.995819091796875
0.674652099609375
-0.43365478515625
0.0
0.37066650390625
0.791107177734375
0.01611328125
0.0325927734375
0.0
-0.026763916015625
-0.01611328125
-0.0325927734375
-0.35931396484375
-0.953338623046875
0.47723388671875
0.126007080078125
-1.0
-0.48712158203125
0.926605224609375
0.958465576171875
-0.062286376953125
0.013916015625
0.094879150390625
0.41497802734375
0.030029296875
-0.002197265625
-0.0029296875
-0.33477783203125
0.006988525390625
-0.01171875
-0.817840576171875
-1.0
0.883026123046875
0.45745849609375
-0.677947998046875
-0.108795166015625
0.57867431640625
0.922943115234375
0.0
0.038116455078125
0.0
0.114288330078125
0.0120849609375
-0.038116455078125
-0.177276611328125
-0.770965576171875
0.262237548828125
0.039215087890625
-1.0
-0.723724365234375
1.0
0.84857177734375
-0.234405517578125
0.0
0.215728759765625
0.611663818359375
0.029296875
0.0234375
0.0
-0.168487548828125
-0.029296875
-0.0234375
-0.58087158203125
-1.0
0.697357177734375
0.271392822265625
-0.9178466796875
-0.282012939453125
0.788177490234375
0.98193359375
0.0
0.0322265625
0.0135498046875
0.246124267578125
0.0234375
-0.0311279296875
-0.058624267578125
-0.54827880859375
0.108428955078125
-0.0003662109375
-0.998748779296875
-0.951171875
0.983734130859375
0.668060302734375
-0.44171142578125
0.0
0.38311767578125
0.79583740234375
0.015380859375
0.0333251953125
0.0
-0.0234375
-0.0150146484375
-0.0333251953125
-0.35675048828125
-0.950408935546875
0.47540283203125
0.127105712890625
-1.0
-0.49078369140625
0.929534912109375
0.955535888671875
-0.063751220703125
0.013916015625
0.093414306640625
0.41680908203125
0.0303955078125
-0.002197265625
-0.0003662109375
-0.33807373046875
0.005889892578125
-0.01171875
-0.818206787109375
-1.0
0.888519287109375
0.45709228515625
-0.680145263671875
-0.105499267578125
0.57391357421875
0.921478271484375
0.0
0.038116455078125
0.0
0.115020751953125
0.0120849609375
-0.038116455078125
-0.177642822265625
-0.777191162109375
0.273590087890625
0.038848876953125
-1.0
-0.716400146484375
1.0
0.84930419921875
-0.231109619140625
0.0
0.211334228515625
0.611297607421875
0.029296875
0.0234375
0.0
-0.170684814453125
-0.029296875
-0.0234375
-0.57867431640625
-1.0
0.703948974609375
0.272491455078125
-0.9200439453125
-0.276153564453125
0.782318115234375
0.986328125
0.0
0.0322265625
0.012451171875
0.240631103515625
0.0234375
-0.031494140625
-0.061553955078125
-0.55377197265625
0.110626220703125
-0.0003662109375
-1.0
-0.9456787109375
0.992156982421875
0.669891357421875
-0.43658447265625
0.0
0.37286376953125
0.795135498046875
0.017578125
0.0325927734375
-0.0003662109375
-0.027862548828125
-0.017578125
-0.0325927734375
-0.36663818359375
-0.962493896484375
0.48822021484375
0.130401611328125
-1.0
-0.47503662109375
0.924407958984375
0.962127685546875
-0.056427001953125
0.015380859375
0.086090087890625
0.40692138671875
0.030029296875
-0.003662109375
-0.006591796875
-0.35089111328125
0.009918212890625
-0.01171875
-0.829559326171875
-1.0
0.885955810546875
0.46185302734375
-0.662567138671875
-0.095245361328125
0.57281494140625
0.921112060546875
0.0
0.038116455078125
0.0003662109375
0.108795166015625
0.01171875
-0.038116455078125
-0.187896728515625
-0.792572021484375
0.282379150390625
0.042510986328125
-1.0
-0.699188232421875
1.0
0.858489990234375
-0.214630126953125
0.0
0.201080322265625
0.59844970703125
0.029296875
0.02197265625
0.0
-0.181304931640625
-0.028564453125
-0.02197265625
-0.59295654296875
-1.0
0.714935302734375
0.282012939453125
-0.90576171875
-0.263702392578125
0.773895263671875
0.987060546875
0.0
0.0325927734375
0.0091552734375
0.230377197265625
0.0234375
-0.0325927734375
-0.069610595703125
-0.56512451171875
0.118682861328125
0.0029296875
-1.0
-0.934326171875
1.0
0.690765380859375
-0.41754150390625
0.0
0.35601806640625
0.778289794921875
0.0179443359375
0.0322265625
0.0
-0.039215087890625
-0.0179443359375
-0.0322265625
-0.37799072265625
-0.966888427734375
0.49810791015625
0.143585205078125
-1.0
-0.46588134765625
0.919281005859375
0.965423583984375
-0.047271728515625
0.017578125
0.081329345703125
0.39044189453125
0.0296630859375
-0.0076904296875
-0.0087890625
-0.35858154296875
0.017242431640625
-0.0098876953125
-0.847137451171875
-1.0
0.908660888671875
0.48785400390625
-0.642791748046875
-0.087921142578125
0.54315185546875
0.904266357421875
0.0
0.037384033203125
0.0
0.097076416015625
0.009521484375
-0.037384033203125
-0.199981689453125
-0.803192138671875
0.302154541015625
0.050567626953125
-1.0
-0.686004638671875
0.9998779296875
0.873504638671875
-0.202911376953125
0.0
0.187164306640625
0.57537841796875
0.0296630859375
0.0208740234375
0.0
-0.195587158203125
-0.0263671875
-0.0208740234375
-0.626678466796875
-1.0
0.746795654296875
0.301788330078125
-0.872039794921875
-0.243927001953125
0.746063232421875
0.9833984375
0.0
0.035186767578125
0.0025634765625
0.214263916015625
0.0205078125
-0.035186767578125
-0.082061767578125
-0.59808349609375
0.139190673828125
0.006591796875
-1.0
-0.9013671875
1.0
0.717864990234375
-0.39007568359375
0.0
0.32818603515625
0.758148193359375
0.0205078125
0.0311279296875
0.0
-0.065948486328125
-0.0205078125
-0.0311279296875
-0.41278076171875
-0.988494873046875
0.53765869140625
0.161895751953125
-1.0
-0.42816162109375
0.893646240234375
0.975311279296875
-0.0245361328125
0.0208740234375
0.067413330078125
0.36224365234375
0.029296875
-0.01318359375
-0.0157470703125
-0.39263916015625
0.031158447265625
-0.0076904296875
-0.883056640625
-1.0
0.931732177734375
0.52740478515625
-0.59991455078125
-0.061920166015625
0.50653076171875
0.885955810546875
0.0
0.037384033203125
0.0
0.068145751953125
0.00732421875
-0.037384033203125
-0.232574462890625
-0.842010498046875
0.33551025390625
0.063018798828125
-1.0
-0.639495849609375
0.987030029296875
0.895843505859375
-0.168487548828125
0.0
0.168853759765625
0.54058837890625
0.03076171875
0.0186767578125
0.0
-0.223419189453125
-0.0230712890625
-0.0186767578125
-0.672088623046875
-1.0
0.777557373046875
0.33807373046875
-0.826629638671875
-0.207305908203125
0.713470458984375
0.970184326171875
0.0
0.035919189453125
0.0
0.191192626953125
0.0186767578125
-0.035919189453125
-0.100006103515625
-0.641326904296875
0.165924072265625
0.01171875
-1.0
-0.858123779296875
1.0
0.752288818359375
-0.35015869140625
0.0
0.304718017578125
0.726287841796875
0.0234375
0.029296875
0.0
-0.091583251953125
-0.0234375
-0.029296875
-0.45379638671875
-1.0
0.58197021484375
0.185333251953125
-1.0
-0.38970947265625
0.866180419921875
0.981170654296875
-0.00146484375
0.024169921875
0.050567626953125
0.33294677734375
0.02783203125
-0.018310546875
-0.0238037109375
-0.42852783203125
0.045440673828125
-0.005859375
-0.915283203125
-1.0
0.951507568359375
0.56256103515625
-0.55963134765625
-0.038116455078125
0.47393798828125
0.865447998046875
0.0029296875
0.036651611328125
0.0
0.045806884765625
0.0029296875
-0.036651611328125
-0.264801025390625
-0.875732421875
0.37030029296875
0.079498291015625
-1.0
-0.59808349609375
0.981536865234375
0.915252685546875
-0.135894775390625
0.000732421875
0.141021728515625
0.50469970703125
0.0311279296875
0.016845703125
0.0
-0.252716064453125
-0.017578125
-0.017578125
-0.708709716796875
-1.0
0.811248779296875
0.36956787109375
-0.790008544921875
-0.179473876953125
0.673919677734375
0.961029052734375
0.0
0.036651611328125
0.0
0.168853759765625
0.017578125
-0.036651611328125
-0.118316650390625
-0.680145263671875
0.194122314453125
0.017578125
-1.0
-0.819305419921875
1.0
0.778289794921875
-0.316802978515625
0.0
0.283843994140625
0.701019287109375
0.02490234375
0.02783203125
0.0
-0.113922119140625
-0.02490234375
-0.02783203125
-0.48016357421875
-1.0
0.615325927734375
0.209136962890625
-1.0
-0.36041259765625
0.84197998046875
0.981201171875
0.0
0.0263671875
0.041412353515625
0.309112548828125
0.0263671875
-0.0216064453125
-0.0303955078125
-0.46002197265625
0.058990478515625
-0.0047607421875
-0.93505859375
-1.0
0.961761474609375
0.58453369140625
-0.53326416015625
-0.0234375
0.45159912109375
0.852264404296875
0.0062255859375
0.035919189453125
0.0
0.029693603515625
-0.0018310546875
-0.035919189453125
-0.282012939453125
-0.8922119140625
0.40289306640625
0.089752197265625
-1.0
-0.57427978515625
0.966156005859375
0.927337646484375
-0.124176025390625
0.0032958984375
0.125274658203125
0.48236083984375
0.03076171875
0.0120849609375
0.0
-0.271026611328125
-0.0120849609375
-0.015380859375
-0.732147216796875
-1.0
0.824066162109375
0.38421630859375
-0.766571044921875
-0.167022705078125
0.655975341796875
0.955535888671875
0.0
0.037017822265625
0.0
0.159698486328125
0.01611328125
-0.037017822265625
-0.130401611328125
-0.698089599609375
0.209503173828125
0.021240234375
-1.0
-0.801361083984375
1.0
0.791839599609375
-0.295928955078125
0.0
0.259307861328125
0.685638427734375
0.0263671875
0.0274658203125
0.0
-0.123809814453125
-0.0263671875
-0.0274658203125
-0.49371337890625
-1.0
0.627410888671875
0.217559814453125
-1.0
-0.34246826171875
0.83428955078125
0.9866943359375
0.0
0.02783203125
0.037384033203125
0.295196533203125
0.0263671875
-0.0238037109375
-0.035186767578125
-0.47100830078125
0.068145751953125
-0.0040283203125
-0.947113037109375
-1.0
0.967987060546875
0.59332275390625
-0.51678466796875
-0.0164794921875
0.43585205078125
0.845306396484375
0.00732421875
0.035552978515625
0.0003662109375
0.0260009765625
-0.003662109375
-0.035552978515625
-0.291168212890625
-0.902069091796875
0.40142822265625
0.091949462890625
-1.0
-0.56256103515625
0.964324951171875
0.930999755859375
-0.117218017578125
0.00439453125
0.129302978515625
0.47650146484375
0.0311279296875
0.010986328125
0.0
-0.269927978515625
-0.012451171875
-0.015380859375
-0.732879638671875
-1.0
0.826263427734375
0.38275146484375
-0.765838623046875
-0.164093017578125
0.653778076171875
0.954071044921875
0.0
0.037017822265625
0.0
0.162628173828125
0.01611328125
-0.037017822265625
-0.127471923828125
-0.693328857421875
0.203643798828125
0.0205078125
-1.0
-0.806121826171875
1.0
0.783782958984375
-0.304718017578125
0.0
0.266265869140625
0.694061279296875
0.025634765625
0.0274658203125
0.0
-0.116851806640625
-0.025634765625
-0.0274658203125
-0.48712158203125
-1.0
0.607635498046875
0.206939697265625
-1.0
-0.35565185546875
0.84857177734375
0.9801025390625
0.0
0.0267333984375
0.042510986328125
0.312408447265625
0.0267333984375
-0.02197265625
-0.0289306640625
-0.45269775390625
0.057159423828125
-0.0047607421875
-0.932861328125
-1.0
0.957000732421875
0.57720947265625
-0.53692626953125
-0.029296875
0.45782470703125
0.854095458984375
0.005126953125
0.036285400390625
0.0
0.041046142578125
0.000732421875
-0.036285400390625
-0.265899658203125
-0.8837890625
0.37396240234375
0.077667236328125
-1.0
-0.58856201171875
0.972747802734375
0.912689208984375
-0.135528564453125
0.00146484375
0.146148681640625
0.50909423828125
0.03076171875
0.015380859375
0.0
-0.249053955078125
-0.018310546875
-0.016845703125
-0.701019287109375
-1.0
0.803558349609375
0.35015869140625
-0.797698974609375
-0.185333251953125
0.682708740234375
0.966156005859375
0.0
0.036651611328125
0.0
0.183135986328125
0.0179443359375
-0.036651611328125
-0.106597900390625
-0.652313232421875
0.171783447265625
0.012451171875
-1.0
-0.847137451171875
1.0
0.742401123046875
-0.34320068359375
0.0
0.302520751953125
0.734344482421875
0.0234375
0.029296875
0.0
-0.085357666015625
-0.0234375
-0.029296875
-0.44573974609375
-0.999481201171875
0.56292724609375
0.175811767578125
-1.0
-0.40435791015625
0.879730224609375
0.970916748046875
-0.0128173828125
0.02197265625
0.056060791015625
0.35272216796875
0.029296875
-0.0146484375
-0.0157470703125
-0.39776611328125
0.031158447265625
-0.00732421875
-0.8779296875
-1.0
0.922210693359375
0.52081298828125
-0.60504150390625
-0.063018798828125
0.51605224609375
0.887420654296875
0.0
0.037384033203125
0.0
0.076568603515625
0.0087890625
-0.037384033203125
-0.219024658203125
-0.820770263671875
0.31646728515625
0.056427001953125
-1.0
-0.664031982421875
0.992889404296875
0.881195068359375
-0.187530517578125
0.0
0.180572509765625
0.56182861328125
0.030029296875
0.0205078125
0.0
-0.195587158203125
-0.02783203125
-0.0205078125
-0.617889404296875
-1.0
0.735076904296875
0.301055908203125
-0.880828857421875
-0.249786376953125
0.754852294921875
0.976806640625
0.0
0.03369140625
0.006591796875
0.221588134765625
0.0234375
-0.03369140625
-0.069976806640625
-0.56988525390625
0.119415283203125
0.0029296875
-1.0
-0.9295654296875
0.993988037109375
0.685638427734375
-0.41900634765625
0.0
0.36187744140625
0.781219482421875
0.017578125
0.0325927734375
0.0
-0.032989501953125
-0.017578125
-0.0325927734375
-0.36114501953125
-0.953338623046875
0.48345947265625
0.131866455078125
-1.0
-0.48345947265625
0.925872802734375
0.954071044921875
-0.060089111328125
0.0135498046875
0.089385986328125
0.41351318359375
0.0303955078125
-0.0018310546875
-0.0003662109375
-0.32598876953125
0.004791259765625
-0.01171875
-0.803192138671875
-1.0
0.877532958984375
0.44134521484375
-0.695159912109375
-0.117218017578125
0.58599853515625
0.925140380859375
0.0
0.037750244140625
0.0
0.132598876953125
0.0135498046875
-0.037750244140625
-0.159332275390625
-0.745697021484375
0.244293212890625
0.0311279296875
-1.0
-0.753387451171875
1.0
0.820770263671875
-0.259307861328125
0.0
0.238800048828125
0.647552490234375
0.0274658203125
0.025634765625
0.0
-0.140289306640625
-0.0274658203125
-0.025634765625
-0.52520751953125
-1.0
0.638763427734375
0.227447509765625
-0.973876953125
-0.32818603515625
0.826263427734375
0.982666015625
0.0
0.02783203125
0.03369140625
0.289337158203125
0.0263671875
-0.024169921875
-0.035919189453125
-0.47357177734375
0.068511962890625
-0.003662109375
-0.943450927734375
-1.0
0.961761474609375
0.58966064453125
-0.51934814453125
-0.0201416015625
0.44207763671875
0.848236083984375
0.006591796875
0.036285400390625
0.0
0.031890869140625
-0.0018310546875
-0.036285400390625
-0.271759033203125
-0.878662109375
0.37908935546875
0.082061767578125
-1.0
-0.59112548828125
0.967620849609375
0.911224365234375
-0.133331298828125
0.0003662109375
0.147247314453125
0.50616455078125
0.0311279296875
0.0172119140625
0.0
-0.242095947265625
-0.0194091796875
-0.017578125
-0.690032958984375
-1.0
0.793304443359375
0.35015869140625
-0.808685302734375
-0.194854736328125
0.693695068359375
0.959564208984375
0.0
0.035919189453125
0.0
0.189727783203125
0.01904296875
-0.035919189453125
-0.094879150390625
-0.628509521484375
0.158966064453125
0.0087890625
-1.0
-0.870941162109375
1.0
0.731048583984375
-0.36700439453125
0.0
0.318634033203125
0.743499755859375
0.0205078125
0.03076171875
0.0
-0.064849853515625
-0.0205078125
-0.03076171875
-0.40692138671875
-0.982635498046875
0.52850341796875
0.154937744140625
-1.0
-0.43585205078125
0.897674560546875
0.962493896484375
-0.036651611328125
0.017578125
0.072540283203125
0.38201904296875
0.0296630859375
-0.0076904296875
-0.00732421875
-0.36114501953125
0.017242431640625
-0.0098876953125
-0.837615966796875
-1.0
0.893646240234375
0.47357177734375
-0.653778076171875
-0.094146728515625
0.55816650390625
0.910125732421875
0.0
0.037750244140625
0.0
0.110992431640625
0.01171875
-0.037750244140625
-0.174346923828125
-0.767303466796875
0.263702392578125
0.037017822265625
-1.0
-0.727386474609375
0.998046875
0.82916259765625
-0.241729736328125
0.0
0.225250244140625
0.633270263671875
0.0281982421875
0.02490234375
0.0
-0.147613525390625
-0.0281982421875
-0.02490234375
-0.53326416015625
-1.0
0.663299560546875
0.237701416015625
-0.9654541015625
-0.316436767578125
0.807220458984375
0.978271484375
0.0
0.028564453125
0.0281982421875
0.283477783203125
0.025634765625
-0.02490234375
-0.036651611328125
-0.47906494140625
0.068145751953125
-0.003662109375
-0.939056396484375
-1.0
0.958831787109375
0.58966064453125
-0.52301025390625
-0.018310546875
0.44573974609375
0.845672607421875
0.0062255859375
0.035919189453125
0.0003662109375
0.034088134765625
-0.00146484375
-0.035919189453125
-0.271026611328125
-0.8775634765625
0.38238525390625
0.078765869140625
-1.0
-0.59185791015625
0.965423583984375
0.904998779296875
-0.140655517578125
0.0
0.146148681640625
0.51568603515625
0.0311279296875
0.0179443359375
0.0
-0.232940673828125
-0.0223388671875
-0.0179443359375
-0.672454833984375
-1.0
0.774993896484375
0.33221435546875
-0.826263427734375
-0.208404541015625
0.714569091796875
0.967987060546875
0.0
0.035186767578125
0.0003662109375
0.199249267578125
0.019775390625
-0.035186767578125
-0.086456298828125
-0.60394287109375
0.147247314453125
0.005859375
-1.0
-0.8955078125
1.0
0.701751708984375
-0.38861083984375
0.0
0.32818603515625
0.767669677734375
0.01904296875
0.0318603515625
0.0
-0.046905517578125
-0.01904296875
-0.0318603515625
-0.38677978515625
-0.969085693359375
0.50103759765625
0.140655517578125
-1.0
-0.45928955078125
0.914520263671875
0.958099365234375
-0.051300048828125
0.0150146484375
0.083160400390625
0.40069580078125
0.0303955078125
-0.0032958984375
-0.0010986328125
-0.33587646484375
0.006988525390625
-0.01171875
-0.817840576171875
-1.0
0.881561279296875
0.44317626953125
-0.679779052734375
-0.110626220703125
0.57940673828125
0.926605224609375
0.0
0.038116455078125
0.0003662109375
0.129669189453125
0.0135498046875
-0.038116455078125
-0.160064697265625
-0.745697021484375
0.240631103515625
0.03076171875
-1.0
-0.753753662109375
1.0
0.821502685546875
-0.261505126953125
0.0
0.234771728515625
0.647186279296875
0.027099609375
0.025634765625
0.0003662109375
-0.133331298828125
-0.027099609375
-0.025634765625
-0.51055908203125
-1.0
0.636932373046875
0.218292236328125
-0.988525390625
-0.33770751953125
0.82586669921875
0.9822998046875
0.0
0.0274658203125
0.035919189453125
0.298858642578125
0.0267333984375
-0.0230712890625
-0.0318603515625
-0.45526123046875
0.058990478515625
-0.00439453125
-0.92919921875
-1.0
0.959197998046875
0.57135009765625
-0.53765869140625
-0.029296875
0.45379638671875
0.858489990234375
0.003662109375
0.036651611328125
0.0
0.045440673828125
0.002197265625
-0.036651611328125
-0.252349853515625
-0.859588623046875
0.35748291015625
0.071807861328125
-1.0
-0.615692138671875
0.978607177734375
0.896209716796875
-0.158233642578125
0.0
0.156768798828125
0.53143310546875
0.03076171875
0.018310546875
0.0
-0.217926025390625
-0.0234375
-0.018310546875
-0.656707763671875
-1.0
0.770965576171875
0.32122802734375
-0.842010498046875
-0.219757080078125
0.719696044921875
0.969451904296875
0.0
0.035186767578125
0.000732421875
0.208770751953125
0.0205078125
-0.035186767578125
-0.080230712890625
-0.59112548828125
0.132965087890625
0.0047607421875
-1.0
-0.9083251953125
1.0
0.706878662109375
-0.39849853515625
0.0
0.34356689453125
0.762542724609375
0.0179443359375
0.0322265625
0.0
-0.042144775390625
-0.0179443359375
-0.0322265625
-0.37908935546875
-0.963226318359375
0.50396728515625
0.133331298828125
-1.0
-0.46881103515625
0.907196044921875
0.958831787109375
-0.053497314453125
0.0146484375
0.087554931640625
0.40728759765625
0.030029296875
-0.0029296875
-0.002197265625
-0.33001708984375
0.005157470703125
-0.01171875
-0.814178466796875
-1.0
0.875335693359375
0.44244384765625
-0.682342529296875
-0.114288330078125
0.58819580078125
0.928070068359375
0.0
0.037750244140625
0.0
0.128936767578125
0.01318359375
-0.037750244140625
-0.161163330078125
-0.742034912109375
0.244659423828125
0.0303955078125
-1.0
-0.757415771484375
0.99951171875
0.813812255859375
-0.264434814453125
0.0
0.241363525390625
0.655242919921875
0.0274658203125
0.025634765625
0.0
-0.137359619140625
-0.0274658203125
-0.025634765625
-0.52191162109375
-1.0
0.644989013671875
0.224151611328125
-0.976806640625
-0.33258056640625
0.821868896484375
0.9786376953125
0.0
0.02783203125
0.0322265625
0.296661376953125
0.0263671875
-0.024169921875
-0.0340576171875
-0.46405029296875
0.062286376953125
-0.003662109375
-0.9376220703125
-1.0
0.956268310546875
0.57574462890625
-0.52740478515625
-0.0245361328125
0.45379638671875
0.855194091796875
0.0047607421875
0.035919189453125
0.0
0.040679931640625
0.0003662109375
-0.035919189453125
-0.265533447265625
-0.8720703125
0.36993408203125
0.076934814453125
-1.0
-0.59954833984375
0.978607177734375
0.906463623046875
-0.143951416015625
0.0
0.145050048828125
0.51605224609375
0.0311279296875
0.0179443359375
0.0
-0.233673095703125
-0.0223388671875
-0.0179443359375
-0.673553466796875
-1.0
0.776824951171875
0.33258056640625
-0.825164794921875
-0.208770751953125
0.712738037109375
0.967254638671875
0.0
0.035186767578125
0.0003662109375
0.199615478515625
0.019775390625
-0.035186767578125
-0.088653564453125
-0.609832763671875
0.150543212890625
0.00732421875
-1.0
-0.889617919921875
1.0
0.716766357421875
-0.37799072265625
0.0
0.32598876953125
0.753753662109375
0.019775390625
0.031494140625
0.0
-0.055694580078125
-0.019775390625
-0.031494140625
-0.39263916015625
-0.974578857421875
0.52484130859375
0.146881103515625
-1.0
-0.44757080078125
0.896209716796875
0.962493896484375
-0.042510986328125
0.0164794921875
0.077667236328125
0.39007568359375
0.030029296875
-0.006591796875
-0.00732421875
-0.35711669921875
0.014312744140625
-0.0098876953125
-0.832855224609375
-1.0
0.897308349609375
0.46588134765625
-0.658538818359375
-0.094512939453125
0.55706787109375
0.915618896484375
0.0
0.038116455078125
0.0
0.112457275390625
0.0120849609375
-0.038116455078125
-0.176910400390625
-0.770965576171875
0.266265869140625
0.038116455078125
-1.0
-0.722991943359375
1.0
0.83868408203125
-0.239166259765625
0.0
0.213531494140625
0.622650146484375
0.029296875
0.024169921875
0.0
-0.159698486328125
-0.029296875
-0.024169921875
-0.55487060546875
-1.0
0.682708740234375
0.244659423828125
-0.94384765625
-0.298858642578125
0.792938232421875
0.9859619140625
0.0
0.030029296875
0.0230712890625
0.268829345703125
0.02490234375
-0.02783203125
-0.046173095703125
-0.50396728515625
0.083526611328125
-0.002197265625
-0.966156005859375
-0.9940185546875
0.976409912109375
0.623382568359375
-0.48638916015625
-0.00146484375
0.41387939453125
0.82513427734375
0.009521484375
0.035552978515625
0.0
0.01025390625
-0.006591796875
-0.035552978515625
-0.300689697265625
-0.911590576171875
0.41937255859375
0.096710205078125
-1.0
-0.54718017578125
0.951507568359375
0.927337646484375
-0.109893798828125
0.005859375
0.124908447265625
0.47540283203125
0.03076171875
0.0098876953125
0.0
-0.271759033203125
-0.01171875
-0.0157470703125
-0.733245849609375
-1.0
0.829925537109375
0.38238525390625
-0.765472412109375
-0.165924072265625
0.649749755859375
0.951141357421875
0.0
0.037017822265625
0.0
0.165924072265625
0.0164794921875
-0.037017822265625
-0.119781494140625
-0.678314208984375
0.196319580078125
0.0164794921875
-1.0
-0.821136474609375
1.0
0.768768310546875
-0.318267822265625
0.0
0.281280517578125
0.708709716796875
0.02490234375
0.028564453125
0.0
-0.102569580078125
-0.02490234375
-0.028564453125
-0.46075439453125
-1.0
0.59185791015625
0.185333251953125
-1.0
-0.38092041015625
0.857757568359375
0.980072021484375
0.0
0.024169921875
0.049102783203125
0.33404541015625
0.02783203125
-0.0179443359375
-0.0205078125
-0.41790771484375
0.042510986328125
-0.0062255859375
-0.8966064453125
-1.0
0.937591552734375
0.53106689453125
-0.58160400390625
-0.049835205078125
0.49078369140625
0.883392333984375
0.0
0.037017822265625
0.0
0.067779541015625
0.00732421875
-0.037017822265625
-0.229644775390625
-0.836151123046875
0.33551025390625
0.060455322265625
-1.0
-0.646087646484375
0.985931396484375
0.879364013671875
-0.177276611328125
0.0
0.169952392578125
0.55963134765625
0.0303955078125
0.019775390625
0.0
-0.204010009765625
-0.0263671875
-0.019775390625
-0.631439208984375
-1.0
0.747894287109375
0.306915283203125
-0.867279052734375
-0.237701416015625
0.743865966796875
0.9742431640625
0.0
0.035186767578125
0.0029296875
0.218292236328125
0.021240234375
-0.035186767578125
-0.075836181640625
-0.58087158203125
0.131134033203125
0.0029296875
-1.0
-0.9185791015625
0.993988037109375
0.689300537109375
-0.40911865234375
0.0
0.35235595703125
0.776824951171875
0.017578125
0.0322265625
0.0
-0.034454345703125
-0.017578125
-0.0322265625
-0.36663818359375
-0.959564208984375
0.49920654296875
0.131866455078125
-1.0
-0.47503662109375
0.913055419921875
0.959564208984375
-0.056060791015625
0.0146484375
0.086456298828125
0.40802001953125
0.030029296875
-0.0029296875
-0.0018310546875
-0.33258056640625
0.006622314453125
-0.01171875
-0.815643310546875
-1.0
0.879730224609375
0.44317626953125
-0.681243896484375
-0.111724853515625
0.58233642578125
0.927337646484375
0.0
0.037750244140625
0.0
0.128570556640625
0.01318359375
-0.037750244140625
-0.164825439453125
-0.750823974609375
0.249053955078125
0.0325927734375
-1.0
-0.748260498046875
1.0
0.818206787109375
-0.252349853515625
0.0
0.231475830078125
0.648651123046875
0.02783203125
0.02490234375
0.0
-0.142852783203125
-0.02783203125
-0.02490234375
-0.53363037109375
-1.0
0.649017333984375
0.230377197265625
-0.965087890625
-0.32452392578125
0.818939208984375
0.9815673828125
0.0
0.029296875
0.03076171875
0.287506103515625
0.0260009765625
-0.0260009765625
-0.039947509765625
-0.47833251953125
0.071441650390625
-0.0032958984375
-0.949676513671875
-1.0
0.968353271484375
0.60284423828125
-0.50909423828125
-0.01318359375
0.43292236328125
0.836517333984375
0.0076904296875
0.035552978515625
0.0
0.027130126953125
-0.003662109375
-0.035552978515625
-0.284942626953125
-0.8896484375
0.39263916015625
0.085357666015625
-1.0
-0.57684326171875
0.963592529296875
0.918182373046875
-0.125274658203125
0.0029296875
0.138458251953125
0.49591064453125
0.0311279296875
0.01318359375
0.0
-0.254913330078125
-0.01611328125
-0.01611328125
-0.709808349609375
-1.0
0.805389404296875
0.35748291015625
-0.788909912109375
-0.187530517578125
0.678314208984375
0.960296630859375
0.0
0.036651611328125
0.0
0.181671142578125
0.0179443359375
-0.036651611328125
-0.105865478515625
-0.647918701171875
0.169586181640625
0.012451171875
-1.0
-0.851531982421875
1.0
0.744232177734375
-0.34649658203125
0.0
0.309112548828125
0.731048583984375
0.0234375
0.0296630859375
0.0
-0.081329345703125
-0.0234375
-0.0296630859375
-0.43402099609375
-0.994354248046875
0.55670166015625
0.171417236328125
-1.0
-0.41204833984375
0.878631591796875
0.971282958984375
-0.017578125
0.0208740234375
0.063385009765625
0.35675048828125
0.029296875
-0.01318359375
-0.013916015625
-0.39007568359375
0.024932861328125
-0.0076904296875
-0.875335693359375
-1.0
0.917816162109375
0.51019287109375
-0.609466552734375
-0.070343017578125
0.52667236328125
0.892181396484375
0.0
0.037384033203125
0.0003662109375
0.084991455078125
0.0091552734375
-0.037384033203125
-0.209503173828125
-0.810516357421875
0.303619384765625
0.050933837890625
-1.0
-0.676849365234375
0.9954833984375
0.866912841796875
-0.200714111328125
0.0
0.190460205078125
0.58160400390625
0.0296630859375
0.0216064453125
0.0
-0.188995361328125
-0.028564453125
-0.0216064453125
-0.607269287109375
-1.0
0.718231201171875
0.283477783203125
-0.891448974609375
-0.262603759765625
0.769134521484375
0.9815673828125
0.0
0.0325927734375
0.0106201171875
0.234405517578125
0.0234375
-0.0322265625
-0.065948486328125
-0.55523681640625
0.112823486328125
0.000732421875
-0.999481201171875
-0.9442138671875
0.983001708984375
0.664764404296875
-0.43365478515625
0.0
0.37945556640625
0.79620361328125
0.0150146484375
0.032958984375
0.0
-0.01904296875
-0.0142822265625
-0.032958984375
-0.34429931640625
-0.943450927734375
0.47027587890625
0.121246337890625
-1.0
-0.49957275390625
0.926971435546875
0.952239990234375
-0.073638916015625
0.0120849609375
0.100738525390625
0.42596435546875
0.0303955078125
0.0003662109375
-0.0003662109375
-0.314971923828125
0.0
-0.012451171875
-0.787811279296875
-1.0
0.862548828125
0.42669677734375
-0.710540771484375
-0.128936767578125
0.60540771484375
0.933929443359375
0.0
0.037750244140625
0.0003662109375
0.138824462890625
0.013916015625
-0.037750244140625
-0.151641845703125
-0.735076904296875
0.234405517578125
0.029296875
-1.0
-0.764373779296875
1.0
0.816375732421875
-0.269561767578125
0.0
0.238800048828125
0.653778076171875
0.0274658203125
0.025634765625
0.0
-0.138092041015625
-0.0274658203125
-0.025634765625
-0.51934814453125
-1.0
0.640960693359375
0.227447509765625
-0.9793701171875
-0.32965087890625
0.824432373046875
0.9837646484375
0.0
0.0281982421875
0.0333251953125
0.288238525390625
0.025634765625
-0.02490234375
-0.037384033203125
-0.47979736328125
0.071075439453125
-0.0032958984375
-0.948577880859375
-1.0
0.966888427734375
0.60064697265625
-0.51275634765625
-0.017578125
0.43511962890625
0.839447021484375
0.00732421875
0.035919189453125
0.0
0.024932861328125
-0.0032958984375
-0.035919189453125
-0.284576416015625
-0.8907470703125
0.39447021484375
0.086456298828125
-1.0
-0.57427978515625
0.962860107421875
0.921844482421875
-0.124176025390625
0.0029296875
0.137359619140625
0.49114990234375
0.03076171875
0.01318359375
0.0
-0.259674072265625
-0.0146484375
-0.01611328125
-0.717864990234375
-1.0
0.818206787109375
0.36956787109375
-0.780853271484375
-0.177276611328125
0.664398193359375
0.955902099609375
0.0
0.036651611328125
0.0
0.173980712890625
0.017578125
-0.036651611328125
-0.113922119140625
-0.669891357421875
0.185699462890625
0.0146484375
-1.0
-0.829559326171875
1.0
0.766204833984375
-0.33404541015625
0.0
0.292633056640625
0.712371826171875
0.0238037109375
0.029296875
0.0
-0.098175048828125
-0.0238037109375
-0.029296875
-0.45306396484375
-1.0
0.58892822265625
0.187530517578125
-1.0
-0.38385009765625
0.860687255859375
0.977874755859375
-0.00146484375
0.0238037109375
0.049102783203125
0.33404541015625
0.02783203125
-0.017578125
-0.0216064453125
-0.42156982421875
0.043243408203125
-0.0062255859375
-0.9017333984375
-1.0
0.940155029296875
0.54498291015625
-0.57537841796875
-0.047637939453125
0.48748779296875
0.874969482421875
0.0003662109375
0.037017822265625
0.0
0.058258056640625
0.005859375
-0.037017822265625
-0.246856689453125
-0.852996826171875
0.35162353515625
0.068511962890625
-1.0
-0.625213623046875
0.983001708984375
0.895111083984375
-0.162261962890625
0.0
0.157867431640625
0.53582763671875
0.03076171875
0.018310546875
0.0
-0.227081298828125
-0.0230712890625
-0.018310546875
-0.669891357421875
-1.0
0.781951904296875
0.33697509765625
-0.828826904296875
-0.208404541015625
0.709075927734375
0.964324951171875
0.0
0.035552978515625
0.0
0.198150634765625
0.01904296875
-0.035552978515625
-0.096343994140625
-0.631072998046875
0.163726806640625
0.0087890625
-1.0
-0.868377685546875
1.0
0.737640380859375
-0.35931396484375
0.0
0.311676025390625
0.738372802734375
0.0216064453125
0.030029296875
0.0
-0.075836181640625
-0.0216064453125
-0.030029296875
-0.42926025390625
-0.997283935546875
0.56475830078125
0.171783447265625
-1.0
-0.41168212890625
0.873870849609375
0.979339599609375
-0.017578125
0.0216064453125
0.060089111328125
0.34832763671875
0.028564453125
-0.0146484375
-0.016845703125
-0.40325927734375
0.032989501953125
-0.0069580078125
-0.8856201171875
-1.0
0.932098388671875
0.52227783203125
-0.59625244140625
-0.058624267578125
0.50506591796875
0.888519287109375
0.0
0.037017822265625
0.0
0.070709228515625
0.00732421875
-0.037017822265625
-0.234039306640625
-0.844940185546875
0.33990478515625
0.064849853515625
-1.0
-0.636566162109375
0.988861083984375
0.891448974609375
-0.168487548828125
0.0
0.162628173828125
0.54315185546875
0.03076171875
0.0186767578125
0.0
-0.223419189453125
-0.0234375
-0.0186767578125
-0.666595458984375
-1.0
0.770965576171875
0.32855224609375
-0.832122802734375
-0.212066650390625
0.720062255859375
0.971649169921875
0.0
0.035552978515625
0.0003662109375
0.199249267578125
0.01904296875
-0.035552978515625
-0.095977783203125
-0.628875732421875
0.157135009765625
0.0098876953125
-1.0
-0.870574951171875
1.0
0.742401123046875
-0.36041259765625
0.0
0.312774658203125
0.734344482421875
0.0234375
0.0296630859375
0.0
-0.080230712890625
-0.0234375
-0.0296630859375
-0.43804931640625
-1.0
0.56036376953125
0.175811767578125
-1.0
-0.40435791015625
0.878997802734375
0.977142333984375
-0.0135498046875
0.0234375
0.059356689453125
0.34649658203125
0.0281982421875
-0.016845703125
-0.019775390625
-0.41058349609375
0.037750244140625
-0.006591796875
-0.9013671875
-1.0
0.942718505859375
0.53912353515625
-0.57757568359375
-0.051300048828125
0.49005126953125
0.878631591796875
0.0010986328125
0.036651611328125
0.0
0.060821533203125
0.0054931640625
-0.036651611328125
-0.246856689453125
-0.854827880859375
0.35382080078125
0.071441650390625
-1.0
-0.623748779296875
0.980072021484375
0.902801513671875
-0.154205322265625
0.0
0.158233642578125
0.52520751953125
0.03076171875
0.017578125
0.0
-0.235870361328125
-0.0216064453125
-0.017578125
-0.686004638671875
-1.0
0.794036865234375
0.35162353515625
-0.812713623046875
-0.201446533203125
0.695526123046875
0.964691162109375
0.0
0.036285400390625
0.0
0.183135986328125
0.0179443359375
-0.036285400390625
-0.105865478515625
-0.654876708984375
0.175445556640625
0.013916015625
-1.0
-0.844573974609375
1.0
0.761077880859375
-0.34027099609375
0.0
0.294830322265625
0.717864990234375
0.0234375
0.029296875
0.0
-0.097442626953125
-0.0234375
-0.029296875
-0.45855712890625
-1.0
0.57940673828125
0.190460205078125
-1.0
-0.38677978515625
0.872039794921875
0.983367919921875
-0.000732421875
0.0245361328125
0.047271728515625
0.32562255859375
0.02783203125
-0.0186767578125
-0.0238037109375
-0.43988037109375
0.047637939453125
-0.005859375
-0.918212890625
-1.0
0.946014404296875
0.56439208984375
-0.55670166015625
-0.038116455078125
0.47723388671875
0.864349365234375
0.0032958984375
0.036651611328125
0.0
0.044342041015625
0.0025634765625
-0.036651611328125
-0.263702392578125
-0.8731689453125
0.37799072265625
0.082061767578125
-1.0
-0.59991455078125
0.970916748046875
0.915618896484375
-0.137725830078125
0.0010986328125
0.143951416015625
0.50177001953125
0.03076171875
0.015380859375
0.0
-0.255279541015625
-0.0172119140625
-0.0164794921875
-0.703948974609375
-1.0
0.810516357421875
0.37066650390625
-0.794769287109375
-0.179840087890625
0.674652099609375
0.959564208984375
0.0
0.036651611328125
0.0
0.169219970703125
0.017578125
-0.036651611328125
-0.117950439453125
-0.679046630859375
0.193389892578125
0.017578125
-1.0
-0.820404052734375
1.0
0.779388427734375
-0.316436767578125
0.0
0.274322509765625
0.699920654296875
0.02490234375
0.02783203125
0.0
-0.115020751953125
-0.02490234375
-0.02783203125
-0.48492431640625
-1.0
0.608001708984375
0.212432861328125
-1.0
-0.35748291015625
0.85186767578125
0.9844970703125
0.0
0.0263671875
0.038848876953125
0.302520751953125
0.0263671875
-0.02197265625
-0.0311279296875
-0.46588134765625
0.065216064453125
-0.00439453125
-0.939453125
-0.283843994140625
0.65814208984375
0.749725341796875
0.221588134765625
