-0.407989501953125
-0.743865966796875
-0.0732421875
-0.743865966796875
0.531402587890625
0.0
0.0479736328125
0.0003662109375
-0.2376708984375
0.0003662109375
-0.145416259765625
0.0
-0.274688720703125
-0.0003662109375
-0.05712890625
0.0
0.303619384765625
0.0003662109375
0.206207275390625
0.0
0.126708984375
-0.0003662109375
0.07470703125
-0.0003662109375
0.005859375
0.0106201171875
-0.0106201171875
0.066680908203125
0.010986328125
0.075103759765625
0.034423828125
0.065185546875
0.0303955078125
0.06298828125
-0.0263671875
0.0281982421875
0.0076904296875
0.0450439453125
0.0670166015625
0.0706787109375
0.0164794921875
0.085693359375
0.0
0.106964111328125
-0.0032958984375
0.092681884765625
-0.0216064453125
0.0684814453125
-0.021240234375
0.03662109375
-0.0164794921875
0.01025390625
-0.01904296875
0.02197265625
-0.0164794921875
0.0450439453125
-0.0010986328125
0.0498046875
-0.0120849609375
0.062255859375
0.112091064453125
-0.111328125
-0.012451171875
0.03662109375
-0.135162353515625
0.2083740234375
0.0087890625
0.031494140625
-0.018310546875
0.039215087890625
-0.0391845703125
0.031890869140625
-0.03515625
0.024169921875
-0.0303955078125
0.044677734375
-0.0142822265625
0.0062255859375
0.00439453125
-0.0443115234375
0.005859375
-0.041015625
0.002197265625
-0.016845703125
-0.002197265625
-0.005523681640625
-0.0098876953125
-0.022369384765625
-0.0260009765625
-0.0216064453125
-0.0501708984375
-0.032958984375
-0.0692138671875
-0.0216064453125
-0.0106201171875
0.0106201171875
0.0391845703125
0.002197265625
0.0047607421875
0.0201416015625
-0.0047607421875
0.038818359375
-0.0172119140625
0.056427001953125
0.084228515625
-0.1094970703125
0.03515625
-0.0205078125
-0.046142578125
0.124542236328125
0.0234375
0.00146484375
0.005126953125
0.016845703125
0.012451171875
0.01171875
0.00439453125
0.034423828125
-0.03369140625
0.05126953125
-0.01611328125
0.006591796875
-0.005126953125
-0.017578125
-0.0128173828125
-0.008056640625
-0.0384521484375
0.022705078125
-0.0311279296875
0.025634765625
0.0531005859375
-0.0223388671875
0.1094970703125
-0.0589599609375
0.101806640625
-0.0443115234375
0.030029296875
-0.0172119140625
0.0421142578125
-0.052398681640625
0.024169921875
-0.046539306640625
-0.0552978515625
0.038116455078125
-0.031494140625
0.065216064453125
0.0135498046875
0.052734375
0.02197265625
0.06005859375
0.154571533203125
-0.157135009765625
0.0029296875
-0.0146484375
-0.141021728515625
0.180206298828125
-0.010986328125
0.0186767578125
-0.03662109375
0.018310546875
-0.0531005859375
0.0164794921875
-0.0853271484375
0.0347900390625
-0.1146240234375
0.07763671875
-0.08203125
0.05859375
-0.00439453125
0.0238037109375
0.0531005859375
0.009521484375
0.03515625
-0.0091552734375
0.0025634765625
0.003662109375
0.005859375
0.0194091796875
0.030029296875
0.0311279296875
0.0340576171875
0.032958984375
0.0087890625
0.0120849609375
0.0047607421875
-0.000732421875
0.00732421875
0.0135498046875
0.0216064453125
0.0032958984375
0.0867919921875
-0.098876953125
0.0003662109375
0.000732421875
-0.052001953125
0.0941162109375
0.0142822265625
0.00146484375
0.0047607421875
0.006591796875
0.0040283203125
0.0054931640625
0.0230712890625
-0.0062255859375
0.0263671875
-0.0135498046875
0.0128173828125
-0.03369140625
0.003662109375
-0.04541015625
0.013916015625
-0.0384521484375
0.0303955078125
-0.02783203125
0.0146484375
-0.029296875
0.0087890625
-0.032958984375
-0.005126953125
0.0
-0.0120849609375
0.0245361328125
-0.0062255859375
0.017578125
0.0
-0.0010986328125
-0.0032958984375
0.0098876953125
-0.0234375
0.0322265625
-0.032958984375
0.008056640625
-0.028564453125
0.00146484375
-0.005859375
0.0010986328125
-0.0003662109375
-0.0146484375
0.002197265625
-0.013916015625
-0.0010986328125
-0.0087890625
-0.0010986328125
-0.0216064453125
0.0289306640625
-0.0714111328125
-0.0040283203125
0.0010986328125
-0.0120849609375
0.0406494140625
0.005859375
-0.0087890625
-0.0205078125
0.005859375
-0.0318603515625
0.01904296875
-0.0106201171875
0.01318359375
0.01318359375
-0.003662109375
0.006591796875
-0.008056640625
0.01025390625
-0.01171875
0.0040283203125
-0.015380859375
0.010986328125
-0.0208740234375
0.01318359375
-0.0069580078125
-0.0098876953125
0.009521484375
-0.0120849609375
0.0120849609375
-0.01025390625
0.009521484375
-0.0091552734375
-0.003662109375
-0.0040283203125
-0.00732421875
-0.005126953125
-0.000732421875
-0.006591796875
-0.0010986328125
0.0010986328125
-0.002197265625
-0.0003662109375
-0.00146484375
-0.0274658203125
0.017578125
0.0377197265625
-0.093017578125
0.0091552734375
-0.0142822265625
-0.0501708984375
0.095947265625
0.00732421875
-0.002197265625
0.01025390625
0.01318359375
-0.0018310546875
0.0325927734375
-0.017578125
0.04248046875
-0.0186767578125
0.01611328125
-0.0047607421875
-0.030029296875
0.016845703125
-0.04248046875
0.019775390625
-0.025634765625
0.0142822265625
-0.0135498046875
0.0010986328125
-0.0113525390625
0.0010986328125
-0.0223388671875
-0.00146484375
-0.018310546875
-0.0025634765625
-0.0087890625
0.010986328125
-0.017578125
0.0018310546875
-0.0157470703125
0.1168212890625
-0.188629150390625
-0.0010986328125
-0.0150146484375
-0.1138916015625
0.154205322265625
-0.0135498046875
-0.01025390625
-0.0465087890625
0.00732421875
-0.0303955078125
0.0010986328125
-0.0084228515625
0.005126953125
-0.010986328125
0.019775390625
-0.01611328125
0.0098876953125
-0.0054931640625
-0.0025634765625
0.0025634765625
-0.005126953125
0.0047607421875
-0.00732421875
0.0003662109375
-0.01025390625
-0.0054931640625
-0.0087890625
-0.0040283203125
-0.0040283203125
0.0
-0.0069580078125
0.0120849609375
-0.009521484375
0.0069580078125
-0.002197265625
0.0087890625
-0.0010986328125
0.0
-0.0003662109375
-0.017578125
-0.0062255859375
-0.0018310546875
-0.013916015625
0.0113525390625
-0.01171875
-0.000732421875
-0.005859375
-0.010986328125
-0.0040283203125
0.00732421875
-0.01171875
0.0882568359375
-0.118682861328125
0.0084228515625
-0.0029296875
-0.064453125
0.113922119140625
-0.005859375
0.006591796875
-0.010986328125
-0.005126953125
-0.01171875
0.003662109375
-0.0091552734375
0.0087890625
-0.0076904296875
0.00439453125
-0.0025634765625
0.002197265625
-0.0010986328125
-0.003662109375
0.012451171875
-0.008056640625
0.0238037109375
-0.005859375
0.00732421875
-0.0018310546875
0.0069580078125
-0.0091552734375
0.0091552734375
-0.009521484375
0.0172119140625
-0.00439453125
0.0025634765625
0.0029296875
-0.0098876953125
0.0069580078125
-0.0205078125
0.0245361328125
0.04248046875
-0.089019775390625
0.02490234375
-0.016845703125
-0.040283203125
0.094879150390625
0.0025634765625
0.00146484375
-0.013916015625
0.0146484375
-0.0205078125
0.0263671875
-0.021240234375
0.032958984375
-0.0150146484375
0.0238037109375
0.0047607421875
0.005126953125
0.0128173828125
-0.006591796875
0.0150146484375
0.002197265625
0.0010986328125
0.016845703125
0.00146484375
0.0113525390625
0.0
0.013916015625
-0.0018310546875
0.01318359375
0.005126953125
0.000732421875
0.0025634765625
0.0010986328125
-0.0018310546875
-0.0025634765625
-0.00439453125
-0.01025390625
0.0018310546875
-0.0018310546875
0.0040283203125
0.0076904296875
0.0362548828125
-0.0260009765625
0.00732421875
-0.0029296875
-0.0296630859375
0.0428466796875
0.0010986328125
0.0186767578125
-0.0029296875
0.015380859375
-0.005859375
0.0201416015625
-0.01171875
0.0208740234375
-0.006591796875
0.015380859375
-0.0054931640625
0.003662109375
0.0003662109375
-0.005859375
0.0172119140625
-0.0087890625
0.00439453125
-0.002197265625
0.0087890625
-0.002197265625
0.0120849609375
0.0062255859375
0.0
0.0098876953125
0.0018310546875
-0.0025634765625
0.00146484375
-0.00146484375
0.01025390625
-0.0029296875
0.01611328125
-0.0025634765625
0.0084228515625
0.0029296875
-0.0054931640625
0.0040283203125
-0.0157470703125
0.01171875
-0.0040283203125
0.00439453125
0.0164794921875
-0.0098876953125
0.06884765625
-0.087890625
0.008056640625
-0.0150146484375
-0.059326171875
0.0849609375
0.00439453125
0.0106201171875
0.012451171875
-0.005859375
-0.008056640625
0.0003662109375
-0.008056640625
-0.0010986328125
-0.0135498046875
-0.0010986328125
-0.00732421875
-0.0113525390625
0.005859375
-0.0223388671875
0.0179443359375
-0.019775390625
0.0098876953125
-0.008056640625
-0.0076904296875
-0.00146484375
-0.00146484375
-0.0003662109375
0.0025634765625
-0.0018310546875
0.01025390625
-0.0084228515625
0.0076904296875
-0.0098876953125
-0.0025634765625
-0.0047607421875
-0.0029296875
-0.0054931640625
-0.0025634765625
-0.0076904296875
-0.00439453125
0.0003662109375
0.0010986328125
-0.0010986328125
0.05126953125
-0.075439453125
0.002197265625
-0.0087890625
-0.0487060546875
0.0699462890625
-0.008056640625
0.002197265625
-0.0084228515625
-0.003662109375
-0.003662109375
-0.0010986328125
-0.006591796875
0.010986328125
-0.006591796875
0.0179443359375
-0.01171875
-0.00146484375
-0.00732421875
-0.01318359375
0.0113525390625
-0.012451171875
0.0186767578125
-0.005126953125
0.00732421875
0.0054931640625
-0.01171875
0.0098876953125
-0.0157470703125
0.01318359375
-0.013916015625
0.013916015625
0.002197265625
0.008056640625
0.006591796875
0.008056640625
-0.000732421875
0.0113525390625
-0.00439453125
0.009521484375
-0.002197265625
0.0106201171875
0.01318359375
0.0032958984375
0.005126953125
0.0040283203125
-0.00439453125
0.0084228515625
-0.0032958984375
-0.0018310546875
-0.0040283203125
-0.0032958984375
-0.0025634765625
0.005859375
0.0091552734375
0.003662109375
0.0113525390625
-0.003662109375
0.0003662109375
0.0018310546875
0.0062255859375
-0.005126953125
-0.002197265625
-0.0003662109375
-0.0062255859375
0.0062255859375
0.000732421875
0.005859375
0.04541015625
-0.0853271484375
-0.012451171875
0.000732421875
-0.0428466796875
0.0791015625
0.01611328125
-0.0157470703125
-0.0010986328125
0.0025634765625
-0.0062255859375
0.013916015625
-0.0362548828125
0.035888671875
-0.03369140625
0.0252685546875
-0.008056640625
0.0010986328125
0.005859375
-0.00439453125
0.010986328125
-0.010986328125
-0.0106201171875
0.0054931640625
-0.005126953125
-0.00146484375
0.006591796875
-0.01025390625
0.0087890625
-0.0010986328125
0.013916015625
-0.01025390625
0.0120849609375
-0.0054931640625
-0.0003662109375
0.003662109375
-0.0054931640625
0.002197265625
0.002197265625
0.002197265625
-0.000732421875
-0.000732421875
-0.0018310546875
0.0
-0.000732421875
-0.0025634765625
0.010986328125
-0.0098876953125
0.008056640625
-0.008056640625
-0.0003662109375
-0.01318359375
0.01318359375
-0.0230712890625
0.016845703125
-0.01611328125
0.016845703125
-0.013916015625
0.0194091796875
-0.02783203125
0.025634765625
-0.0443115234375
-0.0098876953125
0.00732421875
-0.0164794921875
0.03076171875
0.005859375
-0.005859375
-0.010986328125
0.000732421875
-0.0234375
0.009521484375
-0.0150146484375
0.0084228515625
0.0
0.0003662109375
0.0018310546875
-0.0120849609375
0.0142822265625
-0.0194091796875
0.0
-0.0076904296875
0.0018310546875
-0.0128173828125
0.013916015625
-0.01611328125
0.003662109375
0.0010986328125
0.0091552734375
0.000732421875
-0.008056640625
0.006591796875
-0.015380859375
0.002197265625
0.0018310546875
-0.009521484375
0.010986328125
-0.0029296875
0.0069580078125
0.000732421875
-0.0084228515625
0.0087890625
-0.0087890625
0.0
-0.0032958984375
-0.008056640625
0.0018310546875
0.0054931640625
0.0029296875
0.0113525390625
-0.0098876953125
0.0194091796875
-0.03076171875
0.0435791015625
0.0589599609375
-0.104034423828125
0.002197265625
-0.00146484375
-0.081298828125
0.144683837890625
-0.0084228515625
0.01904296875
-0.01171875
0.0098876953125
-0.022705078125
0.024169921875
-0.0618896484375
0.0604248046875
-0.076202392578125
0.0706787109375
-0.034820556640625
0.0263671875
0.026031494140625
-0.0245361328125
0.037750244140625
-0.0263671875
0.0150146484375
-0.0135498046875
-0.00732421875
-0.00146484375
-0.0084228515625
0.0
0.0234375
-0.0194091796875
0.0362548828125
-0.0274658203125
0.0274658203125
-0.016845703125
0.0084228515625
-0.00732421875
0.00146484375
-0.009521484375
0.003662109375
-0.006591796875
0.008056640625
-0.009521484375
0.010986328125
-0.01025390625
0.00146484375
-0.0054931640625
0.00146484375
-0.0091552734375
0.0029296875
-0.0069580078125
0.01611328125
-0.0146484375
0.0150146484375
-0.009521484375
-0.0069580078125
0.01318359375
0.049072265625
-0.0831298828125
0.002197265625
-0.0003662109375
-0.0435791015625
0.0853271484375
0.0054931640625
-0.00732421875
-0.0029296875
0.00146484375
-0.0076904296875
0.006591796875
-0.0208740234375
0.0146484375
-0.0076904296875
0.009521484375
0.0076904296875
-0.00146484375
0.01318359375
-0.0087890625
0.01318359375
-0.0186767578125
-0.003662109375
-0.01611328125
-0.0010986328125
-0.009521484375
0.008056640625
-0.0054931640625
0.00732421875
-0.0010986328125
0.0084228515625
-0.00732421875
0.0098876953125
-0.018310546875
0.0062255859375
-0.01318359375
0.0076904296875
-0.0040283203125
0.0465087890625
-0.060791015625
0.008056640625
-0.0128173828125
-0.0347900390625
0.0538330078125
-0.0091552734375
0.008056640625
0.002197265625
-0.0069580078125
0.00732421875
-0.0076904296875
-0.00732421875
0.0018310546875
-0.017578125
0.0098876953125
-0.0146484375
0.0029296875
0.0062255859375
-0.0172119140625
0.0216064453125
-0.0263671875
0.0150146484375
-0.0223388671875
-0.0003662109375
-0.0120849609375
-0.0054931640625
-0.0010986328125
-0.00732421875
0.0003662109375
0.00439453125
-0.0069580078125
0.0179443359375
-0.0146484375
0.01171875
-0.0091552734375
-0.0010986328125
0.0025634765625
-0.000732421875
-0.0018310546875
0.0054931640625
-0.0084228515625
0.008056640625
-0.0142822265625
0.0135498046875
-0.0087890625
0.003662109375
0.005126953125
-0.003662109375
0.0076904296875
-0.00732421875
0.0084228515625
-0.005859375
0.0054931640625
-0.01025390625
0.0208740234375
0.1171875
-0.156768798828125
0.0076904296875
-0.0025634765625
-0.134765625
0.184600830078125
-0.009521484375
0.009521484375
-0.0029296875
0.008056640625
-0.013916015625
0.0263671875
-0.0263671875
0.0380859375
-0.0380859375
0.03515625
-0.01318359375
0.0146484375
0.01025390625
-0.005859375
0.0205078125
-0.01318359375
0.0179443359375
-0.0076904296875
0.0029296875
0.0029296875
-0.005126953125
0.00439453125
0.0032958984375
-0.0076904296875
0.016845703125
-0.013916015625
0.0128173828125
-0.00146484375
0.01025390625
-0.0003662109375
-0.0054931640625
0.0069580078125
0.122314453125
-0.178741455078125
-0.000732421875
-0.0029296875
-0.128173828125
0.190093994140625
-0.000732421875
0.012451171875
-0.013916015625
0.0172119140625
-0.006591796875
0.0062255859375
-0.01025390625
0.01025390625
-0.0157470703125
0.0150146484375
-0.0054931640625
-0.000732421875
0.0135498046875
-0.00732421875
0.01318359375
-0.0047607421875
0.010986328125
-0.0084228515625
0.0084228515625
-0.00732421875
-0.0003662109375
-0.00439453125
0.008056640625
-0.0029296875
0.002197265625
0.0040283203125
-0.005126953125
0.0032958984375
-0.00146484375
-0.008056640625
0.0062255859375
-0.0091552734375
0.0018310546875
0.0029296875
-0.002197265625
0.0010986328125
-0.005126953125
0.010986328125
0.119384765625
-0.169952392578125
0.0150146484375
-0.018310546875
-0.107666015625
0.161163330078125
0.01171875
-0.0091552734375
0.0084228515625
-0.01171875
-0.0062255859375
0.0025634765625
-0.0194091796875
0.0142822265625
-0.0216064453125
0.00439453125
-0.0062255859375
-0.0040283203125
0.0091552734375
-0.0135498046875
0.02783203125
-0.0245361328125
0.0157470703125
-0.0164794921875
0.0
-0.0098876953125
0.002197265625
-0.005126953125
0.0062255859375
-0.0047607421875
0.012451171875
-0.008056640625
-0.0040283203125
-0.0032958984375
-0.0010986328125
-0.0084228515625
0.0
-0.00439453125
-0.0010986328125
0.00146484375
0.0054931640625
-0.0003662109375
-0.003662109375
0.0047607421875
-0.0003662109375
-0.0010986328125
-0.000732421875
-0.012451171875
0.018310546875
-0.0347900390625
-0.000732421875
0.0120849609375
-0.019775390625
0.041015625
0.0091552734375
-0.006591796875
0.003662109375
-0.0029296875
-0.0230712890625
0.0172119140625
-0.025634765625
0.0186767578125
-0.000732421875
0.00146484375
0.0047607421875
-0.005859375
0.0087890625
-0.0069580078125
-0.0032958984375
-0.0010986328125
-0.01171875
0.0106201171875
-0.0010986328125
0.0076904296875
0.0087890625
-0.005126953125
0.008056640625
-0.002197265625
-0.009521484375
0.0047607421875
-0.0106201171875
0.0113525390625
-0.0054931640625
0.0157470703125
-0.0025634765625
0.0076904296875
-0.0010986328125
0.0047607421875
-0.0054931640625
0.0076904296875
-0.0087890625
0.0146484375
-0.017578125
0.03662109375
0.0556640625
-0.1021728515625
-0.006591796875
-0.00439453125
-0.0673828125
0.1226806640625
0.006591796875
-0.0010986328125
-0.00146484375
0.0062255859375
-0.01318359375
0.010986328125
-0.02197265625
0.017578125
-0.0087890625
0.013916015625
0.0040283203125
-0.0040283203125
0.0234375
-0.0303955078125
0.0296630859375
-0.0322265625
0.015380859375
-0.01171875
0.00146484375
-0.0003662109375
0.0047607421875
0.002197265625
0.00732421875
-0.0029296875
0.0003662109375
-0.00439453125
0.0091552734375
-0.0062255859375
0.0087890625
-0.0069580078125
0.01171875
-0.0062255859375
0.002197265625
-0.003662109375
0.0
-0.00146484375
0.005859375
0.0029296875
0.0
0.0032958984375
0.0054931640625
0.0003662109375
0.0106201171875
0.0010986328125
0.0120849609375
-0.003662109375
0.0025634765625
-0.0040283203125
-0.0054931640625
0.0120849609375
0.131500244140625
-0.195220947265625
0.0018310546875
-0.01171875
-0.127105712890625
0.194488525390625
0.009521484375
-0.005859375
0.0054931640625
-0.009521484375
-0.0135498046875
-0.000732421875
-0.022705078125
0.0069580078125
-0.0135498046875
0.0069580078125
0.0010986328125
0.0025634765625
0.003662109375
-0.0091552734375
0.0069580078125
-0.0186767578125
0.0146484375
-0.017578125
0.00439453125
-0.010986328125
0.010986328125
-0.0087890625
0.0054931640625
-0.003662109375
0.00439453125
-0.01025390625
0.009521484375
-0.0201416015625
0.01171875
-0.016845703125
0.013916015625
-0.0091552734375
0.005859375
-0.0003662109375
0.0062255859375
-0.0003662109375
-0.006591796875
0.0
-0.0260009765625
0.0252685546875
0.094482421875
-0.147613525390625
0.0172119140625
-0.024169921875
-0.09521484375
0.150543212890625
0.0047607421875
0.003662109375
0.01025390625
-0.0003662109375
-0.002197265625
0.0062255859375
-0.0186767578125
0.01318359375
-0.0369873046875
0.01171875
-0.018310546875
-0.0018310546875
0.0172119140625
-0.0128173828125
0.0179443359375
-0.0106201171875
0.0135498046875
-0.0113525390625
-0.0010986328125
-0.0076904296875
-0.0120849609375
0.0003662109375
-0.0062255859375
0.0029296875
0.005126953125
0.0003662109375
0.005126953125
-0.0018310546875
-0.0084228515625
0.002197265625
-0.01171875
0.005126953125
-0.0087890625
0.0164794921875
-0.0047607421875
0.019775390625
-0.0062255859375
0.017578125
-0.0091552734375
0.0205078125
-0.01611328125
0.024169921875
0.0867919921875
-0.122344970703125
-0.0120849609375
0.0230712890625
-0.1072998046875
0.164093017578125
0.009521484375
0.000732421875
0.003662109375
0.0032958984375
-0.006591796875
0.0142822265625
-0.0120849609375
0.019775390625
-0.009521484375
0.0172119140625
0.0010986328125
-0.0003662109375
0.0146484375
-0.0120849609375
0.017578125
-0.01611328125
0.012451171875
-0.0157470703125
0.0128173828125
-0.009521484375
0.0087890625
-0.0047607421875
0.003662109375
0.0010986328125
-0.003662109375
0.005859375
0.0029296875
-0.0029296875
0.104736328125
-0.149444580078125
-0.0076904296875
0.0142822265625
-0.09521484375
0.151275634765625
0.006591796875
0.0003662109375
-0.006591796875
0.0128173828125
-0.012451171875
0.0164794921875
-0.021240234375
0.017578125
-0.0186767578125
0.016845703125
0.00439453125
0.000732421875
0.017578125
-0.021240234375
0.008056640625
-0.0142822265625
-0.00732421875
-0.0047607421875
-0.0091552734375
-0.0025634765625
0.0025634765625
0.0076904296875
0.01171875
0.0010986328125
0.016845703125
-0.0106201171875
-0.0025634765625
0.0010986328125
0.125244140625
-0.189361572265625
0.0128173828125
-0.0146484375
-0.1300048828125
0.184967041015625
0.0
-0.003662109375
-0.0032958984375
-0.0018310546875
-0.0032958984375
0.0040283203125
-0.00146484375
0.0047607421875
-0.0091552734375
0.00732421875
-0.000732421875
-0.0040283203125
0.0194091796875
-0.0289306640625
0.028564453125
-0.035888671875
0.010986328125
-0.0164794921875
-0.0025634765625
0.0
-0.01025390625
0.0091552734375
0.0047607421875
-0.0029296875
0.0146484375
-0.0186767578125
0.0084228515625
-0.0128173828125
0.005859375
0.0010986328125
-0.0054931640625
0.0018310546875
-0.0040283203125
-0.0029296875
-0.002197265625
-0.005859375
-0.0018310546875
0.00732421875
0.140655517578125
-0.186798095703125
0.017578125
-0.02490234375
-0.111358642578125
0.169952392578125
0.01171875
-0.01025390625
0.0018310546875
-0.00732421875
0.0032958984375
-0.0054931640625
0.0010986328125
-0.0018310546875
-0.010986328125
0.0076904296875
-0.0091552734375
0.0003662109375
-0.0003662109375
-0.01318359375
0.013916015625
-0.0157470703125
0.02490234375
-0.0164794921875
0.00439453125
-0.0040283203125
-0.0164794921875
0.0157470703125
-0.01904296875
0.015380859375
-0.0098876953125
0.008056640625
0.0025634765625
-0.005859375
0.000732421875
-0.0032958984375
-0.0098876953125
0.013916015625
-0.0146484375
0.0267333984375
-0.0150146484375
0.0245361328125
-0.01171875
0.0120849609375
0.000732421875
0.00732421875
-0.003662109375
0.00732421875
-0.0069580078125
0.0106201171875
-0.0128173828125
0.015380859375
-0.018310546875
0.01318359375
-0.0025634765625
0.0047607421875
0.0025634765625
0.0010986328125
0.0
0.002197265625
-0.0157470703125
0.0128173828125
-0.01611328125
0.0146484375
-0.0032958984375
0.008056640625
-0.0025634765625
0.0069580078125
-0.002197265625
0.002197265625
-0.0076904296875
0.0047607421875
0.038818359375
-0.0703125
-0.000732421875
-0.0098876953125
-0.052734375
0.0882568359375
-0.005859375
0.0245361328125
-0.00439453125
0.0076904296875
-0.009521484375
0.00439453125
-0.0113525390625
0.00439453125
-0.01904296875
0.017578125
-0.0150146484375
0.0194091796875
-0.0087890625
0.010986328125
0.0010986328125
-0.0113525390625
0.0194091796875
-0.0194091796875
0.0135498046875
-0.005859375
0.00439453125
-0.0047607421875
0.0
0.0047607421875
-0.0179443359375
0.01318359375
0.005859375
-0.010986328125
0.02490234375
-0.02490234375
0.012451171875
-0.0142822265625
0.00732421875
-0.010986328125
0.0062255859375
-0.002197265625
0.0047607421875
-0.005859375
0.0040283203125
-0.015380859375
0.0450439453125
-0.0596923828125
0.01318359375
-0.02783203125
-0.0303955078125
0.0380859375
0.010986328125
-0.00439453125
0.0201416015625
-0.0260009765625
0.0032958984375
-0.0120849609375
-0.00732421875
0.000732421875
-0.0205078125
0.0120849609375
-0.01318359375
0.000732421875
0.008056640625
-0.0128173828125
0.0150146484375
-0.0172119140625
0.0194091796875
-0.0194091796875
0.0062255859375
-0.0106201171875
0.0029296875
-0.00732421875
0.00146484375
-0.000732421875
0.002197265625
-0.0025634765625
0.012451171875
-0.0087890625
0.005859375
-0.0032958984375
0.0029296875
-0.002197265625
-0.003662109375
0.0018310546875
0.0003662109375
0.006591796875
-0.0040283203125
0.006591796875
-0.0084228515625
0.002197265625
0.0047607421875
-0.0062255859375
0.0025634765625
-0.01025390625
0.0025634765625
-0.00439453125
0.0029296875
0.003662109375
0.006591796875
0.00146484375
0.006591796875
-0.0032958984375
0.0032958984375
-0.0032958984375
-0.0018310546875
-0.005859375
0.0699462890625
-0.103668212890625
0.00439453125
0.0069580078125
-0.0809326171875
0.126739501953125
-0.0076904296875
0.0146484375
0.003662109375
-0.005859375
-0.0106201171875
0.019775390625
-0.029296875
0.03515625
-0.03662109375
0.0362548828125
-0.0234375
0.029296875
0.0054931640625
-0.0047607421875
0.0234375
-0.0205078125
0.0164794921875
-0.0084228515625
0.0018310546875
0.00146484375
-0.0091552734375
0.0084228515625
0.00146484375
0.005126953125
0.01318359375
0.0029296875
0.0084228515625
0.0062255859375
0.0106201171875
-0.0040283203125
0.0040283203125
-0.0018310546875
-0.00439453125
-0.0062255859375
-0.0029296875
-0.0069580078125
0.0025634765625
0.00732421875
0.002197265625
0.0025634765625
-0.000732421875
0.00146484375
0.08935546875
-0.138092041015625
-0.005126953125
0.00146484375
-0.09375
0.145416259765625
0.0
0.0069580078125
-0.003662109375
0.009521484375
-0.0120849609375
0.0018310546875
-0.0069580078125
0.0054931640625
-0.0164794921875
0.0205078125
-0.017578125
0.0128173828125
0.0069580078125
-0.005126953125
0.01611328125
-0.0194091796875
0.015380859375
-0.0120849609375
0.0
-0.0003662109375
-0.008056640625
0.0098876953125
-0.01171875
0.0164794921875
-0.0098876953125
0.00732421875
0.0025634765625
-0.0040283203125
0.0040283203125
-0.0062255859375
0.0054931640625
-0.005859375
0.0047607421875
-0.009521484375
-0.009521484375
0.0087890625
0.125244140625
-0.192291259765625
0.0091552734375
-0.02197265625
-0.13037109375
0.182403564453125
0.00439453125
-0.008056640625
0.010986328125
-0.0146484375
-0.005126953125
-0.0084228515625
-0.0157470703125
0.0076904296875
-0.0201416015625
0.0106201171875
-0.005126953125
-0.0029296875
0.018310546875
-0.019775390625
0.0234375
-0.024169921875
0.0098876953125
-0.013916015625
-0.005126953125
-0.005126953125
-0.003662109375
-0.0010986328125
0.0084228515625
-0.0120849609375
0.0120849609375
-0.01025390625
0.0318603515625
-0.0355224609375
0.0029296875
-0.0091552734375
-0.0263671875
0.0391845703125
-0.00146484375
0.0069580078125
0.0040283203125
-0.00439453125
0.003662109375
-0.00146484375
-0.01025390625
0.0032958984375
-0.02197265625
0.0128173828125
-0.0069580078125
-0.000732421875
0.01904296875
-0.0205078125
0.0234375
-0.0194091796875
-0.002197265625
-0.005126953125
-0.015380859375
0.00732421875
-0.0054931640625
0.01025390625
0.0054931640625
0.002197265625
0.01318359375
-0.005126953125
0.0029296875
0.00146484375
-0.0062255859375
0.0047607421875
-0.0150146484375
0.0135498046875
0.0845947265625
-0.115753173828125
-0.0010986328125
0.0120849609375
-0.095947265625
0.143585205078125
0.0062255859375
0.005126953125
-0.0087890625
0.0128173828125
-0.0340576171875
0.03076171875
-0.028564453125
0.0296630859375
-0.0142822265625
0.0216064453125
-0.0098876953125
0.01171875
0.003662109375
-0.0062255859375
0.0150146484375
-0.0157470703125
0.0032958984375
-0.0032958984375
-0.005126953125
0.009521484375
-0.000732421875
0.005126953125
-0.0018310546875
0.00439453125
-0.0076904296875
0.003662109375
0.006591796875
-0.003662109375
0.0098876953125
0.0
-0.002197265625
0.00732421875
0.0032958984375
0.0040283203125
-0.0040283203125
0.0032958984375
-0.019775390625
0.01025390625
0.0018310546875
-0.0029296875
0.01904296875
-0.008056640625
0.0062255859375
0.0025634765625
-0.010986328125
0.027099609375
0.0626220703125
-0.098876953125
0.0172119140625
-0.0208740234375
-0.0487060546875
0.1043701171875
0.0076904296875
0.0003662109375
-0.0010986328125
0.0040283203125
-0.02490234375
0.0230712890625
-0.0172119140625
0.012451171875
0.006591796875
-0.0040283203125
-0.0025634765625
0.006591796875
0.00732421875
-0.0029296875
0.005859375
-0.0054931640625
0.00439453125
-0.010986328125
0.00439453125
-0.0091552734375
0.005859375
-0.0029296875
0.012451171875
-0.0076904296875
0.0029296875
0.002197265625
-0.002197265625
-0.012451171875
0.1083984375
-0.173614501953125
0.0069580078125
-0.0018310546875
-0.09814453125
0.150177001953125
0.0032958984375
-0.0029296875
0.0029296875
-0.01318359375
-0.000732421875
-0.0157470703125
-0.0135498046875
0.0029296875
-0.0194091796875
0.0091552734375
-0.012451171875
0.0029296875
0.0120849609375
-0.029296875
0.0201416015625
-0.0322265625
0.0010986328125
-0.009521484375
0.000732421875
-0.0084228515625
0.0113525390625
-0.01025390625
0.0091552734375
-0.015380859375
0.0157470703125
-0.0179443359375
0.00732421875
-0.0098876953125
-0.0018310546875
-0.0032958984375
-0.0003662109375
-0.000732421875
0.0003662109375
0.005126953125
-0.0003662109375
-0.0029296875
-0.0054931640625
-0.0069580078125
-0.0076904296875
0.000732421875
-0.021240234375
0.0245361328125
0.125244140625
-0.169952392578125
0.0135498046875
-0.016845703125
-0.11865234375
0.167755126953125
0.0047607421875
-0.0087890625
-0.006591796875
0.0047607421875
-0.01318359375
0.0146484375
-0.0205078125
0.0208740234375
-0.0234375
0.0234375
-0.00439453125
0.000732421875
0.0098876953125
-0.01025390625
-0.000732421875
0.005126953125
-0.00146484375
0.0062255859375
-0.015380859375
0.0120849609375
-0.008056640625
0.00439453125
0.0
0.0040283203125
-0.0047607421875
0.010986328125
0.01171875
0.0
0.0062255859375
0.0029296875
0.00439453125
-0.0010986328125
-0.013916015625
0.024169921875
0.06298828125
-0.1083984375
0.0142822265625
-0.016845703125
-0.07470703125
0.1270751953125
0.002197265625
0.0018310546875
0.0032958984375
0.002197265625
-0.0084228515625
0.0106201171875
-0.0238037109375
0.0216064453125
-0.0230712890625
0.021240234375
0.00439453125
-0.006591796875
0.0216064453125
-0.0142822265625
0.02197265625
-0.0069580078125
-0.0018310546875
0.002197265625
-0.0098876953125
0.0087890625
0.005859375
0.00146484375
0.0150146484375
0.0029296875
0.01318359375
0.0029296875
0.005859375
0.0003662109375
-0.006591796875
0.01171875
-0.0062255859375
0.0098876953125
0.0087890625
0.0010986328125
0.0087890625
0.0032958984375
0.0113525390625
0.0054931640625
0.0010986328125
0.005859375
-0.0091552734375
0.0069580078125
0.0029296875
0.0069580078125
0.0120849609375
0.0010986328125
0.0146484375
-0.000732421875
-0.0069580078125
0.0234375
0.137359619140625
-0.191192626953125
0.021240234375
-0.0303955078125
-0.120880126953125
0.177642822265625
0.0208740234375
-0.0216064453125
0.01318359375
-0.0150146484375
0.0018310546875
-0.0025634765625
-0.0003662109375
-0.0047607421875
0.0032958984375
-0.013916015625
0.0054931640625
-0.0362548828125
-0.0135498046875
-0.044677734375
-0.005126953125
-0.0322265625
0.0120849609375
-0.0164794921875
-0.00146484375
0.000732421875
0.0018310546875
-0.0018310546875
0.0054931640625
-0.018310546875
0.0098876953125
-0.01171875
0.0216064453125
-0.0084228515625
0.0054931640625
-0.005859375
-0.005859375
-0.0018310546875
0.0054931640625
-0.0296630859375
-0.0054931640625
-0.0201416015625
-0.0238037109375
0.0325927734375
-0.0098876953125
0.0281982421875
-0.0054931640625
0.0010986328125
-0.0194091796875
0.003662109375
-0.0208740234375
0.0113525390625
-0.0150146484375
0.0062255859375
-0.006591796875
0.0062255859375
-0.0010986328125
0.00732421875
0.006591796875
-0.005126953125
0.0098876953125
-0.0091552734375
0.0025634765625
-0.0025634765625
-0.0010986328125
0.0018310546875
-0.005126953125
0.0062255859375
0.0
0.005126953125
0.0032958984375
-0.00146484375
0.0029296875
-0.0029296875
0.000732421875
0.005859375
-0.00732421875
0.0194091796875
-0.01025390625
0.0252685546875
-0.012451171875
0.027099609375
0.002197265625
0.0186767578125
-0.003662109375
0.015380859375
-0.01171875
0.0146484375
-0.005859375
0.016845703125
0.12158203125
-0.159698486328125
0.0062255859375
0.0032958984375
-0.0802001953125
0.135894775390625
0.0391845703125
-0.0289306640625
-0.0087890625
0.0164794921875
-0.0054931640625
0.01318359375
-0.0084228515625
0.0223388671875
-0.0194091796875
0.0245361328125
-0.0098876953125
0.00439453125
-0.0062255859375
-0.003662109375
0.0062255859375
-0.0018310546875
0.0135498046875
-0.0087890625
0.0003662109375
0.0
0.0047607421875
0.003662109375
0.0069580078125
0.0029296875
0.0025634765625
0.005126953125
0.00439453125
0.0010986328125
0.0003662109375
0.00439453125
-0.00146484375
0.003662109375
0.0076904296875
-0.0010986328125
-0.00732421875
0.0069580078125
0.117218017578125
-0.175811767578125
0.0018310546875
-0.01171875
-0.123443603515625
0.169586181640625
0.0062255859375
-0.0087890625
-0.005859375
-0.002197265625
-0.015380859375
0.01025390625
-0.015380859375
0.0098876953125
-0.0150146484375
0.0076904296875
-0.01171875
-0.002197265625
0.0047607421875
-0.0186767578125
0.01025390625
-0.0230712890625
0.00146484375
-0.01611328125
-0.0032958984375
-0.0106201171875
-0.0032958984375
-0.0069580078125
-0.0029296875
-0.00439453125
0.0
-0.0113525390625
0.0098876953125
-0.0164794921875
0.0084228515625
-0.013916015625
0.0054931640625
-0.0069580078125
0.003662109375
-0.0091552734375
-0.000732421875
-0.0113525390625
-0.012451171875
0.0150146484375
0.0758056640625
-0.135894775390625
0.016845703125
-0.019775390625
-0.07763671875
0.139923095703125
0.0029296875
-0.0003662109375
-0.002197265625
-0.00439453125
-0.0146484375
0.0047607421875
-0.0128173828125
0.016845703125
-0.0205078125
0.0186767578125
-0.0018310546875
-0.0040283203125
0.0135498046875
-0.0146484375
0.0032958984375
-0.008056640625
-0.0032958984375
0.0018310546875
-0.005859375
0.0120849609375
0.00146484375
0.0032958984375
0.0062255859375
-0.00732421875
-0.010986328125
0.0010986328125
-0.0106201171875
0.0087890625
0.0040283203125
0.0025634765625
0.003662109375
-0.005126953125
0.0435791015625
-0.057861328125
-0.000732421875
0.0029296875
-0.05859375
0.0758056640625
-0.0201416015625
0.021240234375
0.0
0.005859375
0.0025634765625
0.010986328125
-0.0084228515625
0.01611328125
-0.0172119140625
0.018310546875
-0.0263671875
0.0208740234375
-0.01025390625
0.009521484375
0.01611328125
-0.0047607421875
0.0135498046875
-0.0029296875
0.013916015625
-0.0062255859375
-0.013916015625
0.0029296875
-0.024169921875
0.018310546875
0.005859375
0.0029296875
0.0157470703125
-0.0018310546875
0.0120849609375
-0.0054931640625
0.0
-0.0032958984375
-0.01171875
0.0120849609375
-0.008056640625
0.0062255859375
0.006591796875
0.0025634765625
-0.0029296875
0.0047607421875
-0.00439453125
-0.0018310546875
-0.000732421875
0.0025634765625
-0.0040283203125
0.0062255859375
-0.013916015625
0.0311279296875
0.0703125
-0.11279296875
0.01611328125
-0.0164794921875
-0.064453125
0.120849609375
-0.0003662109375
-0.0029296875
-0.017578125
0.0106201171875
-0.0201416015625
0.01611328125
-0.0087890625
0.0047607421875
-0.00146484375
-0.0087890625
-0.005859375
-0.009521484375
0.0029296875
-0.017578125
0.0146484375
-0.0172119140625
0.002197265625
-0.006591796875
-0.01025390625
0.0029296875
-0.025634765625
0.009521484375
-0.0146484375
-0.002197265625
-0.0054931640625
-0.0054931640625
-0.0150146484375
0.0087890625
-0.02197265625
0.0205078125
-0.0303955078125
0.019775390625
-0.0230712890625
0.0120849609375
-0.022369384765625
0.00732421875
-0.012847900390625
0.0018310546875
-0.0087890625
0.003662109375
-0.010986328125
0.0032958984375
0.046539306640625
-0.068115234375
-0.0069580078125
0.002197265625
-0.056427001953125
0.08203125
0.00146484375
0.01171875
0.005859375
-0.005859375
0.0003662109375
-0.0106201171875
-0.0040283203125
0.0003662109375
-0.0025634765625
0.0084228515625
0.0040283203125
-0.0087890625
0.0087890625
-0.015380859375
0.022369384765625
-0.0186767578125
0.027862548828125
-0.0179443359375
0.0146484375
-0.010986328125
0.0084228515625
-0.0113525390625
-0.0003662109375
0.000732421875
0.0047607421875
0.01025390625
0.01171875
0.0054931640625
0.002197265625
-0.0029296875
0.0025634765625
-0.00439453125
-0.005859375
0.006591796875
-0.0076904296875
0.0205078125
0.1138916015625
-0.1365966796875
0.006591796875
0.0084228515625
-0.0889892578125
0.142822265625
0.0223388671875
-0.0157470703125
0.010986328125
-0.0003662109375
0.00439453125
0.006591796875
0.0040283203125
0.01318359375
0.0029296875
0.005859375
0.0062255859375
-0.0098876953125
0.0142822265625
-0.0120849609375
0.0157470703125
-0.0069580078125
0.01904296875
-0.003662109375
0.017578125
-0.00439453125
0.0146484375
-0.0084228515625
0.00439453125
-0.0003662109375
0.00439453125
0.0040283203125
0.0179443359375
-0.0047607421875
0.0263671875
-0.013916015625
0.01611328125
-0.010986328125
0.005859375
0.000732421875
0.003662109375
0.002197265625
0.1212158203125
-0.1688232421875
0.005126953125
0.00146484375
-0.10693359375
0.1629638671875
0.0201416015625
-0.0087890625
0.002197265625
-0.000732421875
-0.01171875
0.00732421875
-0.018310546875
0.019775390625
-0.0205078125
0.0205078125
0.0069580078125
0.0040283203125
0.01904296875
-0.01025390625
0.018310546875
-0.013916015625
0.0054931640625
-0.0018310546875
-0.00732421875
0.0062255859375
0.01171875
-0.0054931640625
0.0113525390625
-0.009521484375
0.0047607421875
-0.01171875
0.0113525390625
-0.0201416015625
0.0201416015625
-0.0234375
0.0128173828125
-0.0230712890625
0.002197265625
-0.02197265625
0.0018310546875
-0.018310546875
0.009521484375
-0.02197265625
0.01318359375
-0.0263671875
0.0087890625
-0.0230712890625
0.005859375
-0.0216064453125
-0.0003662109375
-0.0146484375
0.0098876953125
-0.0135498046875
0.0113525390625
-0.0205078125
0.009521484375
-0.021240234375
-0.00146484375
0.0
0.126739501953125
-0.194122314453125
0.008056640625
-0.0223388671875
-0.132232666015625
0.182403564453125
0.015380859375
-0.01318359375
0.0091552734375
-0.0098876953125
-0.022705078125
0.0179443359375
-0.0245361328125
0.0267333984375
-0.0113525390625
0.0084228515625
0.0054931640625
-0.0091552734375
0.0029296875
-0.0047607421875
-0.0040283203125
0.0018310546875
-0.003662109375
0.0018310546875
0.000732421875
-0.008056640625
-0.0054931640625
-0.00146484375
-0.0029296875
0.006591796875
0.0
0.00439453125
0.0029296875
0.0120849609375
0.01171875
0.0040283203125
0.0010986328125
0.0
0.01611328125
-0.017578125
-0.0032958984375
0.0010986328125
-0.03515625
0.04833984375
-0.009521484375
0.0263671875
0.002197265625
0.0054931640625
-0.01171875
0.0150146484375
-0.02197265625
0.024169921875
-0.029296875
0.0355224609375
-0.0267333984375
0.024169921875
-0.0069580078125
0.006591796875
0.0025634765625
0.005126953125
0.0003662109375
0.0069580078125
-0.0076904296875
0.01025390625
-0.027099609375
0.0150146484375
-0.01025390625
0.0087890625
0.01318359375
-0.002197265625
0.0098876953125
-0.0040283203125
0.0032958984375
-0.0029296875
-0.019775390625
0.029296875
0.073974609375
-0.134765625
0.0062255859375
-0.0164794921875
-0.0849609375
0.1505126953125
0.0010986328125
0.0054931640625
-0.002197265625
0.0087890625
-0.017578125
0.010986328125
-0.032958984375
0.0274658203125
-0.0260009765625
0.0296630859375
-0.0054931640625
0.005859375
0.010986328125
-0.006591796875
0.006591796875
-0.0084228515625
-0.015380859375
0.00439453125
-0.013916015625
0.0084228515625
0.005859375
-0.0032958984375
0.01171875
-0.006591796875
0.0069580078125
-0.00439453125
0.0025634765625
-0.0084228515625
-0.0029296875
-0.0010986328125
-0.003662109375
0.0076904296875
-0.0029296875
0.0029296875
0.0010986328125
-0.003662109375
0.063720703125
-0.112060546875
-0.0018310546875
-0.0157470703125
-0.069580078125
0.099609375
-0.0003662109375
-0.00439453125
0.0087890625
-0.0208740234375
0.0069580078125
-0.0208740234375
0.00146484375
-0.0054931640625
-0.0069580078125
0.0032958984375
-0.012451171875
-0.0062255859375
-0.0106201171875
-0.0146484375
0.0172119140625
-0.0274658203125
0.0245361328125
-0.0362548828125
0.010986328125
-0.024169921875
0.0029296875
-0.012451171875
-0.0003662109375
-0.0150146484375
0.01025390625
-0.013916015625
0.003662109375
0.0150146484375
0.0615234375
-0.113922119140625
0.019775390625
-0.03369140625
-0.04248046875
0.101470947265625
0.003662109375
-0.0029296875
-0.00146484375
-0.0003662109375
-0.00732421875
0.008056640625
-0.0164794921875
0.0010986328125
-0.0128173828125
-0.003662109375
0.0032958984375
-0.002197265625
0.0186767578125
-0.0087890625
0.01025390625
0.000732421875
-0.008056640625
0.0098876953125
0.0120849609375
-0.01318359375
0.0186767578125
-0.0186767578125
0.01025390625
-0.00146484375
0.00732421875
0.0040283203125
0.0029296875
0.0098876953125
-0.0062255859375
0.008056640625
-0.0062255859375
-0.000732421875
0.01611328125
-0.0223388671875
0.0003662109375
0.0172119140625
-0.00732421875
0.0443115234375
0.0018310546875
0.0
0.000732421875
0.0
-0.013916015625
0.02490234375
-0.0311279296875
0.0377197265625
-0.024169921875
0.029296875
-0.013916015625
0.0106201171875
0.015380859375
-0.01171875
0.0252685546875
-0.0150146484375
-0.01025390625
0.0076904296875
-0.02197265625
0.017578125
-0.006591796875
0.0106201171875
-0.00146484375
0.0032958984375
-0.006591796875
0.0208740234375
0.09375
-0.149810791015625
0.0062255859375
-0.0172119140625
-0.0963134765625
0.156768798828125
-0.0054931640625
0.0076904296875
-0.0054931640625
0.0106201171875
-0.013916015625
0.015380859375
-0.024169921875
0.0216064453125
-0.0208740234375
0.016845703125
-0.0018310546875
0.0029296875
0.010986328125
-0.0047607421875
0.0054931640625
-0.00439453125
-0.005126953125
-0.00146484375
-0.0087890625
0.0025634765625
0.0084228515625
-0.000732421875
0.0157470703125
-0.0062255859375
0.0098876953125
-0.00146484375
0.0069580078125
-0.0029296875
-0.0018310546875
-0.0025634765625
-0.0054931640625
0.0029296875
-0.00146484375
0.0032958984375
0.0084228515625
-0.0029296875
0.00732421875
-0.0084228515625
0.0025634765625
-0.0087890625
-0.0047607421875
-0.0076904296875
0.107666015625
-0.15380859375
0.01025390625
-0.010986328125
-0.0985107421875
0.12890625
0.01611328125
-0.0238037109375
0.002197265625
-0.01611328125
-0.018310546875
0.0062255859375
-0.005859375
0.0
0.0025634765625
-0.01025390625
-0.010986328125
-0.00146484375
-0.01318359375
-0.005126953125
0.0018310546875
-0.01318359375
0.0216064453125
-0.0252685546875
0.0128173828125
-0.019775390625
-0.0091552734375
-0.005126953125
-0.005126953125
-0.00146484375
0.00146484375
-0.000732421875
0.01318359375
-0.01904296875
0.017578125
-0.0186767578125
0.000732421875
0.0018310546875
0.013916015625
-0.028564453125
-0.01318359375
0.0135498046875
-0.0234375
0.0347900390625
0.0120849609375
-0.009521484375
-0.0018310546875
0.0054931640625
-0.0164794921875
0.0135498046875
-0.0245361328125
0.0234375
-0.012451171875
0.0025634765625
0.0164794921875
-0.0230712890625
0.01904296875
-0.0128173828125
0.0040283203125
0.00146484375
-0.0062255859375
0.0128173828125
-0.0142822265625
0.016845703125
0.0062255859375
0.003662109375
0.013916015625
0.000732421875
0.0010986328125
0.008056640625
0.0010986328125
0.0128173828125
-0.0106201171875
0.0179443359375
-0.0113525390625
0.010986328125
-0.0025634765625
0.0091552734375
0.0047607421875
0.0098876953125
0.0706787109375
-0.087158203125
-0.00146484375
0.0194091796875
-0.0611572265625
0.10693359375
0.008056640625
0.002197265625
0.0032958984375
0.0106201171875
-0.00732421875
0.01025390625
-0.0084228515625
0.00732421875
-0.0113525390625
0.016845703125
-0.0172119140625
0.01904296875
-0.0047607421875
0.0084228515625
0.009521484375
-0.0069580078125
0.0084228515625
-0.0113525390625
-0.00146484375
-0.0018310546875
-0.0076904296875
0.005859375
-0.0040283203125
0.008056640625
0.0135498046875
-0.005859375
0.0113525390625
-0.0120849609375
0.0069580078125
-0.0091552734375
0.0076904296875
-0.00146484375
-0.0025634765625
0.0047607421875
0.0003662109375
0.0025634765625
0.0
-0.000732421875
0.1014404296875
-0.1490478515625
-0.0076904296875
0.0054931640625
-0.1072998046875
0.154541015625
0.0076904296875
-0.0010986328125
-0.0040283203125
0.0069580078125
0.0054931640625
-0.0040283203125
-0.00146484375
-0.000732421875
-0.0230712890625
0.01904296875
-0.015380859375
0.006591796875
0.00146484375
-0.0047607421875
0.0157470703125
-0.0186767578125
0.0087890625
-0.0186767578125
-0.0069580078125
-0.01025390625
-0.0069580078125
-0.0135498046875
0.0087890625
-0.017578125
0.01611328125
-0.029296875
0.0150146484375
-0.0260009765625
0.006591796875
-0.01171875
0.0018310546875
-0.0120849609375
0.0040283203125
-0.0106201171875
-0.0047607421875
-0.00146484375
0.003662109375
-0.0069580078125
0.0029296875
-0.0098876953125
-0.0146484375
0.0120849609375
0.054931640625
-0.106231689453125
0.0091552734375
-0.0120849609375
-0.043212890625
0.091217041015625
0.008056640625
-0.015380859375
-0.008056640625
-0.0010986328125
-0.0157470703125
0.00439453125
-0.0216064453125
0.0135498046875
-0.0230712890625
0.005126953125
-0.000732421875
-0.0091552734375
0.012451171875
-0.0087890625
0.005859375
-0.005126953125
0.00146484375
0.0
-0.0025634765625
-0.000732421875
0.01318359375
-0.008056640625
0.0142822265625
-0.0040283203125
0.00732421875
0.0054931640625
0.003662109375
0.0054931640625
-0.009521484375
0.0098876953125
0.0
0.0040283203125
0.0289306640625
-0.02783203125
0.0076904296875
-0.0025634765625
-0.0216064453125
0.0450439453125
-0.0091552734375
0.0333251953125
-0.002197265625
0.0054931640625
0.005859375
0.0
-0.0047607421875
0.016845703125
-0.0234375
0.0303955078125
-0.024169921875
0.025634765625
-0.0179443359375
0.003662109375
0.01318359375
-0.0120849609375
0.0205078125
-0.0069580078125
-0.0018310546875
0.0069580078125
-0.009521484375
0.01318359375
-0.010986328125
0.01171875
0.008056640625
-0.000732421875
0.015380859375
-0.0054931640625
0.0054931640625
0.0032958984375
0.0003662109375
0.0087890625
-0.0069580078125
0.0142822265625
-0.0084228515625
0.0062255859375
-0.000732421875
0.0040283203125
-0.0010986328125
0.0106201171875
-0.0010986328125
0.005126953125
0.000732421875
0.0098876953125
-0.003662109375
0.0025634765625
-0.0010986328125
0.000732421875
0.1226806640625
-0.1593017578125
0.006591796875
0.006591796875
-0.122314453125
0.1827392578125
-0.008056640625
0.006591796875
-0.002197265625
0.002197265625
-0.00732421875
0.0146484375
-0.01025390625
0.017578125
-0.012451171875
0.013916015625
-0.0113525390625
0.0069580078125
0.0106201171875
-0.0164794921875
0.0216064453125
-0.024169921875
0.00732421875
-0.012451171875
-0.003662109375
-0.0142822265625
-0.00439453125
-0.01611328125
0.005859375
-0.0234375
0.013916015625
-0.0267333984375
0.008056640625
-0.0205078125
0.0076904296875
-0.019775390625
0.00146484375
-0.0172119140625
0.0029296875
-0.0234375
0.0047607421875
-0.01904296875
-0.005859375
0.0
-0.0062255859375
0.00439453125
-0.0069580078125
-0.0003662109375
-0.01171875
0.0010986328125
-0.0010986328125
-0.006591796875
0.0106201171875
-0.00732421875
-0.003662109375
0.0091552734375
0.1029052734375
-0.149444580078125
-0.0029296875
0.0025634765625
-0.113525390625
0.155303955078125
0.005859375
-0.0047607421875
0.0
0.0040283203125
-0.0113525390625
0.0084228515625
-0.015380859375
0.0076904296875
-0.00439453125
0.005126953125
0.003662109375
-0.0010986328125
0.0029296875
-0.00439453125
0.01611328125
-0.006591796875
0.005859375
-0.0032958984375
0.003662109375
-0.0029296875
0.0128173828125
-0.0135498046875
0.0087890625
-0.005859375
0.006591796875
0.005126953125
0.0047607421875
0.0047607421875
0.002197265625
0.0106201171875
0.0032958984375
0.0025634765625
0.0084228515625
-0.0029296875
0.0032958984375
0.0040283203125
0.01025390625
-0.005859375
0.0010986328125
-0.0098876953125
-0.0135498046875
0.024169921875
-0.0040283203125
0.0267333984375
-0.0010986328125
0.00439453125
-0.00146484375
0.00732421875
-0.0091552734375
0.0146484375
-0.0113525390625
0.022705078125
-0.009521484375
0.0146484375
-0.00732421875
0.0040283203125
0.0040283203125
0.00146484375
0.0091552734375
-0.000732421875
0.0091552734375
-0.003662109375
0.0047607421875
0.0040283203125
0.000732421875
0.009521484375
0.00146484375
0.003662109375
0.00439453125
0.0032958984375
-0.003662109375
0.0047607421875
-0.000732421875
0.0062255859375
-0.0032958984375
0.0113525390625
-0.0106201171875
0.01025390625
0.00146484375
-0.0003662109375
0.0849609375
-0.126708984375
-0.0032958984375
0.002197265625
-0.0889892578125
0.1329345703125
0.0025634765625
0.0098876953125
0.0032958984375
0.002197265625
0.000732421875
-0.0010986328125
-0.0032958984375
0.0003662109375
-0.0201416015625
0.0106201171875
-0.0157470703125
0.010986328125
0.002197265625
-0.002197265625
0.019775390625
-0.010986328125
0.018310546875
-0.017578125
0.0076904296875
-0.018310546875
0.0032958984375
-0.0150146484375
0.0010986328125
-0.0084228515625
0.008056640625
-0.008056640625
0.0076904296875
-0.009521484375
0.01171875
-0.021240234375
0.0076904296875
-0.025634765625
0.0010986328125
-0.0142822265625
0.0010986328125
-0.0120849609375
0.0
-0.0113525390625
0.005859375
-0.0106201171875
0.00439453125
-0.01171875
0.0
-0.01171875
-0.0010986328125
-0.01025390625
0.0010986328125
-0.0040283203125
0.0
-0.0062255859375
0.0867919921875
-0.131500244140625
0.00732421875
-0.00732421875
-0.0875244140625
0.119049072265625
-0.0032958984375
-0.003662109375
-0.002197265625
-0.009521484375
-0.009521484375
-0.00439453125
-0.019775390625
0.0087890625
-0.02490234375
0.01611328125
-0.02197265625
0.009521484375
-0.00732421875
-0.006591796875
0.0157470703125
-0.02197265625
0.01611328125
-0.0157470703125
0.00439453125
-0.0029296875
-0.006591796875
0.0003662109375
-0.0010986328125
0.0010986328125
0.003662109375
0.003662109375
0.0120849609375
-0.0076904296875
0.015380859375
-0.0087890625
0.003662109375
0.006591796875
-0.01025390625
0.02783203125
0.1197509765625
-0.161895751953125
0.0142822265625
-0.0120849609375
-0.11279296875
0.178741455078125
0.009521484375
0.0098876953125
-0.0003662109375
0.0069580078125
-0.0054931640625
0.008056640625
-0.009521484375
0.0087890625
-0.0135498046875
0.010986328125
-0.0029296875
0.01171875
0.005126953125
-0.0010986328125
0.0135498046875
-0.012451171875
0.0047607421875
-0.002197265625
0.0054931640625
0.0003662109375
0.0032958984375
0.002197265625
-0.00439453125
0.0084228515625
0.0091552734375
-0.0025634765625
0.006591796875
-0.00732421875
0.00146484375
0.0
0.0003662109375
0.006591796875
-0.0025634765625
0.0098876953125
-0.000732421875
0.0091552734375
0.0355224609375
-0.0531005859375
0.0025634765625
0.005859375
-0.03076171875
0.064453125
0.005859375
0.002197265625
-0.00146484375
0.008056640625
-0.01025390625
0.013916015625
-0.0087890625
0.0146484375
-0.00732421875
0.010986328125
-0.0054931640625
0.0
0.00732421875
-0.003662109375
0.015380859375
-0.01025390625
0.00439453125
-0.0029296875
-0.0040283203125
0.0087890625
-0.0032958984375
-0.0032958984375
0.0098876953125
-0.015380859375
0.0179443359375
-0.022705078125
0.01318359375
-0.018310546875
0.0047607421875
-0.00732421875
-0.0003662109375
-0.0098876953125
-0.0047607421875
-0.0120849609375
-0.0164794921875
0.0084228515625
0.12158203125
-0.189727783203125
0.0201416015625
-0.03515625
-0.110595703125
0.164825439453125
0.0029296875
-0.0128173828125
0.006591796875
-0.0274658203125
0.0032958984375
-0.0179443359375
-0.0157470703125
0.008056640625
-0.0260009765625
0.0135498046875
-0.0208740234375
0.0087890625
0.002197265625
-0.0029296875
0.0172119140625
-0.0157470703125
0.005859375
-0.0106201171875
-0.009521484375
-0.0029296875
-0.015380859375
-0.0025634765625
0.010986328125
-0.008056640625
0.0263671875
-0.0157470703125
0.0150146484375
-0.01611328125
0.0010986328125
-0.0120849609375
-0.01025390625
-0.002197265625
-0.0113525390625
0.0032958984375
-0.0025634765625
0.002197265625
0.005859375
0.002197265625
-0.0025634765625
-0.0018310546875
-0.0087890625
0.000732421875
-0.0135498046875
0.00439453125
-0.00439453125
0.005859375
0.0325927734375
-0.039215087890625
0.00439453125
0.0106201171875
-0.0615234375
0.067779541015625
-0.031494140625
0.0150146484375
0.0113525390625
0.005859375
-0.00732421875
0.024169921875
-0.0238037109375
0.03515625
-0.021240234375
0.0238037109375
-0.0084228515625
0.0098876953125
0.0047607421875
0.005126953125
0.0025634765625
0.0069580078125
-0.0003662109375
0.0142822265625
-0.00146484375
0.0172119140625
0.0010986328125
0.0084228515625
0.0047607421875
0.0003662109375
0.00439453125
-0.002197265625
0.005126953125
0.0032958984375
0.0076904296875
0.0062255859375
0.006591796875
0.0062255859375
-0.0157470703125
0.01611328125
0.1168212890625
-0.170684814453125
0.0062255859375
-0.0018310546875
-0.129638671875
0.186431884765625
-0.0087890625
0.01171875
-0.0164794921875
0.01025390625
-0.0325927734375
0.01611328125
-0.0443115234375
0.03369140625
-0.038818359375
0.0347900390625
-0.0281982421875
0.02197265625
0.000732421875
0.0054931640625
0.0194091796875
-0.01025390625
-0.0025634765625
-0.0076904296875
-0.019775390625
0.0069580078125
-0.009521484375
0.009521484375
0.0076904296875
0.000732421875
0.0069580078125
0.00146484375
0.00732421875
-0.009521484375
0.01318359375
-0.019775390625
0.0106201171875
-0.0157470703125
0.0889892578125
-0.128173828125
0.0164794921875
-0.008056640625
-0.0670166015625
0.1025390625
0.01025390625
-0.016845703125
0.0208740234375
-0.013916015625
0.017578125
-0.012451171875
0.0106201171875
-0.005126953125
0.0069580078125
-0.008056640625
0.01611328125
-0.0260009765625
0.0263671875
-0.03662109375
0.03515625
-0.03955078125
0.0281982421875
-0.025634765625
0.0172119140625
-0.0201416015625
-0.00146484375
0.00146484375
-0.022705078125
0.0263671875
-0.009521484375
0.01904296875
-0.002197265625
0.0230712890625
0.1160888671875
-0.141754150390625
0.0208740234375
-0.01025390625
-0.1285400390625
0.182769775390625
-0.044677734375
0.0545654296875
-0.01025390625
0.02197265625
0.0087890625
0.0150146484375
0.0091552734375
0.022705078125
0.00439453125
0.018310546875
-0.021240234375
0.031494140625
-0.0205078125
0.031494140625
-0.0003662109375
0.0179443359375
0.0186767578125
-0.0010986328125
0.016845703125
-0.00732421875
-0.02783203125
0.0208740234375
-0.027099609375
0.0098876953125
-0.01611328125
0.00732421875
-0.0245361328125
0.0208740234375
-0.029296875
0.008056640625
-0.02490234375
-0.005859375
-0.0025634765625
-0.009521484375
0.0091552734375
0.0003662109375
0.0941162109375
-0.101806640625
0.0706787109375
-0.0439453125
0.005126953125
0.0560302734375
0.000732421875
0.0260009765625
-0.0391845703125
0.0465087890625
-0.00146484375
0.0289306640625
0.0362548828125
0.0234375
0.040283203125
0.011016845703125
0.0062255859375
0.011383056640625
-0.0457763671875
0.0142822265625
-0.0721435546875
0.0135498046875
-0.0003662109375
0.017578125
0.082763671875
0.0150146484375
0.0450439453125
0.013916015625
0.00146484375
0.015380859375
0.0164794921875
0.008056640625
0.02490234375
0.0029296875
0.0135498046875
0.003662109375
0.0157470703125
-0.0025634765625
0.0142822265625
-0.0062255859375
0.0186767578125
-0.0076904296875
0.06884765625
-0.0106201171875
0.110626220703125
-0.017578125
0.073272705078125
-0.0157470703125
0.008056640625
-0.0069580078125
0.00146484375
-0.009521484375
-0.0010986328125
-0.0084228515625
-0.0252685546875
-0.00146484375
-0.0303955078125
-0.0025634765625
0.0501708984375
-0.121612548828125
-0.005859375
-0.00732421875
-0.0552978515625
0.099609375
0.040283203125
-0.021270751953125
0.0157470703125
-0.010986328125
-0.0135498046875
-0.0029296875
-0.0146484375
-0.0120849609375
-0.01611328125
-0.0164794921875
-0.0230712890625
0.0025634765625
-0.01611328125
0.0076904296875
0.0084228515625
-0.0040283203125
0.010986328125
-0.01025390625
0.0120849609375
-0.0164794921875
-0.0062255859375
-0.013916015625
-0.036651611328125
-0.0087890625
-0.028961181640625
0.0
0.021270751953125
-0.0040283203125
0.048736572265625
-0.0135498046875
0.0091552734375
-0.0084228515625
-0.0142822265625
-0.0098876953125
0.0263671875
-0.0703125
-0.029327392578125
0.0098876953125
-0.069976806640625
0.0699462890625
-0.0025634765625
-0.005859375
0.031524658203125
-0.0091552734375
0.091217041015625
-0.01171875
0.081298828125
0.0
0.0655517578125
0.012451171875
0.0113525390625
0.0098876953125
-0.078369140625
-0.0003662109375
-0.041748046875
-0.0054931640625
0.0699462890625
-0.0003662109375
0.081298828125
0.0018310546875
-0.0194091796875
0.0076904296875
-0.0179443359375
0.01611328125
0.017578125
0.0113525390625
-0.0186767578125
0.0274658203125
-0.0340576171875
0.03369140625
-0.0205078125
0.01318359375
-0.0362548828125
0.020904541015625
-0.0494384765625
0.029327392578125
0.01025390625
-0.067779541015625
-0.058990478515625
0.0531005859375
-0.123443603515625
0.154571533203125
-0.0538330078125
0.041015625
-0.037353515625
0.013916015625
-0.0208740234375
0.0025634765625
-0.0003662109375
-0.0146484375
-0.0040283203125
-0.01171875
-0.028564453125
0.017578125
-0.0238037109375
0.00732421875
-0.0172119140625
0.0032958984375
-0.0234375
0.0084228515625
-0.0369873046875
0.0106201171875
-0.031494140625
0.0003662109375
0.01025390625
-0.0267333984375
0.0113525390625
-0.01611328125
-0.01318359375
0.00146484375
-0.0084228515625
-0.02783203125
-0.003662109375
-0.0303955078125
0.0018310546875
-0.022705078125
0.0252685546875
-0.084991455078125
-0.0010986328125
-0.0150146484375
-0.024169921875
0.049102783203125
-0.0003662109375
-0.0091552734375
0.0010986328125
-0.0186767578125
-0.0120849609375
-0.017578125
-0.029296875
0.0025634765625
-0.0340576171875
0.013916015625
-0.0128173828125
-0.005126953125
0.0142822265625
-0.028594970703125
0.0076904296875
-0.017242431640625
-0.0091552734375
-0.00146484375
-0.0194091796875
0.013580322265625
-0.0172119140625
0.014678955078125
-0.0208740234375
0.0120849609375
-0.02490234375
0.0194091796875
-0.0260009765625
0.0208740234375
0.0238037109375
-0.040313720703125
-0.021270751953125
0.0084228515625
-0.079498291015625
0.082794189453125
-0.0325927734375
0.0333251953125
-0.0322265625
0.029296875
-0.0545654296875
0.0479736328125
-0.066650390625
0.0479736328125
-0.068115234375
0.0509033203125
-0.0670166015625
0.057861328125
-0.0472412109375
0.0340576171875
-0.0120849609375
-0.000732421875
0.021240234375
-0.0333251953125
0.03076171875
-0.0552978515625
0.034423828125
-0.0589599609375
0.0552978515625
-0.06005859375
0.06298828125
-0.062255859375
0.04833984375
-0.0604248046875
0.046142578125
-0.064117431640625
0.0531005859375
-0.067047119140625
0.044677734375
-0.06005859375
0.032623291015625
-0.0413818359375
0.048370361328125
-0.041748046875
0.128173828125
-0.158203125
0.03955078125
-0.0322265625
-0.0582275390625
0.1014404296875
0.0172119140625
-0.005859375
0.017578125
-0.0032958984375
-0.0040283203125
0.0069580078125
-0.013916015625
0.01318359375
-0.0234375
0.0179443359375
-0.01318359375
-0.00146484375
-0.0010986328125
-0.010986328125
0.0076904296875
0.00146484375
0.0076904296875
0.00146484375
-0.000732421875
-0.0025634765625
0.013916015625
-0.009521484375
0.0172119140625
-0.0157470703125
0.018310546875
-0.02197265625
0.003662109375
-0.0120849609375
-0.0201416015625
0.005126953125
-0.021240234375
0.008056640625
-0.0146484375
0.0120849609375
-0.006591796875
0.0062255859375
0.046142578125
-0.0703125
-0.02197265625
0.0267333984375
-0.0849609375
0.11572265625
-0.0201416015625
0.0274658203125
-0.01904296875
0.0146484375
-0.0157470703125
0.0120849609375
-0.0186767578125
0.0223388671875
-0.024200439453125
0.02490234375
-0.021270751953125
0.018310546875
-0.017578125
0.0128173828125
-0.0069580078125
0.006591796875
-0.005126953125
0.0029296875
-0.0032958984375
0.006591796875
-0.0054931640625
0.006591796875
-0.0062255859375
0.008056640625
0.002197265625
0.0069580078125
0.006591796875
-0.0029296875
0.00732421875
-0.00732421875
0.006591796875
-0.008056640625
0.01611328125
-0.0076904296875
0.01904296875
-0.0150146484375
0.014312744140625
-0.01904296875
0.013946533203125
-0.0084228515625
0.021240234375
-0.01171875
0.017578125
-0.0172119140625
0.01025390625
-0.01025390625
0.0098876953125
-0.006591796875
0.00439453125
-0.005126953125
0.0142822265625
-0.006591796875
0.0150146484375
-0.008056640625
0.005859375
-0.0135498046875
0.0091552734375
-0.017578125
0.0098876953125
-0.016845703125
0.01025390625
-0.013916015625
0.01025390625
0.005126953125
0.0966796875
-0.162994384765625
0.017578125
-0.03369140625
-0.0281982421875
0.102569580078125
0.060791015625
-0.059326171875
0.022705078125
-0.0281982421875
0.01171875
-0.0091552734375
-0.000732421875
-0.0003662109375
-0.0054931640625
0.0010986328125
-0.0106201171875
-0.00146484375
0.0098876953125
-0.019775390625
0.0303955078125
-0.0303955078125
0.0238037109375
-0.0234375
0.005126953125
-0.01171875
-0.0047607421875
0.0
0.0087890625
-0.005126953125
0.017578125
-0.0106201171875
0.01025390625
-0.0084228515625
-0.0040283203125
-0.000732421875
-0.0010986328125
0.0025634765625
0.0
0.00439453125
-0.0029296875
0.009521484375
-0.0003662109375
0.00146484375
0.000732421875
-0.00439453125
-0.00146484375
0.0054931640625
-0.005126953125
0.0062255859375
0.00146484375
0.0032958984375
0.005859375
0.0029296875
0.0047607421875
0.0018310546875
0.0029296875
0.0025634765625
-0.0003662109375
0.0018310546875
-0.00146484375
-0.005859375
0.002197265625
-0.006591796875
0.0106201171875
-0.0032958984375
0.0010986328125
0.0142822265625
0.134796142578125
-0.181304931640625
0.0186767578125
-0.0146484375
-0.123077392578125
0.193023681640625
-0.0040283203125
0.013916015625
-0.0076904296875
0.0087890625
-0.01025390625
0.008056640625
-0.0113525390625
0.010986328125
-0.0146484375
0.017578125
-0.0223388671875
0.016845703125
-0.0128173828125
0.0032958984375
0.0084228515625
-0.0076904296875
0.013916015625
-0.0054931640625
0.00146484375
0.006591796875
-0.009521484375
0.005859375
-0.0062255859375
0.0003662109375
0.0003662109375
-0.008056640625
0.0084228515625
-0.008056640625
0.0018310546875
0.0047607421875
0.027099609375
-0.0362548828125
-0.017578125
0.009521484375
-0.052001953125
0.0626220703125
-0.005859375
0.021240234375
-0.0062255859375
0.0146484375
-0.00732421875
0.0113525390625
-0.02490234375
0.0164794921875
-0.02783203125
0.017578125
-0.0172119140625
0.01611328125
-0.0018310546875
0.00732421875
0.0186767578125
-0.0091552734375
-0.0047607421875
0.0
-0.0201416015625
0.0150146484375
-0.0062255859375
0.006591796875
0.0003662109375
0.00146484375
-0.0054931640625
0.0047607421875
-0.01025390625
0.002197265625
-0.00146484375
0.000732421875
-0.000732421875
0.002197265625
0.013916015625
-0.015380859375
0.06298828125
-0.08056640625
0.0164794921875
-0.025634765625
-0.0238037109375
0.0380859375
0.021240234375
-0.006591796875
0.0113525390625
-0.0084228515625
-0.0029296875
-0.0003662109375
-0.0091552734375
0.0062255859375
-0.018310546875
0.013916015625
-0.013916015625
0.01171875
0.0003662109375
-0.00732421875
0.0157470703125
-0.018310546875
0.01025390625
-0.0091552734375
0.0047607421875
-0.005126953125
0.0069580078125
-0.0025634765625
-0.0047607421875
0.0054931640625
-0.0003662109375
-0.00439453125
0.0025634765625
-0.0047607421875
-0.00146484375
0.0054931640625
-0.00732421875
0.0076904296875
-0.01318359375
0.009521484375
0.0673828125
-0.102935791015625
-0.0146484375
0.0113525390625
-0.085693359375
0.117218017578125
0.0010986328125
0.0
0.0047607421875
-0.00146484375
-0.0032958984375
-0.00146484375
-0.021240234375
0.01318359375
-0.0347900390625
0.0238037109375
-0.0238037109375
0.015380859375
-0.005126953125
0.0040283203125
-0.005126953125
0.00439453125
-0.0076904296875
0.0087890625
-0.002197265625
-0.0113525390625
0.0
-0.009521484375
-0.0087890625
0.0120849609375
-0.0069580078125
0.009521484375
0.0582275390625
-0.0802001953125
-0.0164794921875
0.0157470703125
-0.0582275390625
0.0904541015625
0.016845703125
-0.006591796875
0.0069580078125
0.0010986328125
-0.0040283203125
0.0029296875
-0.0205078125
0.0091552734375
-0.0223388671875
0.0120849609375
-0.0120849609375
0.005859375
0.015380859375
-0.0135498046875
0.025634765625
-0.021240234375
0.012451171875
-0.0091552734375
0.005126953125
-0.005859375
0.006591796875
-0.00732421875
0.0150146484375
-0.0157470703125
0.021240234375
-0.0223388671875
0.0062255859375
-0.0069580078125
-0.008056640625
0.0032958984375
-0.0054931640625
0.0029296875
0.0
0.002197265625
-0.002197265625
0.01171875
0.1171875
-0.178741455078125
0.0091552734375
-0.00732421875
-0.116455078125
0.184234619140625
0.0054931640625
-0.0087890625
0.0146484375
-0.0172119140625
0.0087890625
-0.003662109375
0.0032958984375
0.0054931640625
-0.01318359375
0.0054931640625
-0.0150146484375
-0.0029296875
0.018310546875
-0.0260009765625
0.05126953125
-0.0421142578125
0.0377197265625
-0.03515625
0.005859375
-0.01611328125
-0.0135498046875
-0.00439453125
-0.008056640625
-0.0062255859375
0.0120849609375
-0.008056640625
0.0087890625
-0.00732421875
0.0032958984375
-0.0054931640625
-0.005859375
-0.000732421875
-0.0146484375
-0.002197265625
-0.0025634765625
0.0018310546875
0.00146484375
0.0047607421875
-0.0164794921875
0.029296875
0.103271484375
-0.167022705078125
-0.0018310546875
-0.0098876953125
-0.1226806640625
0.193389892578125
0.0
0.01025390625
-0.005859375
0.0098876953125
-0.017578125
0.0157470703125
-0.0281982421875
0.021240234375
-0.0274658203125
0.02197265625
0.000732421875
0.00732421875
0.0172119140625
-0.015380859375
0.0186767578125
-0.0230712890625
0.010986328125
-0.012451171875
-0.0032958984375
0.002197265625
-0.002197265625
0.01025390625
0.006591796875
0.0018310546875
0.0113525390625
-0.0128173828125
0.003662109375
-0.006591796875
-0.0040283203125
0.0047607421875
-0.0113525390625
0.0087890625
-0.0062255859375
0.01318359375
-0.01025390625
0.012451171875
-0.01318359375
0.0032958984375
-0.00732421875
0.0084228515625
0.1036376953125
-0.147979736328125
-0.006591796875
0.0091552734375
-0.11865234375
0.172515869140625
0.0076904296875
0.003662109375
0.0047607421875
0.002197265625
-0.0076904296875
0.01025390625
-0.019775390625
0.0146484375
-0.0186767578125
0.0069580078125
0.009521484375
-0.0076904296875
0.02490234375
-0.0216064453125
0.03369140625
-0.031494140625
0.030029296875
-0.029296875
0.006591796875
-0.0135498046875
0.0040283203125
-0.000732421875
0.0186767578125
-0.008056640625
0.01904296875
-0.0150146484375
0.012451171875
-0.0106201171875
0.0054931640625
-0.0025634765625
-0.0047607421875
0.00439453125
-0.003662109375
0.02490234375
0.069580078125
-0.123443603515625
0.01171875
-0.0252685546875
-0.0538330078125
0.117584228515625
-0.00146484375
0.0018310546875
-0.0098876953125
0.0142822265625
-0.0032958984375
0.0113525390625
-0.005859375
0.01025390625
-0.0157470703125
0.0120849609375
-0.0106201171875
0.00439453125
-0.000732421875
-0.0025634765625
0.0201416015625
-0.013916015625
0.0164794921875
-0.0076904296875
-0.00146484375
0.002197265625
0.000732421875
0.0025634765625
-0.018310546875
0.008056640625
-0.0142822265625
0.0091552734375
0.0003662109375
0.01025390625
-0.00439453125
0.0098876953125
-0.0029296875
0.0098876953125
-0.00732421875
0.0135498046875
-0.0113525390625
0.0069580078125
-0.0186767578125
0.0113525390625
-0.01318359375
0.018310546875
-0.00439453125
0.0106201171875
-0.0054931640625
0.0062255859375
-0.008056640625
0.005126953125
-0.0069580078125
0.005126953125
0.1080322265625
-0.1527099609375
-0.0087890625
0.0091552734375
-0.1201171875
0.17138671875
0.003662109375
0.006591796875
0.0054931640625
0.00146484375
-0.024169921875
0.017578125
-0.029296875
0.0245361328125
-0.0205078125
0.0205078125
-0.0146484375
0.012451171875
0.0003662109375
-0.0032958984375
0.000732421875
-0.0128173828125
0.009521484375
-0.0128173828125
0.0113525390625
-0.00439453125
0.0069580078125
0.00439453125
0.005126953125
0.0
0.0029296875
-0.006591796875
0.00146484375
-0.00439453125
-0.0003662109375
0.0003662109375
0.0
0.0062255859375
-0.005859375
0.008056640625
-0.0069580078125
0.002197265625
-0.0047607421875
-0.0025634765625
0.0816650390625
-0.1160888671875
-0.01171875
0.019775390625
-0.099609375
0.139892578125
0.0040283203125
0.0
0.00732421875
-0.00732421875
-0.0003662109375
-0.0010986328125
-0.0087890625
0.00439453125
-0.0135498046875
0.0062255859375
-0.005859375
0.0003662109375
0.0076904296875
-0.0113525390625
0.01611328125
-0.017578125
0.0069580078125
-0.0113525390625
0.0032958984375
-0.003662109375
0.00439453125
0.0
0.009521484375
-0.0010986328125
0.0142822265625
-0.0087890625
0.0157470703125
-0.0106201171875
0.006591796875
-0.0062255859375
0.00146484375
-0.0054931640625
0.008056640625
-0.005126953125
0.000732421875
-0.008056640625
0.0062255859375
-0.0062255859375
0.00439453125
0.00439453125
0.126708984375
-0.186065673828125
0.0040283203125
-0.006591796875
-0.1204833984375
0.184234619140625
0.0087890625
-0.0010986328125
0.0029296875
0.002197265625
-0.0135498046875
0.0150146484375
-0.0201416015625
0.015380859375
-0.0087890625
0.006591796875
-0.0084228515625
0.0003662109375
0.0076904296875
-0.01171875
0.021240234375
-0.015380859375
0.000732421875
-0.0087890625
-0.0018310546875
-0.006591796875
0.0098876953125
-0.006591796875
0.0113525390625
-0.0091552734375
0.005859375
-0.012451171875
0.00439453125
-0.0091552734375
0.002197265625
-0.005126953125
0.00439453125
-0.0047607421875
0.0076904296875
-0.0076904296875
0.0003662109375
-0.0091552734375
-0.0010986328125
-0.003662109375
-0.002197265625
0.0
-0.00732421875
0.0128173828125
0.1263427734375
-0.185333251953125
0.010986328125
-0.0113525390625
-0.1259765625
0.191192626953125
0.0032958984375
-0.0032958984375
0.0003662109375
-0.0032958984375
-0.01318359375
0.010986328125
-0.01318359375
0.015380859375
-0.0201416015625
0.0146484375
-0.0062255859375
0.000732421875
0.009521484375
-0.012451171875
0.012451171875
-0.0098876953125
0.0054931640625
0.000732421875
-0.0018310546875
0.0032958984375
0.0091552734375
-0.000732421875
0.0076904296875
-0.0032958984375
0.005126953125
-0.0054931640625
0.0040283203125
0.0029296875
-0.002197265625
0.000732421875
0.0003662109375
-0.0029296875
0.00439453125
0.0003662109375
0.000732421875
-0.00146484375
-0.0062255859375
0.005859375
-0.0047607421875
0.0047607421875
-0.0047607421875
0.0040283203125
0.0
0.0087890625
-0.005859375
0.0098876953125
-0.0098876953125
0.0084228515625
-0.0076904296875
0.017578125
0.0399169921875
-0.0791015625
0.0087890625
-0.005859375
-0.0428466796875
0.0889892578125
0.0003662109375
-0.002197265625
0.0018310546875
-0.0018310546875
-0.0040283203125
0.0069580078125
-0.01611328125
0.018310546875
-0.0164794921875
0.0084228515625
-0.0047607421875
-0.0047607421875
0.0054931640625
-0.006591796875
0.017578125
-0.0098876953125
0.00732421875
-0.00439453125
-0.0142822265625
0.01171875
-0.0076904296875
0.006591796875
0.0135498046875
-0.0087890625
0.0120849609375
-0.006591796875
0.0098876953125
-0.010986328125
0.005126953125
-0.0003662109375
0.00146484375
-0.002197265625
0.0087890625
-0.0084228515625
0.005859375
-0.0018310546875
0.00146484375
-0.002197265625
-0.0076904296875
0.0032958984375
-0.0120849609375
0.005859375
0.0032958984375
0.0010986328125
0.0047607421875
0.0054931640625
0.1336669921875
-0.186431884765625
-0.00439453125
-0.0018310546875
-0.1351318359375
0.186798095703125
0.0084228515625
-0.00439453125
0.0091552734375
0.0003662109375
-0.00146484375
0.0040283203125
-0.0142822265625
0.0135498046875
-0.021240234375
0.017578125
-0.0087890625
-0.0047607421875
0.0120849609375
-0.0186767578125
0.0164794921875
-0.01318359375
0.0120849609375
-0.0069580078125
-0.0062255859375
0.0010986328125
0.00439453125
-0.0142822265625
0.0179443359375
-0.016845703125
0.00732421875
-0.009521484375
0.0087890625
-0.0142822265625
0.01025390625
-0.01171875
-0.0087890625
0.0003662109375
-0.0032958984375
-0.0076904296875
0.0146484375
-0.0146484375
0.0047607421875
-0.0054931640625
0.0029296875
-0.005126953125
0.0029296875
0.000732421875
-0.015380859375
0.008056640625
-0.013916015625
0.016845703125
0.0845947265625
-0.142852783203125
0.015380859375
-0.019775390625
-0.071044921875
0.138824462890625
-0.00146484375
0.0069580078125
-0.0146484375
0.0157470703125
-0.00732421875
0.0054931640625
0.0018310546875
-0.0003662109375
-0.018310546875
0.01318359375
-0.012451171875
0.0062255859375
-0.00146484375
-0.002197265625
0.0029296875
0.0032958984375
0.016845703125
-0.009521484375
0.0146484375
-0.0157470703125
0.0003662109375
-0.002197265625
-0.00439453125
-0.0032958984375
-0.0018310546875
0.0106201171875
-0.005859375
0.02490234375
0.1201171875
-0.175445556640625
0.009521484375
-0.0150146484375
-0.122314453125
0.178009033203125
-0.0084228515625
0.0069580078125
-0.01025390625
0.0047607421875
-0.0032958984375
0.0150146484375
-0.0069580078125
0.02197265625
-0.015380859375
0.0128173828125
-0.0098876953125
0.0018310546875
-0.0076904296875
0.0018310546875
0.0084228515625
-0.0054931640625
0.018310546875
-0.00732421875
0.0062255859375
0.003662109375
0.0018310546875
-0.0025634765625
0.006591796875
-0.0025634765625
-0.00439453125
-0.0029296875
-0.00439453125
-0.0010986328125
0.00732421875
0.0010986328125
0.0040283203125
-0.0018310546875
0.0
-0.00146484375
0.0970458984375
-0.150146484375
-0.009521484375
0.0106201171875
-0.10400390625
0.157470703125
0.013916015625
-0.0040283203125
0.0047607421875
0.0
-0.00732421875
0.0047607421875
-0.019775390625
0.015380859375
-0.022705078125
0.021240234375
-0.0054931640625
0.00439453125
0.006591796875
-0.0091552734375
0.021240234375
-0.01611328125
0.009521484375
-0.0087890625
-0.0029296875
0.0018310546875
0.002197265625
-0.002197265625
0.008056640625
-0.0032958984375
0.005859375
-0.0018310546875
0.003662109375
-0.00439453125
0.0084228515625
-0.0032958984375
0.0032958984375
-0.0025634765625
0.0032958984375
-0.00439453125
0.0029296875
-0.002197265625
0.003662109375
-0.0029296875
-0.00146484375
-0.0054931640625
-0.0062255859375
-0.0029296875
-0.003662109375
-0.005859375
-0.0025634765625
-0.0098876953125
0.0091552734375
-0.008056640625
0.104736328125
-0.149444580078125
0.002197265625
-0.0062255859375
-0.0955810546875
0.141754150390625
0.0113525390625
-0.0091552734375
0.021240234375
-0.0205078125
0.0120849609375
-0.0120849609375
0.002197265625
-0.00732421875
0.008056640625
-0.022705078125
0.0303955078125
-0.034423828125
0.0384521484375
-0.0355224609375
0.04541015625
-0.047607421875
0.046875
-0.052734375
0.038818359375
-0.047271728515625
0.0303955078125
-0.030059814453125
0.021270751953125
-0.0128173828125
0.020172119140625
-0.0157470703125
0.01171875
-0.01611328125
0.0025634765625
-0.0010986328125
-0.00439453125
0.0076904296875
-0.003662109375
0.0076904296875
-0.003662109375
0.0018310546875
-0.003662109375
-0.009521484375
0.0040283203125
0.000732421875
-0.0084228515625
0.012451171875
-0.012115478515625
0.01171875
-0.012847900390625
0.00732421875
-0.0032958984375
-0.005126953125
0.0062255859375
-0.0062255859375
-0.00439453125
0.0091552734375
-0.0281982421875
0.043975830078125
0.053863525390625
-0.1124267578125
-0.0003662109375
-0.0018310546875
-0.089752197265625
0.150177001953125
-0.0098876953125
0.0135498046875
-0.01171875
0.0186767578125
-0.01904296875
0.021240234375
-0.0179443359375
0.01904296875
-0.0164794921875
0.012451171875
-0.010986328125
0.009521484375
-0.0032958984375
0.0047607421875
0.00732421875
0.0040283203125
-0.002197265625
0.01171875
-0.0135498046875
0.0194091796875
-0.0179443359375
0.0201416015625
-0.0098876953125
0.0106201171875
0.0047607421875
0.0047607421875
0.0
0.005859375
-0.0106201171875
0.016845703125
-0.03076171875
0.029296875
-0.031494140625
0.0267333984375
-0.025634765625
0.02490234375
0.02490234375
-0.0384521484375
-0.02490234375
0.025634765625
-0.0816650390625
0.0985107421875
-0.02197265625
0.030029296875
-0.0106201171875
0.013916015625
-0.01904296875
0.0172119140625
-0.0263671875
0.0164794921875
-0.0091552734375
0.0025634765625
-0.0047607421875
0.0010986328125
-0.0032958984375
-0.002197265625
0.0146484375
-0.0150146484375
0.0179443359375
-0.017578125
0.0135498046875
-0.0091552734375
0.0062255859375
-0.0084228515625
0.00439453125
-0.0120849609375
0.0120849609375
-0.0194091796875
0.0120849609375
-0.0186767578125
0.0018310546875
-0.0106201171875
0.0010986328125
-0.0128173828125
0.0439453125
-0.0523681640625
0.01318359375
-0.0340576171875
-0.03076171875
0.031494140625
-0.00439453125
0.016845703125
0.0047607421875
-0.009521484375
0.00146484375
-0.0098876953125
-0.01171875
-0.0018310546875
-0.0238037109375
0.0091552734375
-0.0179443359375
0.003662109375
0.01171875
-0.0120849609375
0.0223388671875
-0.0205078125
0.0146484375
-0.0186767578125
0.0
-0.009521484375
-0.002197265625
-0.0029296875
0.0098876953125
-0.0010986328125
0.0054931640625
0.002197265625
0.0010986328125
0.000732421875
-0.0054931640625
-0.00146484375
-0.0069580078125
-0.0003662109375
0.00146484375
0.0025634765625
0.002197265625
0.0069580078125
-0.0032958984375
0.0054931640625
-0.008056640625
0.00439453125
-0.0018310546875
-0.00146484375
0.0040283203125
-0.00146484375
0.0025634765625
0.005126953125
-0.0062255859375
0.00732421875
-0.0157470703125
0.0069580078125
-0.009521484375
0.005859375
0.0010986328125
0.00732421875
0.0018310546875
0.01171875
-0.0106201171875
0.0146484375
-0.01904296875
0.01171875
-0.010986328125
0.0113525390625
-0.0003662109375
0.01171875
-0.01171875
0.018310546875
-0.016845703125
0.0205078125
-0.0113525390625
0.0087890625
-0.0054931640625
-0.0010986328125
0.0069580078125
-0.005126953125
0.00146484375
-0.0047607421875
0.122314453125
-0.17578125
0.0054931640625
-0.0003662109375
-0.116455078125
0.17724609375
0.008056640625
-0.002197265625
0.0069580078125
-0.0025634765625
-0.0062255859375
0.0113525390625
-0.01611328125
0.0157470703125
-0.0128173828125
0.0087890625
-0.0062255859375
0.0003662109375
0.00732421875
-0.0054931640625
0.0223388671875
-0.0135498046875
0.0223388671875
-0.0150146484375
0.0062255859375
-0.01171875
0.0025634765625
-0.005859375
0.0135498046875
-0.005126953125
0.01318359375
-0.002197265625
0.00439453125
0.003662109375
0.0087890625
-0.012451171875
0.005859375
-0.013916015625
-0.003662109375
-0.002197265625
-0.0010986328125
0.0010986328125
-0.0047607421875
0.005126953125
-0.00146484375
-0.0032958984375
0.0047607421875
-0.006591796875
-0.003662109375
0.00146484375
0.113525390625
-0.165924072265625
0.0069580078125
-0.010986328125
-0.1109619140625
0.160797119140625
0.0010986328125
0.00146484375
0.0029296875
-0.0087890625
0.0032958984375
-0.0128173828125
-0.0003662109375
-0.005859375
-0.0032958984375
0.005859375
-0.0157470703125
0.0040283203125
-0.0069580078125
-0.0062255859375
0.0157470703125
-0.0113525390625
0.0164794921875
-0.01171875
0.01318359375
-0.0091552734375
0.0120849609375
-0.01171875
0.0087890625
-0.0179443359375
0.0120849609375
-0.0179443359375
0.0318603515625
-0.0238037109375
0.044677734375
-0.03662109375
0.064453125
-0.05859375
0.0703125
-0.075103759765625
0.127838134765625
-0.171417236328125
0.050201416015625
-0.047607421875
-0.0325927734375
0.072509765625
0.0347900390625
-0.0252685546875
0.0245361328125
-0.0208740234375
-0.0010986328125
-0.003662109375
0.0029296875
-0.0025634765625
0.005126953125
0.0
-0.01025390625
0.0076904296875
0.00146484375
-0.0040283203125
0.005126953125
0.0029296875
0.0018310546875
-0.00146484375
0.00146484375
-0.0010986328125
-0.0142822265625
0.01318359375
-0.0146484375
0.018310546875
-0.0201416015625
0.028564453125
-0.0164794921875
0.0120849609375
-0.0010986328125
0.0010986328125
-0.012451171875
0.0150146484375
-0.0091552734375
0.016845703125
-0.015777587890625
0.0172119140625
-0.017242431640625
0.015380859375
-0.025634765625
0.035186767578125
0.100738525390625
-0.15966796875
0.0
-0.0010986328125
-0.131134033203125
0.193023681640625
-0.00732421875
0.0146484375
-0.0164794921875
0.0164794921875
-0.0230712890625
0.0216064453125
-0.030029296875
0.0274658203125
-0.0245361328125
0.0238037109375
-0.01318359375
0.01611328125
-0.013916015625
0.005859375
-0.0032958984375
0.0025634765625
0.0
-0.0003662109375
-0.0032958984375
0.0091552734375
-0.0179443359375
0.02783203125
-0.032958984375
0.0340576171875
-0.0333251953125
0.0322265625
-0.0201416015625
0.0245361328125
-0.01611328125
0.0252685546875
-0.022705078125
0.032958984375
-0.02783203125
0.0333251953125
-0.0347900390625
0.028564453125
-0.01171875
0.005859375
0.005126953125
-0.0311279296875
-0.01904296875
0.022705078125
-0.021240234375
0.0516357421875
-0.00732421875
0.0098876953125
-0.01171875
0.0146484375
-0.012451171875
0.0135498046875
-0.006591796875
0.0047607421875
-0.005859375
-0.0040283203125
-0.00146484375
-0.009521484375
0.015380859375
-0.0194091796875
0.028564453125
-0.0216064453125
0.0208740234375
-0.013916015625
0.0069580078125
-0.0084228515625
-0.00439453125
0.0003662109375
-0.003662109375
0.0
0.01025390625
-0.003662109375
0.008056640625
-0.0047607421875
0.0062255859375
-0.01025390625
0.005126953125
-0.01025390625
0.00146484375
-0.0040283203125
0.017578125
-0.0263671875
0.0087890625
-0.0362548828125
-0.02490234375
0.02783203125
-0.0238037109375
0.038818359375
-0.006591796875
0.002197265625
-0.0135498046875
0.0084228515625
-0.0172119140625
0.013916015625
-0.03955078125
0.0380859375
-0.062652587890625
0.05126953125
-0.046539306640625
0.028564453125
-0.030029296875
0.015380859375
-0.0230712890625
0.024932861328125
-0.01318359375
0.019805908203125
-0.008056640625
0.013916015625
-0.02783203125
0.0234375
-0.0303955078125
0.018310546875
-0.0029296875
0.0047607421875
-0.0091552734375
0.01904296875
-0.0318603515625
0.041748046875
-0.03662109375
0.0355224609375
0.035888671875
-0.0728759765625
-0.093017578125
0.0941162109375
-0.236968994140625
0.279052734375
-0.168853759765625
0.178009033203125
-0.1036376953125
0.104034423828125
-0.047607421875
0.0479736328125
-0.0838623046875
0.076171875
-0.0655517578125
0.0604248046875
0.0194091796875
-0.0267333984375
0.06005859375
-0.066650390625
0.0531005859375
-0.057861328125
0.02783203125
-0.031494140625
0.0135498046875
-0.01171875
0.012451171875
-0.010986328125
0.0311279296875
-0.0245361328125
0.04248046875
-0.0439453125
0.050537109375
-0.0509033203125
0.053466796875
-0.051300048828125
0.069610595703125
-0.062286376953125
0.093414306640625
-0.0823974609375
0.07763671875
-0.0802001953125
0.0604248046875
-0.0615234375
0.0428466796875
-0.0498046875
0.038818359375
-0.043212890625
0.0428466796875
-0.0347900390625
0.0450439453125
-0.0362548828125
0.044677734375
-0.0384521484375
0.0406494140625
-0.0406494140625
0.128936767578125
-0.178741455078125
0.0322265625
-0.029327392578125
-0.0574951171875
0.123779296875
0.030426025390625
-0.0164794921875
0.0281982421875
-0.027099609375
0.0208740234375
-0.0164794921875
0.0205078125
-0.010986328125
0.0120849609375
-0.0069580078125
0.0087890625
-0.009521484375
0.0216064453125
-0.0263671875
0.03369140625
-0.034423828125
0.043212890625
-0.0296630859375
0.031494140625
-0.016845703125
0.0186767578125
-0.0087890625
0.0062255859375
-0.00439453125
0.0062255859375
-0.0032958984375
0.0106201171875
-0.0018310546875
0.0146484375
-0.009521484375
0.016845703125
-0.0098876953125
0.0025634765625
0.00146484375
0.0018310546875
0.0
0.00146484375
-0.000732421875
0.0106201171875
-0.0084228515625
0.0172119140625
-0.015380859375
0.0069580078125
-0.0128173828125
0.0029296875
-0.0087890625
0.0010986328125
-0.003662109375
-0.0040283203125
0.0106201171875
0.130035400390625
-0.201812744140625
0.017578125
-0.027099609375
-0.121978759765625
0.188262939453125
0.0025634765625
-0.0054931640625
0.0032958984375
-0.0062255859375
0.0076904296875
-0.01025390625
0.0106201171875
-0.01171875
-0.0054931640625
-0.0040283203125
-0.00439453125
-0.0087890625
0.003662109375
-0.0106201171875
0.01904296875
-0.0120849609375
0.01904296875
-0.01171875
0.003662109375
-0.0069580078125
-0.006591796875
0.0
-0.01318359375
0.005859375
-0.0054931640625
0.0010986328125
0.00146484375
-0.003662109375
0.0120849609375
-0.0076904296875
0.0179443359375
-0.0380859375
-0.01318359375
0.0135498046875
-0.0281982421875
0.0516357421875
-0.0098876953125
0.00732421875
0.0032958984375
-0.0003662109375
-0.0025634765625
0.00439453125
-0.0179443359375
0.01611328125
-0.024169921875
0.0128173828125
-0.0069580078125
-0.0018310546875
0.021240234375
-0.0164794921875
0.0201416015625
-0.0146484375
0.0040283203125
0.0003662109375
-0.0084228515625
0.005859375
-0.0087890625
0.0087890625
-0.0025634765625
0.0029296875
-0.000732421875
0.0018310546875
-0.0047607421875
0.006591796875
-0.00732421875
0.0069580078125
-0.00732421875
0.00732421875
-0.010986328125
0.00732421875
-0.0047607421875
0.0084228515625
0.0010986328125
0.0025634765625
-0.000732421875
0.000732421875
-0.00732421875
0.0025634765625
-0.0062255859375
0.0003662109375
-0.005126953125
0.00146484375
-0.0025634765625
0.002197265625
-0.0010986328125
0.009521484375
0.126007080078125
-0.182769775390625
0.0025634765625
-0.005126953125
-0.135528564453125
0.191558837890625
-0.00146484375
-0.00146484375
0.0025634765625
-0.0040283203125
-0.005126953125
0.0062255859375
-0.0098876953125
0.0076904296875
-0.0172119140625
0.00732421875
-0.010986328125
0.0062255859375
0.00146484375
-0.008056640625
0.0179443359375
-0.0172119140625
0.016845703125
-0.0106201171875
0.005126953125
-0.006591796875
-0.005126953125
0.00146484375
0.000732421875
0.000732421875
0.0076904296875
-0.0025634765625
0.000732421875
-0.0010986328125
0.0062255859375
-0.0025634765625
0.000732421875
-0.0003662109375
-0.0069580078125
0.0
-0.00146484375
-0.0010986328125
0.0010986328125
0.000732421875
0.0010986328125
0.000732421875
0.0047607421875
-0.0018310546875
-0.003662109375
0.002197265625
-0.00146484375
-0.003662109375
0.0084228515625
-0.008056640625
-0.003662109375
-0.005126953125
0.0003662109375
-0.0069580078125
-0.0032958984375
-0.0047607421875
-0.005859375
-0.0032958984375
-0.0040283203125
0.0172119140625
0.1259765625
-0.198516845703125
0.012451171875
-0.0267333984375
-0.1314697265625
0.193389892578125
-0.003662109375
0.00439453125
0.00146484375
0.005126953125
-0.005859375
0.0025634765625
-0.013916015625
0.003662109375
-0.016845703125
0.0025634765625
0.0018310546875
-0.0047607421875
0.0087890625
-0.008056640625
0.0146484375
-0.01318359375
0.0087890625
-0.008056640625
0.00146484375
-0.0029296875
0.00146484375
-0.002197265625
-0.0003662109375
0.0010986328125
0.000732421875
0.0018310546875
-0.000732421875
0.0
-0.000732421875
0.0
-0.0025634765625
0.0029296875
0.00732421875
-0.000732421875
-0.013916015625
0.0201416015625
0.052734375
-0.110260009765625
0.00732421875
-0.012451171875
-0.0640869140625
0.121612548828125
0.005859375
0.005859375
0.0010986328125
0.005126953125
-0.00732421875
0.0098876953125
-0.016845703125
0.0135498046875
-0.01611328125
0.00732421875
-0.0040283203125
0.0040283203125
0.0091552734375
-0.0018310546875
0.0120849609375
-0.002197265625
0.000732421875
-0.0025634765625
-0.0029296875
-0.000732421875
0.000732421875
0.0029296875
0.005126953125
0.0032958984375
0.0025634765625
0.0018310546875
-0.005126953125
-0.003662109375
-0.002197265625
-0.0010986328125
0.0003662109375
0.0032958984375
0.000732421875
0.002197265625
0.0040283203125
0.0040283203125
0.00146484375
0.0029296875
-0.005859375
0.0010986328125
-0.01025390625
0.0234375
0.052734375
-0.1021728515625
0.005859375
-0.0098876953125
-0.0560302734375
0.123046875
0.0029296875
-0.0018310546875
0.0040283203125
-0.005859375
-0.0087890625
0.0128173828125
-0.012451171875
0.0186767578125
-0.0216064453125
0.018310546875
-0.0142822265625
0.005859375
0.01611328125
-0.0113525390625
0.0252685546875
-0.0146484375
0.01171875
-0.005126953125
-0.0040283203125
0.002197265625
-0.0029296875
-0.0062255859375
0.0003662109375
-0.0018310546875
0.0047607421875
0.005859375
0.0047607421875
-0.0010986328125
0.0
0.000732421875
-0.0025634765625
0.0018310546875
-0.00439453125
-0.0047607421875
0.000732421875
-0.0054931640625
-0.0003662109375
-0.002197265625
0.002197265625
-0.00146484375
-0.0047607421875
0.00146484375
-0.0032958984375
-0.00732421875
-0.0018310546875
0.0003662109375
0.13330078125
-0.198150634765625
0.0091552734375
-0.012451171875
-0.1365966796875
0.196685791015625
0.0025634765625
-0.0047607421875
0.00439453125
-0.0054931640625
-0.00732421875
0.0047607421875
-0.013916015625
0.0076904296875
-0.0128173828125
0.000732421875
0.000732421875
-0.003662109375
0.0054931640625
-0.005126953125
0.010986328125
-0.013916015625
0.010986328125
-0.012451171875
0.01171875
-0.010986328125
0.0018310546875
-0.0032958984375
-0.00439453125
0.00146484375
0.0
-0.000732421875
0.000732421875
0.0025634765625
0.002197265625
0.0010986328125
0.002197265625
-0.0025634765625
0.00732421875
-0.0010986328125
-0.0003662109375
-0.0003662109375
-0.00439453125
0.0010986328125
-0.00732421875
0.0047607421875
-0.0040283203125
-0.0003662109375
0.003662109375
0.0
-0.01171875
0.025634765625
0.1087646484375
-0.169952392578125
0.005859375
-0.017578125
-0.11279296875
0.182769775390625
0.0084228515625
0.0029296875
0.00732421875
-0.000732421875
-0.0087890625
0.0091552734375
-0.0201416015625
0.0172119140625
-0.017578125
0.01611328125
-0.012451171875
0.00732421875
0.000732421875
-0.0003662109375
0.0120849609375
-0.00732421875
0.0106201171875
-0.0032958984375
0.0054931640625
-0.000732421875
0.000732421875
0.0003662109375
-0.000732421875
0.000732421875
0.0018310546875
-0.0003662109375
0.0010986328125
0.0029296875
-0.00439453125
0.005126953125
0.0029296875
-0.000732421875
0.095947265625
-0.142486572265625
-0.01025390625
0.0128173828125
-0.09521484375
0.155670166015625
0.00439453125
0.0003662109375
-0.0003662109375
0.0010986328125
-0.003662109375
0.006591796875
-0.010986328125
0.0087890625
-0.0208740234375
0.017578125
-0.01318359375
0.01171875
0.0091552734375
-0.008056640625
0.022705078125
-0.0164794921875
0.0142822265625
-0.006591796875
-0.005859375
0.0018310546875
-0.000732421875
0.0029296875
0.0047607421875
0.0018310546875
0.0018310546875
0.002197265625
0.002197265625
0.0
0.0029296875
-0.003662109375
-0.0040283203125
0.000732421875
0.0875244140625
-0.134765625
0.0003662109375
0.0091552734375
-0.093017578125
0.148681640625
0.003662109375
0.0003662109375
-0.0003662109375
-0.0047607421875
-0.00439453125
0.00146484375
-0.0087890625
0.009521484375
-0.015380859375
0.0128173828125
-0.0128173828125
0.003662109375
0.0087890625
-0.01904296875
0.0216064453125
-0.0263671875
0.01318359375
-0.0186767578125
0.005126953125
-0.009521484375
-0.0098876953125
-0.0047607421875
0.0010986328125
-0.0098876953125
0.01025390625
-0.0098876953125
0.00439453125
-0.0084228515625
0.0069580078125
-0.0062255859375
-0.000732421875
0.0
-0.00732421875
-0.0029296875
-0.000732421875
-0.0098876953125
0.0069580078125
-0.0040283203125
0.0003662109375
0.0010986328125
0.0018310546875
-0.0018310546875
0.0032958984375
0.0029296875
-0.0032958984375
-0.005126953125
0.0091552734375
-0.0179443359375
0.0245361328125
-0.049072265625
-0.0106201171875
0.0208740234375
-0.0296630859375
0.0662841796875
0.0003662109375
-0.0062255859375
0.0062255859375
-0.0091552734375
-0.0087890625
0.009521484375
-0.017578125
0.016845703125
-0.0186767578125
0.0164794921875
0.003662109375
-0.012451171875
0.0186767578125
-0.024169921875
0.01171875
-0.0087890625
0.0032958984375
-0.00439453125
-0.0018310546875
0.0029296875
0.0029296875
0.0025634765625
0.0018310546875
-0.00732421875
0.0018310546875
-0.003662109375
0.0
0.0029296875
0.0025634765625
0.0025634765625
-0.00146484375
0.0069580078125
-0.0054931640625
0.0135498046875
0.041015625
-0.0703125
-0.000732421875
-0.005126953125
-0.038818359375
0.0750732421875
0.0025634765625
0.00439453125
-0.000732421875
0.006591796875
-0.0098876953125
0.010986328125
-0.0205078125
0.02490234375
-0.0106201171875
0.006591796875
0.009521484375
-0.015380859375
0.0164794921875
-0.010986328125
0.008056640625
-0.0091552734375
0.000732421875
0.000732421875
-0.0098876953125
0.0062255859375
0.002197265625
-0.005126953125
0.013916015625
-0.006591796875
0.0025634765625
0.0
-0.002197265625
-0.000732421875
-0.0025634765625
0.00439453125
0.0018310546875
0.000732421875
0.0142822265625
-0.0150146484375
0.0238037109375
-0.0439453125
-0.0157470703125
0.0201416015625
-0.0318603515625
0.0615234375
-0.00439453125
0.0
0.005859375
-0.01171875
0.0
0.00732421875
-0.01318359375
0.019775390625
-0.025634765625
0.02197265625
-0.01318359375
-0.00146484375
0.0238037109375
-0.0260009765625
0.0234375
-0.0146484375
0.0062255859375
-0.0025634765625
-0.0040283203125
0.0062255859375
-0.0091552734375
-0.0003662109375
0.0040283203125
-0.0106201171875
0.0069580078125
-0.0032958984375
0.00732421875
-0.0047607421875
0.005126953125
-0.00146484375
-0.010986328125
0.0098876953125
0.1226806640625
-0.199981689453125
0.00439453125
-0.009521484375
-0.1256103515625
0.198516845703125
0.00146484375
0.003662109375
-0.0098876953125
0.0146484375
-0.01611328125
0.0003662109375
-0.0087890625
-0.00439453125
-0.0084228515625
0.0113525390625
-0.0029296875
0.0029296875
0.00439453125
-0.0010986328125
0.0120849609375
-0.0150146484375
0.0113525390625
-0.0164794921875
0.0
-0.0025634765625
0.008056640625
-0.000732421875
0.0084228515625
-0.0003662109375
-0.0076904296875
-0.00146484375
-0.0032958984375
-0.005859375
0.0069580078125
-0.005126953125
0.006591796875
0.000732421875
0.008056640625
0.0018310546875
0.00146484375
0.008056640625
-0.0069580078125
0.0047607421875
0.0010986328125
-0.0040283203125
0.0025634765625
-0.0010986328125
0.00146484375
0.0010986328125
0.0062255859375
0.0054931640625
-0.009521484375
-0.000732421875
-0.005859375
-0.0054931640625
0.099609375
-0.134429931640625
0.00732421875
0.0018310546875
-0.0926513671875
0.146514892578125
-0.0025634765625
0.0113525390625
-0.0010986328125
-0.0018310546875
-0.0047607421875
0.0040283203125
-0.0069580078125
0.015380859375
-0.0164794921875
0.0194091796875
-0.01318359375
0.0135498046875
-0.01318359375
0.0025634765625
0.0098876953125
-0.01318359375
0.0238037109375
-0.012451171875
0.0091552734375
0.0029296875
-0.0010986328125
0.0069580078125
-0.0047607421875
0.006591796875
-0.0018310546875
0.0106201171875
0.009521484375
0.00146484375
0.0201416015625
-0.00732421875
0.0069580078125
-0.0018310546875
0.0736083984375
-0.113525390625
-0.02490234375
0.01318359375
-0.08349609375
0.1219482421875
0.0172119140625
-0.0003662109375
0.0029296875
0.005859375
-0.0010986328125
0.006591796875
-0.0150146484375
0.0113525390625
-0.016845703125
0.0106201171875
-0.006591796875
0.0062255859375
0.0113525390625
-0.0025634765625
0.01904296875
-0.0106201171875
0.01025390625
-0.0113525390625
-0.01025390625
-0.0029296875
-0.0029296875
-0.00146484375
0.016845703125
-0.0040283203125
0.0025634765625
-0.0029296875
0.0040283203125
-0.0076904296875
0.002197265625
-0.00146484375
-0.0032958984375
-0.0029296875
0.002197265625
-0.00439453125
-0.0003662109375
0.0
-0.0025634765625
0.000732421875
-0.000732421875
0.0032958984375
-0.0084228515625
0.0076904296875
-0.0054931640625
-0.000732421875
0.005126953125
-0.005859375
0.0029296875
-0.0025634765625
0.0948486328125
-0.1417236328125
0.00146484375
0.00146484375
-0.1007080078125
0.1446533203125
-0.0025634765625
0.00146484375
0.0018310546875
-0.0040283203125
-0.003662109375
-0.0010986328125
-0.0113525390625
-0.0010986328125
-0.016845703125
0.0018310546875
-0.009521484375
0.000732421875
-0.005859375
-0.006591796875
0.0098876953125
-0.0172119140625
0.0194091796875
-0.022705078125
0.0113525390625
-0.012451171875
-0.0018310546875
-0.006591796875
-0.002197265625
-0.0054931640625
0.00439453125
-0.005126953125
0.000732421875
-0.003662109375
0.0018310546875
-0.0047607421875
0.0
-0.0069580078125
0.0010986328125
-0.0040283203125
0.0003662109375
-0.002197265625
0.0032958984375
0.0010986328125
-0.0003662109375
-0.003662109375
0.0963134765625
-0.142486572265625
0.0025634765625
-0.0010986328125
-0.1025390625
0.141754150390625
-0.0029296875
0.0084228515625
-0.0150146484375
0.012451171875
-0.003662109375
-0.0010986328125
0.0040283203125
-0.0076904296875
-0.01318359375
0.0106201171875
-0.009521484375
0.0087890625
-0.0025634765625
0.0003662109375
0.0142822265625
-0.0146484375
0.0194091796875
-0.021240234375
0.0084228515625
-0.0076904296875
-0.0025634765625
0.00439453125
-0.006591796875
0.005126953125
-0.0084228515625
0.0076904296875
0.0040283203125
-0.0018310546875
0.01171875
-0.0087890625
0.0
0.00439453125
0.1109619140625
-0.149444580078125
-0.006591796875
0.009521484375
-0.1259765625
0.170684814453125
0.0084228515625
-0.003662109375
0.01904296875
-0.009521484375
-0.0010986328125
0.005859375
-0.00439453125
0.01171875
-0.0201416015625
0.0208740234375
-0.0150146484375
0.0040283203125
0.0208740234375
-0.0179443359375
0.0194091796875
-0.0146484375
0.003662109375
-0.0062255859375
-0.0098876953125
0.003662109375
-0.0142822265625
0.0091552734375
0.0069580078125
-0.0003662109375
0.0135498046875
-0.005859375
0.0047607421875
0.0003662109375
-0.0003662109375
0.000732421875
-0.005126953125
0.0010986328125
-0.0040283203125
-0.000732421875
0.0684814453125
-0.087890625
0.005859375
-0.0025634765625
-0.064453125
0.0948486328125
-0.0032958984375
0.0120849609375
-0.0106201171875
0.0032958984375
0.0010986328125
0.0
0.0010986328125
0.0091552734375
-0.0135498046875
0.0179443359375
-0.013916015625
0.0084228515625
-0.0032958984375
-0.0040283203125
0.01171875
-0.0142822265625
0.00732421875
-0.009521484375
0.000732421875
0.000732421875
-0.00146484375
0.000732421875
0.0032958984375
-0.002197265625
0.0054931640625
-0.0025634765625
0.0076904296875
-0.0098876953125
0.0084228515625
-0.0087890625
-0.0029296875
0.0010986328125
-0.003662109375
0.00146484375
0.0
-0.0025634765625
0.0029296875
-0.003662109375
0.0908203125
-0.131103515625
-0.0076904296875
-0.0062255859375
-0.093017578125
0.1292724609375
0.0069580078125
0.00439453125
0.005859375
-0.0040283203125
-0.0018310546875
0.00146484375
-0.0120849609375
0.0010986328125
-0.022705078125
-0.000732421875
-0.01318359375
0.006591796875
0.0084228515625
-0.005126953125
0.0186767578125
-0.01611328125
0.0146484375
-0.018310546875
-0.0029296875
-0.0142822265625
-0.009521484375
-0.002197265625
0.0018310546875
0.0032958984375
0.0113525390625
0.0047607421875
0.0040283203125
-0.006591796875
0.0018310546875
-0.01318359375
-0.002197265625
-0.0047607421875
-0.0032958984375
-0.000732421875
0.0040283203125
0.00146484375
0.0047607421875
0.0032958984375
0.003662109375
-0.0010986328125
-0.0062255859375
-0.002197265625
-0.005859375
0.000732421875
-0.005126953125
0.0062255859375
0.002197265625
0.0040283203125
0.0054931640625
0.000732421875
0.0010986328125
0.002197265625
-0.0025634765625
0.0018310546875
-0.0157470703125
0.0234375
0.1314697265625
-0.187530517578125
0.0150146484375
-0.0142822265625
-0.1278076171875
0.203277587890625
-0.006591796875
0.01025390625
-0.0120849609375
0.002197265625
0.0
0.0029296875
0.0040283203125
0.0135498046875
-0.01025390625
0.019775390625
-0.01611328125
0.010986328125
-0.01025390625
-0.0087890625
0.0087890625
-0.0164794921875
0.0234375
-0.008056640625
0.01318359375
0.0
-0.0054931640625
0.00439453125
-0.0087890625
-0.0010986328125
-0.000732421875
-0.0029296875
0.0084228515625
0.0
0.009521484375
-0.0025634765625
0.006591796875
-0.0025634765625
0.0003662109375
-0.0047607421875
0.03515625
-0.0487060546875
0.000732421875
-0.01025390625
-0.038818359375
0.0545654296875
0.0
0.0238037109375
-0.0054931640625
0.0032958984375
-0.0087890625
0.0076904296875
-0.0128173828125
0.0150146484375
-0.013916015625
0.0164794921875
-0.0010986328125
0.0047607421875
0.005126953125
-0.006591796875
0.0120849609375
-0.009521484375
0.0062255859375
-0.0062255859375
-0.00146484375
0.0010986328125
0.0003662109375
0.002197265625
0.005126953125
-0.0025634765625
0.0084228515625
-0.00439453125
0.005126953125
-0.003662109375
0.000732421875
-0.005859375
0.002197265625
0.0
-0.003662109375
0.0091552734375
0.041748046875
-0.1043701171875
0.0054931640625
-0.005859375
-0.0494384765625
0.1072998046875
0.0003662109375
-0.0003662109375
0.0003662109375
-0.00146484375
-0.005859375
0.0018310546875
-0.0113525390625
0.006591796875
-0.0216064453125
0.0076904296875
-0.0062255859375
-0.0032958984375
0.0234375
-0.0194091796875
0.035888671875
-0.0238037109375
0.01318359375
-0.009521484375
-0.00732421875
0.0
-0.0106201171875
-0.00146484375
-0.0142822265625
0.0
0.0069580078125
-0.0032958984375
0.0146484375
-0.0032958984375
0.00439453125
0.0
-0.0003662109375
-0.0025634765625
-0.0091552734375
-0.00146484375
-0.0018310546875
-0.0032958984375
0.0054931640625
0.0
0.107666015625
-0.141754150390625
-0.000732421875
0.002197265625
-0.1142578125
0.153472900390625
-0.005859375
0.000732421875
0.0069580078125
-0.0047607421875
-0.00146484375
0.00439453125
-0.016845703125
0.0128173828125
-0.0267333984375
0.0150146484375
-0.0047607421875
-0.0047607421875
0.0205078125
-0.0150146484375
0.01611328125
-0.009521484375
0.0062255859375
-0.0040283203125
-0.008056640625
-0.002197265625
-0.0040283203125
-0.000732421875
0.0054931640625
0.0032958984375
0.0069580078125
0.0010986328125
0.0069580078125
-0.0010986328125
0.0
0.002197265625
-0.00732421875
-0.000732421875
0.0003662109375
-0.00439453125
0.0113525390625
0.0003662109375
0.0047607421875
0.0
0.0758056640625
-0.1153564453125
-0.005126953125
0.0032958984375
-0.084228515625
0.120849609375
-0.0018310546875
0.003662109375
0.00146484375
0.0032958984375
-0.0047607421875
0.0084228515625
-0.0113525390625
0.01025390625
-0.01611328125
0.0157470703125
-0.006591796875
0.0010986328125
0.006591796875
-0.0135498046875
0.01318359375
-0.0076904296875
0.0087890625
-0.0084228515625
-0.005859375
0.0040283203125
-0.0029296875
0.0018310546875
0.0091552734375
-0.0062255859375
0.0069580078125
-0.00146484375
0.0029296875
-0.0029296875
0.0018310546875
0.0047607421875
-0.0054931640625
0.0018310546875
0.000732421875
-0.0062255859375
0.062255859375
-0.075439453125
0.005126953125
-0.0091552734375
-0.0574951171875
0.07763671875
-0.015380859375
0.02197265625
-0.0025634765625
0.0018310546875
0.0084228515625
-0.0010986328125
-0.00439453125
0.0106201171875
-0.0087890625
0.0106201171875
-0.0201416015625
0.013916015625
-0.0113525390625
-0.0062255859375
0.01904296875
-0.0164794921875
0.017578125
-0.006591796875
0.00732421875
-0.0040283203125
-0.000732421875
0.0025634765625
-0.00732421875
-0.0087890625
0.0029296875
-0.00732421875
0.0098876953125
-0.0010986328125
0.0106201171875
-0.0098876953125
0.005859375
-0.0062255859375
-0.0032958984375
0.0029296875
-0.01171875
-0.0029296875
0.0029296875
-0.0076904296875
0.01025390625
0.00146484375
-0.0010986328125
0.000732421875
0.00146484375
0.000732421875
-0.0113525390625
0.0010986328125
-0.0029296875
-0.005859375
0.00732421875
-0.0054931640625
-0.0047607421875
0.0062255859375
0.12158203125
-0.173614501953125
0.0032958984375
-0.0003662109375
-0.1365966796875
0.182403564453125
-0.0018310546875
-0.0040283203125
0.0098876953125
-0.0003662109375
-0.008056640625
0.0157470703125
-0.0142822265625
0.0135498046875
-0.0296630859375
0.01611328125
-0.006591796875
-0.0047607421875
0.010986328125
-0.0216064453125
0.0047607421875
-0.008056640625
0.005126953125
-0.0018310546875
-0.0142822265625
0.005859375
-0.00439453125
-0.008056640625
0.010986328125
-0.0120849609375
0.008056640625
0.0010986328125
0.0054931640625
0.0010986328125
0.0084228515625
0.0069580078125
-0.0032958984375
0.0032958984375
-0.01025390625
-0.0029296875
0.0032958984375
0.0010986328125
0.0003662109375
0.0047607421875
0.00146484375
0.0087890625
-0.0040283203125
0.012451171875
0.0010986328125
0.0018310546875
0.003662109375
-0.0025634765625
0.0010986328125
0.0040283203125
0.0054931640625
0.0029296875
0.0010986328125
0.005859375
0.085693359375
-0.123779296875
-0.0010986328125
0.0
-0.0845947265625
0.136962890625
0.0018310546875
0.009521484375
0.0018310546875
0.00439453125
-0.0018310546875
0.01025390625
-0.0186767578125
0.0076904296875
-0.0150146484375
0.012451171875
-0.0054931640625
0.0135498046875
-0.0040283203125
0.0054931640625
0.008056640625
0.002197265625
0.010986328125
0.0018310546875
-0.00146484375
0.0025634765625
-0.000732421875
-0.000732421875
0.008056640625
-0.002197265625
0.0047607421875
0.0003662109375
0.0054931640625
-0.0010986328125
-0.0018310546875
-0.0018310546875
-0.0003662109375
0.0025634765625
0.005126953125
0.0025634765625
0.0062255859375
0.0010986328125
0.0018310546875
0.0076904296875
-0.0025634765625
0.002197265625
0.00146484375
-0.003662109375
0.0003662109375
0.0032958984375
0.0032958984375
0.0029296875
0.0
0.003662109375
-0.0018310546875
0.003662109375
0.0032958984375
0.00439453125
-0.005126953125
0.0113525390625
0.1358642578125
-0.205108642578125
0.0025634765625
-0.0146484375
-0.1395263671875
0.201446533203125
0.0025634765625
-0.0003662109375
0.0084228515625
-0.0003662109375
-0.003662109375
0.0047607421875
-0.0150146484375
-0.000732421875
-0.0179443359375
0.0
-0.01025390625
0.0003662109375
0.0084228515625
-0.0120849609375
0.0146484375
-0.0179443359375
0.0179443359375
-0.0205078125
0.0032958984375
-0.0179443359375
-0.0069580078125
-0.006591796875
-0.00439453125
-0.003662109375
-0.000732421875
-0.0018310546875
0.005126953125
-0.0040283203125
0.006591796875
-0.009521484375
0.005126953125
-0.005859375
-0.0029296875
-0.0010986328125
-0.0062255859375
0.0029296875
-0.01025390625
0.0018310546875
-0.002197265625
-0.0029296875
0.00439453125
-0.0040283203125
-0.00146484375
-0.0040283203125
-0.00146484375
-0.0029296875
-0.01611328125
0.005126953125
-0.0142822265625
0.0234375
0.1358642578125
-0.188629150390625
0.0205078125
-0.0263671875
-0.1204833984375
0.183868408203125
-0.005859375
0.005859375
0.00146484375
-0.0018310546875
-0.002197265625
0.0047607421875
-0.0029296875
0.0120849609375
-0.01318359375
0.01025390625
-0.01611328125
0.003662109375
0.003662109375
-0.008056640625
0.0032958984375
-0.005859375
0.0054931640625
-0.0047607421875
0.013916015625
-0.0120849609375
0.0113525390625
-0.0062255859375
0.0054931640625
0.0054931640625
0.0029296875
0.0025634765625
-0.0003662109375
-0.0054931640625
0.099609375
-0.161895751953125
-0.0040283203125
0.0
-0.09814453125
0.158233642578125
0.0054931640625
0.002197265625
-0.00732421875
0.008056640625
-0.006591796875
0.008056640625
-0.006591796875
0.0091552734375
-0.0084228515625
0.0135498046875
-0.008056640625
0.005126953125
0.00439453125
-0.0098876953125
0.0172119140625
-0.01904296875
0.0098876953125
-0.00439453125
0.000732421875
0.006591796875
-0.0010986328125
-0.0018310546875
-0.0018310546875
0.0
-0.0025634765625
0.0018310546875
0.0032958984375
-0.0010986328125
0.008056640625
0.00146484375
0.0084228515625
0.00146484375
-0.0018310546875
0.00146484375
-0.00732421875
0.0040283203125
-0.002197265625
0.0069580078125
-0.0040283203125
0.0054931640625
0.0069580078125
-0.002197265625
0.0076904296875
-0.002197265625
0.0025634765625
0.0010986328125
0.0010986328125
0.0032958984375
-0.0076904296875
0.0098876953125
0.1241455078125
-0.184600830078125
0.00439453125
-0.006591796875
-0.1226806640625
0.189727783203125
0.0029296875
0.0
0.006591796875
-0.0098876953125
-0.0054931640625
-0.0069580078125
-0.0179443359375
0.006591796875
-0.01318359375
0.012451171875
-0.0076904296875
0.000732421875
-0.0003662109375
-0.0135498046875
0.013916015625
-0.02783203125
0.0135498046875
-0.021240234375
0.0018310546875
-0.0076904296875
0.0025634765625
-0.0029296875
0.002197265625
-0.008056640625
0.000732421875
-0.0150146484375
0.0
-0.0062255859375
0.0062255859375
-0.0032958984375
0.009521484375
-0.0032958984375
-0.00146484375
-0.0010986328125
-0.000732421875
-0.00732421875
0.00146484375
-0.006591796875
0.0032958984375
-0.003662109375
0.0029296875
-0.0025634765625
-0.0032958984375
0.0018310546875
-0.005859375
-0.002197265625
-0.003662109375
-0.00439453125
0.0040283203125
-0.000732421875
-0.0003662109375
0.0018310546875
-0.0010986328125
0.0018310546875
-0.005126953125
0.0018310546875
0.0003662109375
-0.0040283203125
0.0054931640625
-0.00439453125
-0.0003662109375
0.0032958984375
0.0
0.00439453125
-0.008056640625
0.0003662109375
-0.013916015625
0.01904296875
0.1300048828125
-0.184600830078125
0.016845703125
-0.0205078125
-0.126708984375
0.192657470703125
-0.0062255859375
0.0076904296875
-0.0029296875
0.0087890625
0.000732421875
-0.002197265625
0.0010986328125
-0.0032958984375
-0.0135498046875
0.01611328125
-0.015380859375
0.0146484375
-0.009521484375
0.0091552734375
0.008056640625
-0.009521484375
0.0252685546875
-0.017578125
0.01171875
-0.0054931640625
-0.0054931640625
0.0029296875
-0.010986328125
0.0062255859375
0.005126953125
-0.0069580078125
0.01171875
-0.0084228515625
0.0054931640625
0.002197265625
0.00146484375
0.000732421875
-0.005126953125
0.005859375
0.024169921875
-0.0325927734375
0.0069580078125
-0.0201416015625
-0.022705078125
0.0457763671875
-0.0032958984375
0.02783203125
0.0
0.0003662109375
-0.0091552734375
0.002197265625
-0.01318359375
0.0087890625
-0.01318359375
0.0223388671875
-0.01318359375
0.01611328125
0.0003662109375
-0.0076904296875
0.01904296875
-0.01904296875
0.0142822265625
-0.010986328125
-0.0029296875
0.0025634765625
0.002197265625
0.003662109375
0.003662109375
-0.00146484375
-0.0003662109375
-0.0029296875
-0.00146484375
0.0003662109375
-0.0003662109375
0.0025634765625
0.006591796875
0.006591796875
0.1201171875
-0.165557861328125
0.0
0.0032958984375
-0.119384765625
0.177276611328125
-0.002197265625
0.005859375
0.0010986328125
0.0054931640625
-0.000732421875
0.0084228515625
-0.008056640625
0.0087890625
-0.018310546875
0.006591796875
-0.0120849609375
0.000732421875
0.0047607421875
-0.01171875
0.019775390625
-0.0146484375
0.017578125
-0.0135498046875
-0.00439453125
-0.0142822265625
-0.0128173828125
-0.00732421875
-0.000732421875
-0.0040283203125
0.0098876953125
-0.0054931640625
0.01171875
-0.0098876953125
0.0040283203125
-0.010986328125
-0.005859375
-0.0062255859375
-0.01025390625
0.0164794921875
0.1256103515625
-0.186065673828125
0.00439453125
-0.01025390625
-0.120849609375
0.191558837890625
0.00439453125
-0.0040283203125
-0.00439453125
0.0010986328125
-0.012451171875
0.0084228515625
-0.02490234375
0.0186767578125
-0.0087890625
0.00146484375
0.0054931640625
-0.0098876953125
0.0047607421875
-0.0054931640625
0.0106201171875
-0.010986328125
0.0069580078125
-0.003662109375
-0.0142822265625
0.0010986328125
0.0040283203125
-0.005859375
0.01318359375
-0.0025634765625
-0.002197265625
0.002197265625
0.0062255859375
-0.00146484375
0.002197265625
0.000732421875
-0.0018310546875
-0.00146484375
-0.002197265625
-0.0010986328125
0.0032958984375
0.00146484375
0.00146484375
-0.00146484375
0.0003662109375
0.0025634765625
-0.01318359375
0.0208740234375
0.114990234375
-0.183502197265625
0.0128173828125
-0.0164794921875
-0.117919921875
0.190460205078125
0.002197265625
0.0091552734375
-0.005126953125
0.0091552734375
0.0010986328125
0.0010986328125
0.00732421875
0.0025634765625
-0.0142822265625
0.018310546875
-0.0186767578125
0.0172119140625
-0.000732421875
0.0018310546875
0.012451171875
-0.0150146484375
0.0040283203125
-0.0098876953125
-0.0010986328125
0.0010986328125
0.0018310546875
0.00439453125
0.0040283203125
0.008056640625
0.00146484375
-0.0003662109375
0.000732421875
-0.0091552734375
0.000732421875
-0.0029296875
-0.0003662109375
0.0
0.005126953125
0.0003662109375
-0.00439453125
0.009521484375
0.1182861328125
-0.182403564453125
0.000732421875
-0.008056640625
-0.12158203125
0.186798095703125
0.0032958984375
0.00732421875
-0.0040283203125
0.010986328125
-0.0098876953125
0.0040283203125
-0.0128173828125
0.0054931640625
-0.01318359375
0.013916015625
-0.0087890625
0.005859375
0.009521484375
-0.0084228515625
0.019775390625
-0.0194091796875
0.005126953125
-0.008056640625
-0.006591796875
0.0029296875
0.000732421875
0.00146484375
0.0113525390625
-0.0018310546875
0.0069580078125
-0.005859375
0.002197265625
-0.006591796875
-0.00439453125
-0.005859375
0.00146484375
-0.00732421875
0.0084228515625
-0.0076904296875
0.00146484375
-0.0087890625
0.0018310546875
-0.006591796875
0.09375
-0.143585205078125
-0.0040283203125
-0.0018310546875
-0.0955810546875
0.142120361328125
0.0113525390625
-0.00146484375
0.0069580078125
-0.002197265625
-0.0018310546875
-0.000732421875
-0.01171875
0.0062255859375
-0.02490234375
0.0091552734375
-0.01025390625
0.0047607421875
0.0032958984375
-0.0025634765625
0.0150146484375
-0.01611328125
0.0069580078125
-0.0098876953125
0.0025634765625
-0.0076904296875
0.0047607421875
-0.003662109375
-0.0003662109375
0.00732421875
0.008056640625
0.0
0.0010986328125
-0.00146484375
0.0010986328125
-0.003662109375
0.0040283203125
-0.0076904296875
0.0010986328125
-0.0003662109375
-0.00146484375
0.0029296875
-0.00732421875
0.0025634765625
0.0684814453125
-0.1007080078125
0.0040283203125
-0.0003662109375
-0.06884765625
0.11279296875
-0.0029296875
0.0142822265625
-0.0029296875
0.00439453125
-0.00146484375
0.0040283203125
-0.008056640625
0.0106201171875
-0.0164794921875
0.0146484375
-0.0087890625
0.0076904296875
0.0032958984375
0.000732421875
0.01171875
-0.003662109375
0.0106201171875
-0.0032958984375
0.0029296875
-0.000732421875
0.0040283203125
0.0029296875
0.002197265625
-0.0003662109375
0.0032958984375
0.002197265625
0.003662109375
0.008056640625
0.0010986328125
0.0010986328125
-0.003662109375
0.005126953125
0.11572265625
-0.161895751953125
0.0029296875
0.0084228515625
-0.1197509765625
0.182403564453125
-0.005859375
0.0106201171875
-0.0062255859375
0.0040283203125
-0.000732421875
-0.0032958984375
-0.0087890625
0.0054931640625
-0.028564453125
0.0208740234375
-0.025634765625
0.0205078125
-0.005859375
0.0
0.01318359375
-0.016845703125
0.0040283203125
-0.0040283203125
-0.084228515625
0.071044921875
-0.0765380859375
0.06884765625
0.021240234375
-0.0084228515625
0.024169921875
-0.0164794921875
0.00732421875
-0.010986328125
0.01171875
-0.012451171875
0.003662109375
-0.006591796875
-0.002197265625
-0.0010986328125
0.0047607421875
-0.0003662109375
0.00439453125
0.0
0.0084228515625
-0.0113525390625
0.0098876953125
-0.0186767578125
0.0062255859375
-0.021240234375
0.0091552734375
-0.0194091796875
0.0157470703125
-0.017578125
0.01611328125
-0.019775390625
0.009521484375
-0.0157470703125
0.005126953125
-0.0146484375
0.003662109375
-0.0091552734375
0.0029296875
-0.005126953125
-0.0098876953125
0.017578125
0.120849609375
-0.192291259765625
0.0245361328125
-0.0421142578125
-0.097412109375
0.171783447265625
0.0164794921875
-0.0054931640625
0.0062255859375
-0.0087890625
0.0040283203125
-0.0098876953125
-0.000732421875
-0.00439453125
-0.003662109375
0.0069580078125
0.0003662109375
0.00146484375
0.013916015625
-0.0172119140625
0.030029296875
-0.0150146484375
0.0208740234375
0.0029296875
0.003662109375
0.013916015625
0.0025634765625
0.012451171875
0.0406494140625
-0.030029296875
0.0703125
-0.0640869140625
0.0633544921875
-0.0604248046875
0.051666259765625
-0.053131103515625
0.027130126953125
-0.029327392578125
-0.0062255859375
-0.00146484375
-0.0018310546875
-0.006591796875
0.0194091796875
-0.019775390625
0.072509765625
-0.13330078125
0.03076171875
-0.0340576171875
-0.022705078125
0.0933837890625
-0.0025634765625
0.0150146484375
-0.0194091796875
0.01904296875
-0.0205078125
0.0216064453125
-0.032958984375
0.0377197265625
-0.047271728515625
0.052764892578125
-0.029693603515625
0.032623291015625
0.0106201171875
-0.0157470703125
0.015777587890625
-0.0245361328125
0.002227783203125
-0.005126953125
0.0
0.0047607421875
-0.001129150390625
0.0062255859375
0.000732421875
0.0003662109375
0.003692626953125
-0.00146484375
0.0018310546875
-0.0003662109375
0.0025634765625
-0.0029296875
0.0281982421875
-0.018707275390625
0.041748046875
-0.020538330078125
0.0263671875
-0.0084228515625
0.019775390625
-0.0076904296875
0.01611328125
-0.0150146484375
0.013916015625
-0.0201416015625
0.005859375
-0.00439453125
-0.01025390625
0.00439453125
-0.01025390625
0.00146484375
-0.0047607421875
0.0040283203125
0.003662109375
-0.0029296875
0.0098876953125
-0.015380859375
0.0047607421875
-0.0238037109375
0.00732421875
-0.016845703125
0.0040283203125
0.00439453125
-0.0025634765625
0.0245361328125
-0.010986328125
0.0384521484375
-0.0128173828125
0.0325927734375
-0.0128173828125
0.021636962890625
0.0615234375
-0.109130859375
-0.00146484375
-0.022369384765625
-0.0867919921875
0.122344970703125
-0.01171875
0.029327392578125
-0.0010986328125
0.0106201171875
-0.0150146484375
0.0179443359375
-0.028564453125
0.0267333984375
-0.0234375
0.031494140625
-0.0120849609375
0.0216064453125
-0.0047607421875
0.006591796875
0.0010986328125
0.0018310546875
0.003662109375
0.0076904296875
0.00146484375
0.027099609375
-0.0010986328125
0.029296875
-0.0032958984375
0.0150146484375
-0.013946533203125
0.01025390625
-0.009918212890625
0.0087890625
0.002197265625
0.0029296875
0.009552001953125
-0.0047607421875
0.000732421875
-0.005126953125
-0.009552001953125
-0.0040283203125
-0.01904296875
0.017578125
0.118682861328125
-0.186431884765625
0.000732421875
-0.0113525390625
-0.140289306640625
0.199249267578125
-0.016845703125
0.0069580078125
-0.01904296875
0.0032958984375
-0.015380859375
0.003662109375
-0.01611328125
0.0098876953125
-0.0230712890625
0.017578125
-0.015380859375
0.013916015625
0.0032958984375
-0.00439453125
0.0128173828125
-0.0128173828125
0.005859375
0.0
-0.000732421875
0.0076904296875
-0.0054931640625
0.0069580078125
-0.0128173828125
0.0032958984375
-0.0025634765625
-0.0062255859375
-0.0010986328125
-0.0113525390625
-0.00146484375
-0.0098876953125
0.006591796875
-0.0087890625
0.010986328125
-0.016845703125
0.006591796875
-0.018310546875
0.0069580078125
-0.008056640625
0.0538330078125
-0.0849609375
0.0164794921875
0.0025634765625
-0.0230712890625
0.090087890625
0.01025390625
0.00439453125
-0.0062255859375
0.0128173828125
-0.0230712890625
0.0032958984375
-0.0238037109375
-0.0205078125
-0.0179443359375
-0.0205078125
-0.0018310546875
-0.03955078125
0.029296875
-0.0736083984375
0.0406494140625
-0.059326171875
0.0303955078125
-0.049835205078125
0.0146484375
-0.034454345703125
0.006591796875
-0.0443115234375
-0.0032958984375
-0.0472412109375
-0.008056640625
0.00146484375
0.0029296875
0.0113525390625
0.00146484375
0.0069580078125
-0.002197265625
-0.003662109375
-0.0069580078125
0.0032958984375
-0.0135498046875
0.0205078125
-0.01171875
0.0076904296875
-0.009521484375
-0.0201416015625
-0.0069580078125
-0.0098876953125
-0.00146484375
0.021240234375
0.0230712890625
-0.0267333984375
-0.00146484375
-0.0670166015625
-0.041015625
0.012451171875
-0.02197265625
0.0450439453125
-0.0146484375
0.0186767578125
-0.022705078125
0.0208740234375
-0.0087890625
0.01611328125
-0.000732421875
0.005126953125
-0.0087890625
0.0150146484375
-0.0531005859375
0.184600830078125
-0.0501708984375
0.168853759765625
