-0.010986328125
0.07763671875
-0.0084228515625
0.0736083984375
0.0076904296875
-0.0091552734375
0.0087890625
-0.0076904296875
0.00146484375
-0.0032958984375
-0.0091552734375
-0.003662109375
-0.01318359375
0.00146484375
-0.0069580078125
0.00732421875
-0.00146484375
0.002197265625
0.002197265625
-0.00439453125
0.002197265625
-0.006591796875
-0.00439453125
-0.0040283203125
-0.005859375
0.003662109375
-0.003662109375
0.008056640625
0.00732421875
-0.0692138671875
0.00439453125
-0.076904296875
-0.0084228515625
0.072509765625
-0.003662109375
0.0772705078125
0.00146484375
-0.000732421875
0.0040283203125
-0.0040283203125
0.005859375
-0.0087890625
0.0076904296875
-0.010986328125
0.0040283203125
-0.002197265625
-0.005126953125
0.00146484375
-0.0084228515625
0.002197265625
-0.0040283203125
0.0054931640625
-0.00146484375
0.0029296875
0.0029296875
-0.0025634765625
0.0054931640625
-0.0087890625
-0.0029296875
-0.0040283203125
-0.0047607421875
0.005126953125
-0.003662109375
0.0091552734375
-0.0076904296875
0.0128173828125
0.0010986328125
-0.1505126953125
-0.0018310546875
-0.0003662109375
-0.0003662109375
0.1534423828125
0.0098876953125
-0.00439453125
0.0054931640625
-0.0047607421875
0.0040283203125
-0.0069580078125
0.00732421875
-0.0084228515625
0.009521484375
-0.005859375
0.002197265625
0.0
-0.005126953125
0.0
-0.005126953125
0.0032958984375
0.0003662109375
0.0018310546875
0.0040283203125
-0.0040283203125
0.006591796875
-0.0084228515625
0.0032958984375
-0.0069580078125
0.0
-0.002197265625
-0.000732421875
0.0040283203125
-0.00146484375
0.0054931640625
0.010986328125
-0.07177734375
0.0091552734375
-0.052734375
-0.005126953125
0.072509765625
-0.0010986328125
0.0498046875
0.005859375
-0.0062255859375
0.0062255859375
-0.0047607421875
0.0084228515625
-0.0084228515625
0.01025390625
-0.01318359375
0.0069580078125
-0.00732421875
0.000732421875
-0.0029296875
-0.00439453125
0.0069580078125
-0.00146484375
0.01171875
0.0018310546875
0.0010986328125
0.0047607421875
-0.0032958984375
0.0040283203125
-0.00146484375
-0.002197265625
0.0
-0.0025634765625
0.0029296875
-0.002197265625
0.0047607421875
-0.0040283203125
0.0054931640625
0.005859375
-0.13330078125
0.0010986328125
0.0054931640625
-0.0040283203125
0.13623046875
0.00439453125
-0.00732421875
0.0025634765625
-0.0054931640625
0.0025634765625
-0.006591796875
0.0040283203125
-0.006591796875
0.0029296875
-0.003662109375
-0.0018310546875
-0.0010986328125
-0.01025390625
-0.000732421875
-0.010986328125
0.0062255859375
-0.00439453125
0.0076904296875
-0.0040283203125
0.0
-0.0032958984375
-0.0032958984375
-0.006591796875
-0.0003662109375
-0.0087890625
0.00439453125
-0.0084228515625
0.0113525390625
-0.006591796875
0.00732421875
0.010986328125
-0.0908203125
0.008056640625
-0.0322265625
-0.009521484375
0.0875244140625
-0.0062255859375
0.028564453125
0.0003662109375
-0.0018310546875
0.005126953125
-0.0054931640625
0.0106201171875
-0.0106201171875
0.0113525390625
-0.0084228515625
0.006591796875
-0.0018310546875
-0.00439453125
-0.0018310546875
-0.0087890625
-0.0018310546875
0.000732421875
-0.0018310546875
0.0062255859375
-0.00146484375
0.0087890625
-0.0010986328125
0.006591796875
-0.0054931640625
-0.00146484375
-0.0062255859375
-0.0010986328125
0.0029296875
0.0040283203125
0.0029296875
0.002197265625
0.0029296875
0.0076904296875
-0.1636962890625
0.0010986328125
0.003662109375
0.0003662109375
0.1658935546875
0.0106201171875
-0.01025390625
0.0047607421875
-0.005859375
0.0069580078125
-0.009521484375
0.0098876953125
-0.01171875
0.01025390625
-0.008056640625
0.0018310546875
-0.00146484375
-0.009521484375
0.0010986328125
-0.0069580078125
0.0029296875
-0.0076904296875
0.0106201171875
-0.01171875
0.0098876953125
-0.01025390625
0.0062255859375
-0.01611328125
0.0098876953125
-0.022705078125
0.0208740234375
-0.02783203125
0.0318603515625
-0.03369140625
0.034423828125
-0.0238037109375
-0.0472412109375
-0.0230712890625
-0.010986328125
-0.0318603515625
0.1072998046875
-0.0194091796875
0.0574951171875
-0.0128173828125
0.0142822265625
-0.0186767578125
0.022735595703125
-0.0172119140625
0.015411376953125
-0.0091552734375
0.0047607421875
0.0
0.0003662109375
0.00146484375
-0.0054931640625
0.00732421875
-0.012847900390625
0.03662109375
-0.032257080078125
0.0699462890625
-0.06591796875
0.076171875
-0.073974609375
0.0648193359375
-0.0655517578125
0.0501708984375
-0.0552978515625
0.03369140625
-0.032958984375
0.0216064453125
-0.0172119140625
0.010986328125
-0.0084228515625
0.0194091796875
-0.153839111328125
0.010986328125
-0.0062255859375
0.0025634765625
0.134429931640625
0.010986328125
-0.0135498046875
0.0069580078125
-0.0098876953125
0.0098876953125
-0.0135498046875
0.0091552734375
-0.0120849609375
0.0076904296875
-0.01171875
0.002197265625
-0.002197265625
-0.0076904296875
0.0054931640625
-0.0087890625
0.01025390625
-0.005126953125
0.0087890625
-0.000732421875
-0.003662109375
0.00146484375
-0.0069580078125
-0.0029296875
-0.00439453125
-0.010986328125
0.0
-0.0146484375
0.009521484375
-0.0146484375
0.01611328125
-0.0018310546875
-0.0501708984375
-0.0010986328125
-0.06298828125
-0.0164794921875
0.0699462890625
-0.009521484375
0.071044921875
-0.002197265625
-0.003662109375
-0.0018310546875
-0.0032958984375
0.002197265625
-0.00439453125
0.0047607421875
-0.00439453125
0.00146484375
-0.0003662109375
-0.0069580078125
-0.000732421875
-0.0098876953125
-0.00146484375
-0.0062255859375
0.005859375
-0.00146484375
0.0040283203125
-0.000732421875
0.00146484375
-0.0032958984375
0.0018310546875
-0.0087890625
0.0018310546875
-0.009521484375
0.0076904296875
-0.0087890625
0.0135498046875
-0.015380859375
0.018310546875
-0.00732421875
-0.151275634765625
-0.01171875
0.0113525390625
-0.01025390625
0.173614501953125
-0.0010986328125
0.006591796875
-0.0054931640625
0.0091552734375
-0.0010986328125
0.003662109375
-0.0025634765625
0.0018310546875
-0.00146484375
0.0032958984375
-0.0029296875
0.0040283203125
-0.0084228515625
0.0
-0.0076904296875
0.0025634765625
-0.0032958984375
0.00732421875
-0.0025634765625
0.0029296875
0.0003662109375
-0.0025634765625
-0.0003662109375
-0.0032958984375
-0.00732421875
0.0040283203125
-0.005126953125
0.0091552734375
-0.0018310546875
0.0054931640625
0.008056640625
-0.078369140625
0.0047607421875
-0.0479736328125
-0.006591796875
0.0823974609375
-0.0003662109375
0.05126953125
0.005126953125
-0.0025634765625
0.005859375
-0.00439453125
0.0054931640625
-0.0062255859375
0.006591796875
-0.009521484375
0.0062255859375
-0.003662109375
0.0010986328125
-0.0003662109375
-0.005126953125
0.00439453125
-0.0025634765625
0.005859375
0.0010986328125
0.0003662109375
0.0010986328125
-0.00146484375
0.002197265625
-0.00439453125
-0.0025634765625
0.0
-0.0029296875
0.00732421875
-0.00146484375
0.0062255859375
-0.0040283203125
0.0047607421875
0.006591796875
-0.1376953125
-0.00146484375
0.0150146484375
-0.00439453125
0.1446533203125
0.0047607421875
-0.0106201171875
0.0018310546875
-0.002197265625
0.0029296875
-0.005859375
0.0029296875
-0.0069580078125
0.003662109375
-0.003662109375
0.0025634765625
-0.00146484375
-0.0032958984375
0.0018310546875
-0.005859375
0.0098876953125
-0.0029296875
0.008056640625
-0.002197265625
-0.0010986328125
0.0032958984375
-0.0054931640625
-0.00146484375
0.0
-0.00732421875
0.00732421875
-0.005126953125
0.0084228515625
-0.006591796875
0.00732421875
0.005859375
-0.0933837890625
0.0003662109375
0.00439453125
-0.01025390625
0.1014404296875
-0.002197265625
0.0025634765625
-0.000732421875
-0.0003662109375
0.0003662109375
-0.0025634765625
0.0029296875
-0.003662109375
0.005859375
-0.005859375
0.002197265625
-0.002197265625
-0.0054931640625
-0.0040283203125
-0.008056640625
0.0
-0.003662109375
0.00439453125
-0.000732421875
0.000732421875
0.000732421875
-0.0025634765625
-0.0018310546875
-0.0054931640625
-0.0054931640625
-0.0025634765625
-0.0040283203125
0.005126953125
-0.00439453125
0.0076904296875
0.000732421875
-0.0281982421875
-0.0025634765625
-0.1475830078125
-0.0106201171875
0.04541015625
-0.0032958984375
0.1556396484375
0.002197265625
-0.008056640625
0.002197265625
-0.00439453125
0.0047607421875
-0.0091552734375
0.0087890625
-0.01025390625
0.0062255859375
-0.0029296875
-0.0018310546875
-0.0010986328125
-0.0084228515625
-0.0025634765625
-0.005126953125
0.0018310546875
0.0010986328125
0.0054931640625
0.0029296875
0.0
0.0047607421875
-0.0062255859375
-0.0003662109375
-0.000732421875
-0.0047607421875
0.008056640625
-0.005859375
0.010986328125
-0.0062255859375
0.009521484375
0.0106201171875
-0.125244140625
0.00146484375
-0.0047607421875
-0.0076904296875
0.129638671875
0.005859375
0.0047607421875
0.005126953125
-0.0025634765625
0.0047607421875
-0.00439453125
0.00732421875
-0.0069580078125
0.0087890625
-0.0069580078125
0.0047607421875
-0.002197265625
-0.0040283203125
-0.002197265625
-0.0076904296875
0.0003662109375
-0.000732421875
0.0047607421875
0.00146484375
0.0025634765625
0.003662109375
-0.0018310546875
0.0040283203125
-0.005126953125
-0.0018310546875
-0.0032958984375
-0.003662109375
0.005859375
-0.0032958984375
0.008056640625
-0.0032958984375
-0.003662109375
-0.0029296875
-0.15966796875
-0.00439453125
0.01611328125
0.0018310546875
0.1614990234375
0.00732421875
-0.013916015625
0.0029296875
-0.0069580078125
0.0047607421875
-0.008056640625
0.006591796875
-0.0113525390625
0.00439453125
-0.0062255859375
0.0
0.000732421875
-0.005859375
0.0029296875
-0.0040283203125
0.005126953125
-0.0003662109375
0.0047607421875
0.0032958984375
-0.0047607421875
0.005126953125
-0.005126953125
0.0010986328125
-0.00146484375
-0.003662109375
0.0025634765625
-0.0062255859375
0.00732421875
-0.00439453125
0.00439453125
0.0076904296875
-0.0780029296875
0.0032958984375
-0.0076904296875
-0.012451171875
0.085693359375
-0.0076904296875
0.013916015625
-0.002197265625
0.0
-0.00146484375
-0.0010986328125
0.0032958984375
-0.002197265625
0.0062255859375
-0.0010986328125
0.0010986328125
0.002197265625
-0.0076904296875
0.000732421875
-0.0087890625
0.0018310546875
-0.0062255859375
0.006591796875
-0.006591796875
0.0040283203125
-0.002197265625
-0.0029296875
0.0
-0.006591796875
-0.006591796875
0.000732421875
-0.00732421875
0.0084228515625
-0.00439453125
0.0076904296875
-0.0076904296875
0.0040283203125
0.000732421875
-0.1695556640625
-0.0062255859375
0.0113525390625
-0.0062255859375
0.176513671875
0.006591796875
-0.006591796875
0.0018310546875
-0.0025634765625
0.005126953125
-0.005859375
0.0084228515625
-0.0054931640625
0.005859375
0.0029296875
-0.002197265625
0.005126953125
-0.0069580078125
-0.005859375
-0.005126953125
-0.0040283203125
-0.0040283203125
0.005859375
-0.00146484375
-0.0003662109375
0.003662109375
-0.0040283203125
0.0025634765625
-0.0032958984375
-0.003662109375
-0.003662109375
-0.002197265625
0.003662109375
0.0
0.0062255859375
0.0076904296875
-0.0369873046875
0.0047607421875
-0.15380859375
-0.005859375
0.0439453125
0.00439453125
0.1527099609375
0.008056640625
-0.005859375
0.0047607421875
-0.0025634765625
0.0087890625
-0.0054931640625
0.0120849609375
-0.0062255859375
0.0076904296875
-0.0018310546875
-0.0018310546875
0.0
-0.0091552734375
-0.002197265625
-0.0084228515625
0.003662109375
-0.0018310546875
0.0029296875
-0.0003662109375
-0.002197265625
0.0032958984375
-0.0047607421875
0.000732421875
-0.0040283203125
-0.005859375
0.0018310546875
-0.00732421875
0.009521484375
-0.0087890625
0.0087890625
0.01171875
-0.0977783203125
0.0029296875
-0.0194091796875
-0.01611328125
0.10400390625
-0.003662109375
0.0245361328125
0.0010986328125
-0.0003662109375
0.000732421875
-0.000732421875
0.0029296875
-0.0040283203125
0.0087890625
-0.0069580078125
0.0069580078125
-0.002197265625
-0.003662109375
-0.0025634765625
-0.0087890625
0.002197265625
-0.0032958984375
0.0062255859375
0.0018310546875
-0.0018310546875
0.0040283203125
-0.0040283203125
0.0054931640625
-0.005126953125
0.0003662109375
-0.002197265625
-0.0029296875
0.0029296875
-0.0029296875
0.005126953125
-0.0047607421875
0.006591796875
0.01171875
-0.1197509765625
0.002197265625
-0.0018310546875
-0.0120849609375
0.1259765625
0.0
0.005126953125
0.0018310546875
-0.0025634765625
0.0047607421875
-0.0054931640625
0.0076904296875
-0.00732421875
0.0087890625
-0.00732421875
0.0047607421875
-0.002197265625
-0.0054931640625
0.0003662109375
-0.0062255859375
0.0003662109375
0.0010986328125
0.0003662109375
0.0018310546875
-0.0029296875
0.005126953125
-0.0047607421875
0.005126953125
-0.0054931640625
-0.000732421875
-0.0047607421875
-0.0003662109375
0.00146484375
0.0047607421875
0.0010986328125
0.00439453125
-0.002197265625
0.0164794921875
-0.1527099609375
0.008056640625
0.0018310546875
0.0
0.1439208984375
0.012451171875
-0.015380859375
0.0069580078125
-0.0069580078125
0.005126953125
-0.0076904296875
0.005126953125
-0.0106201171875
0.00439453125
-0.0069580078125
-0.0003662109375
0.0
-0.0076904296875
0.0076904296875
-0.005859375
0.012451171875
-0.0018310546875
0.01025390625
-0.00146484375
0.0018310546875
-0.000732421875
0.0003662109375
0.0003662109375
0.0010986328125
-0.0003662109375
-0.0018310546875
-0.0032958984375
0.005126953125
-0.002197265625
0.0087890625
0.00439453125
-0.031494140625
0.0047607421875
-0.1043701171875
-0.0098876953125
0.0443115234375
-0.00439453125
0.1036376953125
0.005126953125
-0.0164794921875
-0.0003662109375
-0.0098876953125
-0.0010986328125
-0.0047607421875
0.000732421875
-0.0010986328125
0.003662109375
-0.00146484375
-0.00146484375
-0.0040283203125
-0.00732421875
-0.000732421875
-0.005859375
0.0069580078125
-0.00146484375
0.0025634765625
0.000732421875
-0.002197265625
0.0032958984375
-0.0040283203125
-0.0029296875
0.000732421875
-0.006591796875
0.005859375
-0.0040283203125
0.00439453125
-0.0106201171875
0.01025390625
0.0076904296875
-0.1402587890625
-0.0003662109375
0.002197265625
-0.0098876953125
0.1483154296875
0.005859375
-0.002197265625
0.0029296875
-0.0032958984375
0.006591796875
-0.006591796875
0.0062255859375
-0.0029296875
0.0062255859375
0.003662109375
0.0054931640625
0.0010986328125
-0.0032958984375
-0.0098876953125
-0.0076904296875
-0.00439453125
-0.003662109375
0.0029296875
-0.00146484375
-0.0010986328125
0.0010986328125
-0.0010986328125
0.0
-0.00439453125
-0.006591796875
0.000732421875
-0.008056640625
0.01025390625
-0.0087890625
0.01025390625
-0.009521484375
-0.0003662109375
-0.0054931640625
-0.163330078125
-0.00732421875
0.017578125
-0.002197265625
0.16845703125
0.0025634765625
-0.008056640625
0.0003662109375
-0.000732421875
0.002197265625
-0.0040283203125
0.0040283203125
-0.0069580078125
0.00732421875
-0.0054931640625
0.002197265625
-0.0047607421875
-0.006591796875
-0.003662109375
-0.0054931640625
0.0029296875
0.000732421875
0.000732421875
0.0025634765625
-0.0032958984375
0.0054931640625
-0.005126953125
0.000732421875
-0.003662109375
-0.0047607421875
0.0029296875
-0.00146484375
0.00439453125
-0.0047607421875
0.0062255859375
0.0113525390625
-0.1142578125
0.003662109375
-0.0069580078125
-0.0135498046875
0.12158203125
-0.00439453125
0.01171875
-0.0010986328125
-0.0003662109375
0.0025634765625
-0.00439453125
0.005126953125
-0.0084228515625
0.0098876953125
-0.0098876953125
0.0054931640625
-0.0018310546875
-0.0040283203125
-0.0003662109375
-0.0069580078125
0.0
-0.0018310546875
0.00146484375
0.0
-0.0029296875
0.0018310546875
-0.0054931640625
-0.0003662109375
-0.0084228515625
-0.005859375
-0.0054931640625
-0.0025634765625
0.003662109375
-0.0029296875
0.0084228515625
-0.0040283203125
-0.00146484375
-0.0029296875
-0.153076171875
-0.0047607421875
0.0179443359375
0.000732421875
0.1600341796875
0.0047607421875
-0.00732421875
0.000732421875
-0.000732421875
0.002197265625
-0.0029296875
0.00732421875
-0.0076904296875
0.0054931640625
-0.00439453125
-0.00146484375
-0.00146484375
-0.009521484375
0.0025634765625
-0.00732421875
0.0076904296875
-0.00146484375
0.005126953125
0.0
0.0003662109375
0.003662109375
-0.0029296875
0.0010986328125
-0.0025634765625
-0.0018310546875
0.0010986328125
-0.002197265625
0.00439453125
-0.0025634765625
0.0069580078125
0.008056640625
-0.100341796875
0.006591796875
-0.005859375
-0.0047607421875
0.10693359375
-0.00146484375
0.0069580078125
0.0029296875
-0.0032958984375
0.0040283203125
-0.002197265625
0.006591796875
-0.0062255859375
0.0076904296875
-0.0087890625
0.0032958984375
-0.002197265625
-0.005126953125
0.0029296875
-0.0076904296875
0.008056640625
-0.0029296875
0.0076904296875
-0.00439453125
0.006591796875
-0.003662109375
0.00439453125
-0.0018310546875
-0.0003662109375
-0.0040283203125
-0.00146484375
0.0018310546875
-0.0003662109375
0.0069580078125
0.0
0.0029296875
-0.0146484375
0.0
-0.1387939453125
-0.0010986328125
0.0234375
0.0040283203125
0.13916015625
0.0087890625
-0.01318359375
0.005126953125
-0.006591796875
0.005126953125
-0.0062255859375
0.0054931640625
-0.006591796875
0.002197265625
-0.0032958984375
0.0003662109375
-0.0018310546875
-0.0040283203125
0.0029296875
-0.005859375
0.01025390625
0.000732421875
0.0029296875
0.0062255859375
-0.0069580078125
0.005859375
-0.006591796875
-0.002197265625
-0.000732421875
-0.0076904296875
0.0062255859375
-0.005859375
0.0076904296875
-0.005126953125
0.006591796875
0.01025390625
-0.1116943359375
0.005126953125
0.002197265625
-0.005859375
0.113525390625
0.00439453125
-0.0069580078125
0.0029296875
-0.0040283203125
0.0018310546875
-0.0047607421875
0.0029296875
-0.0062255859375
0.00439453125
-0.0047607421875
0.0047607421875
-0.0032958984375
-0.0018310546875
-0.0029296875
-0.003662109375
0.0025634765625
-0.0003662109375
0.00439453125
0.000732421875
-0.0018310546875
0.002197265625
-0.0029296875
-0.000732421875
-0.0025634765625
-0.0029296875
-0.002197265625
-0.005859375
0.006591796875
-0.0069580078125
0.008056640625
0.0047607421875
-0.0516357421875
0.0010986328125
-0.091552734375
-0.016845703125
0.0611572265625
-0.0113525390625
0.097412109375
0.0
-0.005859375
0.0010986328125
-0.005859375
0.005126953125
-0.006591796875
0.0084228515625
-0.00439453125
0.005126953125
0.000732421875
-0.0032958984375
-0.003662109375
-0.005126953125
-0.00732421875
0.000732421875
-0.0029296875
0.0047607421875
-0.0025634765625
0.0084228515625
-0.0062255859375
0.0047607421875
-0.0076904296875
-0.0054931640625
-0.0003662109375
-0.0076904296875
0.0087890625
-0.0029296875
0.0062255859375
-0.003662109375
-0.000732421875
0.00439453125
-0.178375244140625
-0.0054931640625
0.013916015625
-0.0076904296875
0.187164306640625
0.005126953125
-0.0040283203125
0.0003662109375
-0.0003662109375
0.00439453125
-0.002197265625
0.005859375
-0.0003662109375
0.00439453125
0.0054931640625
0.0003662109375
0.0010986328125
-0.005859375
-0.009521484375
-0.005859375
-0.003662109375
-0.005126953125
0.0062255859375
-0.0018310546875
0.00146484375
0.00439453125
-0.0047607421875
0.0018310546875
-0.00439453125
-0.00439453125
0.0018310546875
-0.0032958984375
0.00732421875
-0.0025634765625
0.0054931640625
0.013916015625
-0.1051025390625
0.0029296875
-0.012451171875
-0.017578125
0.1160888671875
-0.0018310546875
0.0201416015625
0.0029296875
-0.0025634765625
0.0047607421875
-0.005126953125
0.00732421875
-0.0069580078125
0.0062255859375
-0.0018310546875
0.003662109375
0.0032958984375
-0.005126953125
-0.002197265625
-0.00732421875
-0.00439453125
-0.0032958984375
0.0040283203125
-0.000732421875
0.00146484375
0.00439453125
-0.00439453125
0.00439453125
-0.008056640625
-0.000732421875
-0.0069580078125
0.000732421875
0.002197265625
0.002197265625
0.005859375
-0.0010986328125
-0.0029296875
0.0091552734375
-0.174346923828125
-0.0003662109375
0.0150146484375
-0.005126953125
0.178375244140625
0.0040283203125
-0.0047607421875
-0.0003662109375
-0.0003662109375
0.00439453125
-0.0047607421875
0.006591796875
-0.005126953125
0.00439453125
0.0
-0.0047607421875
0.0029296875
-0.0113525390625
-0.0003662109375
-0.0047607421875
-0.002197265625
0.0
0.0003662109375
-0.0018310546875
-0.0010986328125
0.0018310546875
-0.005859375
0.002197265625
-0.0076904296875
-0.0062255859375
0.0
-0.006591796875
0.006591796875
-0.0040283203125
0.0040283203125
0.01171875
-0.099609375
0.0076904296875
-0.0157470703125
-0.0098876953125
0.1029052734375
-0.0040283203125
0.019775390625
-0.000732421875
0.0010986328125
0.0032958984375
-0.003662109375
0.006591796875
-0.0069580078125
0.0087890625
-0.0091552734375
0.0047607421875
-0.0040283203125
-0.0062255859375
0.0018310546875
-0.0069580078125
0.00439453125
-0.0010986328125
0.0062255859375
0.0025634765625
0.000732421875
0.0040283203125
-0.0025634765625
0.0029296875
-0.0040283203125
-0.0040283203125
-0.000732421875
-0.005859375
0.0091552734375
-0.0018310546875
0.0091552734375
-0.0010986328125
-0.0018310546875
0.0047607421875
-0.1512451171875
0.0018310546875
0.0142822265625
0.005859375
0.1527099609375
0.00732421875
-0.008056640625
0.0010986328125
-0.0018310546875
0.00439453125
-0.00439453125
0.005126953125
-0.00732421875
0.005126953125
-0.006591796875
-0.0010986328125
-0.00146484375
-0.00439453125
0.0029296875
-0.0018310546875
0.0076904296875
0.00146484375
0.0029296875
0.0032958984375
-0.0040283203125
0.006591796875
-0.00439453125
0.002197265625
-0.000732421875
-0.003662109375
0.003662109375
-0.0029296875
0.005859375
-0.00439453125
0.006591796875
0.0087890625
-0.1051025390625
0.006591796875
0.0018310546875
-0.0029296875
0.1072998046875
0.0025634765625
-0.00439453125
0.003662109375
-0.0062255859375
0.005126953125
-0.0076904296875
0.0054931640625
-0.0087890625
0.005859375
-0.0087890625
0.0032958984375
-0.003662109375
-0.0003662109375
-0.0029296875
-0.00439453125
0.0047607421875
-0.0025634765625
0.00732421875
0.0003662109375
0.0
0.0003662109375
0.0
0.000732421875
-0.003662109375
-0.005126953125
-0.0018310546875
-0.0062255859375
0.008056640625
-0.0040283203125
0.0098876953125
-0.00146484375
-0.025634765625
0.0
-0.112060546875
-0.0062255859375
0.0421142578125
-0.0025634765625
0.1182861328125
0.0010986328125
-0.0069580078125
0.0
-0.003662109375
0.003662109375
-0.008056640625
0.0054931640625
-0.0091552734375
0.0029296875
-0.0029296875
-0.0025634765625
-0.00146484375
-0.0069580078125
0.0003662109375
-0.0054931640625
0.006591796875
-0.0003662109375
0.0029296875
0.00146484375
-0.0029296875
0.00146484375
-0.005126953125
-0.0054931640625
0.0
-0.005859375
0.006591796875
-0.00439453125
0.008056640625
-0.008056640625
0.01025390625
0.0029296875
-0.148681640625
-0.0032958984375
0.0076904296875
-0.005126953125
0.1556396484375
0.003662109375
-0.00732421875
0.0
-0.0025634765625
0.00146484375
-0.00439453125
0.003662109375
-0.005126953125
0.003662109375
-0.002197265625
-0.0018310546875
-0.00146484375
-0.0084228515625
-0.0040283203125
-0.0098876953125
0.0025634765625
-0.003662109375
0.005859375
0.0
0.000732421875
0.0029296875
-0.00439453125
-0.00146484375
-0.003662109375
-0.0069580078125
0.0032958984375
-0.005126953125
0.006591796875
-0.0047607421875
0.00732421875
0.0098876953125
-0.1182861328125
0.0
-0.00732421875
-0.0120849609375
0.1259765625
-0.000732421875
0.0113525390625
0.0003662109375
-0.00146484375
0.002197265625
-0.0032958984375
0.005859375
-0.0062255859375
0.0087890625
-0.0062255859375
0.0032958984375
0.0018310546875
-0.00732421875
0.0003662109375
-0.01171875
0.000732421875
-0.005126953125
0.005126953125
-0.0003662109375
0.002197265625
0.0076904296875
-0.005859375
0.0120849609375
-0.0157470703125
0.0047607421875
-0.013916015625
0.005126953125
-0.00439453125
0.006591796875
-0.0018310546875
0.01025390625
-0.0406494140625
0.003662109375
-0.145751953125
-0.0062255859375
0.0450439453125
0.000732421875
0.1505126953125
0.0047607421875
-0.0047607421875
0.005126953125
-0.0054931640625
0.0047607421875
-0.0047607421875
0.0069580078125
-0.006591796875
0.006591796875
-0.0010986328125
-0.0010986328125
0.00146484375
-0.009521484375
0.0010986328125
-0.006591796875
0.005126953125
0.0010986328125
0.0029296875
0.002197265625
0.0003662109375
0.005859375
-0.0040283203125
0.000732421875
-0.0029296875
-0.00439453125
0.0040283203125
-0.0025634765625
0.006591796875
-0.00439453125
0.0084228515625
0.008056640625
-0.1278076171875
0.00146484375
-0.0047607421875
-0.00732421875
0.1336669921875
0.0025634765625
0.0054931640625
0.003662109375
-0.0029296875
0.0047607421875
-0.0054931640625
0.0047607421875
-0.006591796875
0.005859375
-0.0054931640625
0.0029296875
0.0
-0.005859375
0.0010986328125
-0.00732421875
0.003662109375
-0.0010986328125
0.0054931640625
0.0003662109375
0.000732421875
0.00146484375
-0.0010986328125
0.00146484375
-0.003662109375
-0.0003662109375
-0.0040283203125
-0.002197265625
0.005859375
-0.0018310546875
0.0084228515625
0.0047607421875
-0.02490234375
0.0032958984375
-0.1292724609375
-0.005126953125
0.03515625
-0.000732421875
0.13330078125
0.00439453125
-0.005859375
0.002197265625
-0.0029296875
0.0029296875
-0.0069580078125
0.00439453125
-0.0087890625
0.0029296875
-0.0018310546875
-0.0010986328125
-0.000732421875
-0.0062255859375
0.0025634765625
-0.0047607421875
0.008056640625
-0.0018310546875
0.0047607421875
-0.0010986328125
0.0003662109375
0.0003662109375
-0.0025634765625
-0.0018310546875
0.0
-0.0047607421875
0.00439453125
-0.0062255859375
0.006591796875
-0.0069580078125
0.0084228515625
0.0069580078125
-0.110595703125
-0.0003662109375
0.003662109375
-0.009521484375
0.1168212890625
0.00146484375
-0.0025634765625
-0.000732421875
-0.0003662109375
0.000732421875
-0.0025634765625
0.003662109375
-0.0047607421875
0.002197265625
0.0
0.0003662109375
0.002197265625
-0.005859375
-0.00439453125
-0.009521484375
-0.0018310546875
-0.0040283203125
0.0047607421875
0.000732421875
-0.0010986328125
0.0054931640625
-0.0047607421875
0.00146484375
-0.00439453125
-0.006591796875
-0.00146484375
-0.0069580078125
0.0087890625
-0.002197265625
0.0076904296875
0.00439453125
-0.0318603515625
-0.000732421875
-0.1519775390625
-0.008056640625
0.0413818359375
-0.0018310546875
0.157470703125
0.00146484375
-0.00439453125
-0.0003662109375
-0.0010986328125
0.0018310546875
-0.0032958984375
0.003662109375
-0.0032958984375
0.0032958984375
0.0010986328125
-0.0032958984375
0.00146484375
-0.0087890625
-0.0025634765625
-0.00439453125
-0.00146484375
0.0003662109375
0.0018310546875
0.0040283203125
-0.00146484375
0.005126953125
-0.005126953125
0.0003662109375
-0.0040283203125
-0.0040283203125
0.0029296875
-0.003662109375
0.005859375
-0.00439453125
0.005859375
0.0106201171875
-0.1083984375
0.00439453125
-0.01318359375
-0.0098876953125
0.1160888671875
0.0
0.016845703125
0.0003662109375
-0.0003662109375
0.00439453125
-0.005126953125
0.008056640625
-0.006591796875
0.009521484375
-0.00439453125
0.005859375
-0.0018310546875
-0.0054931640625
-0.0032958984375
-0.0076904296875
-0.0025634765625
-0.003662109375
0.0047607421875
-0.0003662109375
0.0018310546875
0.0032958984375
-0.0029296875
0.0025634765625
-0.0054931640625
-0.0032958984375
-0.0029296875
-0.0029296875
0.00439453125
-0.0010986328125
0.005126953125
-0.0054931640625
0.005126953125
0.0018310546875
-0.1614990234375
-0.003662109375
0.0087890625
-0.0029296875
0.16845703125
0.0040283203125
-0.0040283203125
-0.002197265625
0.0003662109375
-0.000732421875
-0.0010986328125
0.002197265625
-0.0032958984375
0.005126953125
-0.0018310546875
-0.0003662109375
0.0025634765625
-0.00732421875
0.002197265625
-0.008056640625
0.0062255859375
-0.0025634765625
0.005859375
0.0003662109375
-0.0003662109375
0.002197265625
-0.002197265625
0.0025634765625
-0.005859375
-0.002197265625
-0.0040283203125
-0.0025634765625
0.005126953125
-0.002197265625
0.0069580078125
0.00439453125
-0.04248046875
0.00146484375
-0.1201171875
-0.0047607421875
0.0494384765625
0.0040283203125
0.120849609375
0.006591796875
-0.0062255859375
0.0076904296875
-0.008056640625
0.0091552734375
-0.01171875
0.009521484375
-0.0113525390625
0.00732421875
-0.0054931640625
0.0025634765625
-0.003662109375
-0.0010986328125
-0.0018310546875
-0.0010986328125
0.0047607421875
0.0010986328125
0.002197265625
0.002197265625
-0.0029296875
0.0062255859375
-0.0062255859375
0.0025634765625
-0.003662109375
-0.0018310546875
0.000732421875
-0.0018310546875
0.003662109375
-0.00439453125
0.0062255859375
0.008056640625
-0.0977783203125
0.0084228515625
-0.00732421875
-0.00439453125
0.0992431640625
-0.00146484375
0.0054931640625
0.0032958984375
-0.0040283203125
0.0047607421875
-0.0069580078125
0.006591796875
-0.0091552734375
0.0062255859375
-0.006591796875
0.00146484375
0.000732421875
-0.00439453125
0.0010986328125
-0.0069580078125
0.005126953125
-0.0029296875
0.006591796875
-0.0003662109375
0.0
0.0018310546875
-0.003662109375
0.0
-0.0029296875
-0.00732421875
0.0025634765625
-0.006591796875
0.0069580078125
-0.005126953125
0.0062255859375
-0.01171875
0.01025390625
-0.0032958984375
-0.1497802734375
-0.0106201171875
0.0120849609375
-0.01171875
0.1651611328125
0.003662109375
-0.0054931640625
-0.0025634765625
0.0003662109375
-0.0010986328125
-0.0018310546875
0.0025634765625
-0.0029296875
0.0010986328125
0.0029296875
-0.0029296875
0.0032958984375
-0.01025390625
-0.000732421875
-0.0098876953125
0.0010986328125
-0.00146484375
0.0029296875
0.00439453125
-0.005126953125
0.006591796875
-0.0087890625
0.0018310546875
-0.006591796875
-0.00146484375
-0.0069580078125
0.00439453125
-0.0025634765625
0.0113525390625
-0.0062255859375
0.0208740234375
-0.06298828125
0.0172119140625
-0.13330078125
0.000732421875
0.0494384765625
0.002197265625
0.123046875
0.0076904296875
-0.005859375
0.0091552734375
-0.006591796875
0.01611328125
-0.015380859375
0.0179443359375
-0.01611328125
0.013916015625
-0.008056640625
0.0047607421875
-0.00732421875
-0.0018310546875
-0.0062255859375
-0.0003662109375
0.0010986328125
0.0010986328125
0.0018310546875
0.00146484375
-0.0010986328125
0.002197265625
-0.00146484375
0.0003662109375
-0.0025634765625
-0.0018310546875
-0.0010986328125
-0.000732421875
0.002197265625
-0.0032958984375
0.0062255859375
0.0106201171875
-0.0963134765625
0.00732421875
-0.0216064453125
-0.00732421875
0.0985107421875
0.0025634765625
0.017578125
0.0047607421875
-0.0029296875
0.0069580078125
-0.0054931640625
0.0076904296875
-0.0076904296875
0.006591796875
-0.006591796875
0.003662109375
-0.0010986328125
-0.0047607421875
0.0010986328125
-0.00732421875
0.0025634765625
-0.003662109375
0.0062255859375
0.00146484375
0.0003662109375
0.0018310546875
-0.00146484375
0.00146484375
-0.00146484375
-0.0047607421875
0.0029296875
-0.0084228515625
0.0091552734375
-0.0032958984375
0.006591796875
-0.0025634765625
0.0054931640625
0.013916015625
-0.128936767578125
0.005859375
-0.0040283203125
-0.0029296875
0.121978759765625
0.005126953125
-0.005126953125
-0.000732421875
-0.00146484375
0.000732421875
-0.0040283203125
0.0003662109375
-0.0025634765625
0.000732421875
-0.000732421875
-0.0040283203125
0.005126953125
-0.0113525390625
0.005859375
-0.0113525390625
0.008056640625
-0.006591796875
0.01025390625
-0.00732421875
0.0069580078125
-0.0062255859375
0.0047607421875
-0.002197265625
-0.000732421875
-0.005859375
0.0
-0.0069580078125
0.0069580078125
-0.005859375
0.008056640625
-0.0076904296875
0.008056640625
0.000732421875
-0.140655517578125
-0.0076904296875
0.0146484375
-0.0087890625
0.153106689453125
0.002197265625
-0.008056640625
-0.00146484375
-0.0018310546875
0.00146484375
-0.0047607421875
0.003662109375
-0.0054931640625
0.002197265625
-0.0010986328125
-0.0018310546875
0.0003662109375
-0.008056640625
0.0
-0.0091552734375
0.0047607421875
-0.00439453125
0.006591796875
-0.0025634765625
0.00146484375
0.00146484375
-0.002197265625
-0.0003662109375
-0.00146484375
-0.00439453125
-0.000732421875
-0.003662109375
0.006591796875
-0.002197265625
0.008056640625
0.0054931640625
-0.03515625
0.0018310546875
-0.1402587890625
-0.0091552734375
0.0457763671875
-0.0032958984375
0.1468505859375
0.003662109375
-0.0054931640625
0.003662109375
-0.00439453125
0.005859375
-0.006591796875
0.00732421875
-0.005859375
0.0062255859375
-0.00146484375
-0.0040283203125
0.0
-0.0113525390625
0.000732421875
-0.0047607421875
0.0029296875
0.0003662109375
0.002197265625
0.0010986328125
-0.0029296875
-0.0003662109375
-0.0018310546875
-0.0032958984375
-0.0003662109375
-0.0069580078125
0.0003662109375
-0.006591796875
0.008056640625
-0.005859375
0.0076904296875
0.005859375
-0.05419921875
0.005859375
-0.1171875
-0.010986328125
0.0611572265625
-0.0018310546875
0.1168212890625
0.0069580078125
-0.0076904296875
0.006591796875
-0.0069580078125
0.0098876953125
-0.0098876953125
0.0098876953125
-0.0076904296875
0.006591796875
-0.0032958984375
-0.0032958984375
-0.0018310546875
-0.0084228515625
-0.00146484375
-0.00439453125
0.002197265625
-0.0010986328125
0.003662109375
0.0
0.000732421875
0.003662109375
-0.003662109375
0.0018310546875
-0.0032958984375
-0.0040283203125
0.002197265625
-0.00439453125
0.0069580078125
-0.0047607421875
0.00732421875
0.0087890625
-0.08056640625
0.0054931640625
-0.050537109375
-0.0091552734375
0.088623046875
-0.0029296875
0.0560302734375
0.0003662109375
0.0003662109375
0.0032958984375
-0.0029296875
0.006591796875
-0.0069580078125
0.009521484375
-0.0084228515625
0.0069580078125
-0.0025634765625
-0.0029296875
-0.0003662109375
-0.00732421875
0.002197265625
-0.0029296875
0.0047607421875
0.00146484375
0.0
0.0010986328125
-0.0010986328125
0.00439453125
-0.00439453125
0.00439453125
-0.0069580078125
0.0003662109375
-0.0029296875
-0.0003662109375
0.0047607421875
0.0010986328125
0.0025634765625
0.01318359375
-0.068115234375
0.01025390625
-0.0673828125
-0.0076904296875
0.068115234375
-0.0040283203125
0.06591796875
0.0040283203125
-0.005859375
0.0040283203125
-0.0047607421875
0.0054931640625
-0.0076904296875
0.0062255859375
-0.0084228515625
0.00439453125
-0.0025634765625
-0.0010986328125
-0.000732421875
-0.0084228515625
0.0054931640625
-0.005859375
0.0113525390625
-0.0018310546875
0.0047607421875
0.0003662109375
-0.0025634765625
0.0047607421875
-0.005126953125
0.002197265625
-0.0047607421875
-0.002197265625
0.0
-0.0018310546875
0.00439453125
-0.002197265625
0.003662109375
0.008056640625
-0.0758056640625
0.0054931640625
-0.0113525390625
-0.0146484375
0.0860595703125
-0.0120849609375
0.0194091796875
-0.005126953125
0.0003662109375
-0.003662109375
0.0003662109375
-0.003662109375
-0.0018310546875
-0.006591796875
0.000732421875
-0.008056640625
0.0062255859375
-0.0120849609375
0.0040283203125
-0.0120849609375
0.003662109375
-0.0084228515625
0.0087890625
-0.00439453125
0.0032958984375
-0.000732421875
-0.0029296875
0.0040283203125
-0.005859375
0.00146484375
-0.00439453125
-0.003662109375
0.0025634765625
0.0
0.0032958984375
-0.003662109375
0.00439453125
0.0120849609375
-0.11572265625
0.00439453125
-0.012451171875
-0.0091552734375
0.1171875
0.003662109375
0.01025390625
0.00146484375
-0.0003662109375
0.002197265625
-0.002197265625
0.0032958984375
-0.0032958984375
0.0069580078125
-0.0025634765625
0.0029296875
0.0018310546875
-0.0098876953125
0.0
-0.0135498046875
0.0025634765625
-0.0087890625
0.0091552734375
-0.0025634765625
0.0032958984375
0.0
-0.0003662109375
0.0032958984375
-0.00439453125
0.0
-0.003662109375
-0.0032958984375
0.00146484375
-0.002197265625
0.0054931640625
-0.0054931640625
0.0076904296875
0.0113525390625
-0.111328125
0.003662109375
-0.0150146484375
-0.01025390625
0.114990234375
0.0003662109375
0.01611328125
0.0018310546875
-0.002197265625
0.0025634765625
-0.0040283203125
0.0054931640625
-0.00732421875
0.0087890625
-0.008056640625
0.00439453125
0.000732421875
-0.0040283203125
-0.000732421875
-0.0076904296875
-0.0010986328125
-0.0029296875
0.00439453125
-0.000732421875
0.0032958984375
-0.0003662109375
0.000732421875
0.0029296875
-0.0025634765625
-0.0010986328125
-0.0025634765625
-0.0040283203125
0.002197265625
-0.0025634765625
0.005859375
-0.003662109375
0.0062255859375
0.0098876953125
-0.1083984375
0.0047607421875
-0.0128173828125
-0.00732421875
0.113525390625
0.000732421875
0.0135498046875
0.0018310546875
-0.00146484375
0.00439453125
-0.003662109375
0.008056640625
-0.0087890625
0.0087890625
-0.008056640625
0.005859375
-0.0018310546875
-0.0029296875
-0.0003662109375
-0.0047607421875
0.0003662109375
-0.0010986328125
0.00439453125
0.0010986328125
0.00146484375
0.0018310546875
-0.002197265625
0.00146484375
-0.002197265625
0.0
-0.0010986328125
-0.003662109375
0.00439453125
-0.0018310546875
0.0069580078125
-0.0018310546875
0.005126953125
0.0091552734375
-0.0985107421875
0.008056640625
-0.005859375
-0.00439453125
0.101806640625
0.0003662109375
0.006591796875
0.003662109375
-0.002197265625
0.003662109375
-0.0047607421875
0.0025634765625
-0.0047607421875
0.005126953125
-0.0040283203125
0.0040283203125
-0.0010986328125
-0.002197265625
0.0
-0.0029296875
0.0025634765625
0.0003662109375
0.005859375
0.002197265625
-0.00146484375
0.000732421875
-0.0025634765625
0.0032958984375
-0.0040283203125
0.0010986328125
-0.0029296875
-0.0032958984375
0.0047607421875
-0.003662109375
0.0062255859375
-0.00732421875
0.0069580078125
0.00732421875
-0.1087646484375
0.00146484375
0.0047607421875
-0.0091552734375
0.1138916015625
0.0003662109375
-0.0029296875
-0.0003662109375
-0.0029296875
0.0029296875
-0.005859375
0.0054931640625
-0.0076904296875
0.0062255859375
-0.005859375
0.0018310546875
-0.000732421875
-0.006591796875
-0.0029296875
-0.0098876953125
0.00146484375
-0.00439453125
0.0069580078125
0.0
0.0010986328125
0.003662109375
-0.0047607421875
0.0032958984375
-0.0054931640625
-0.005859375
0.000732421875
-0.005859375
0.0062255859375
-0.002197265625
0.005859375
-0.0069580078125
0.008056640625
-0.0010986328125
-0.1552734375
-0.008056640625
0.0087890625
-0.0084228515625
0.167724609375
0.003662109375
-0.0029296875
-0.000732421875
-0.0018310546875
0.00146484375
-0.00439453125
0.006591796875
-0.0047607421875
0.0054931640625
0.002197265625
-0.002197265625
0.0032958984375
-0.01171875
-0.0025634765625
-0.012451171875
0.003662109375
-0.0029296875
0.0047607421875
0.0029296875
-0.003662109375
0.005126953125
-0.0047607421875
0.0018310546875
-0.00439453125
-0.0032958984375
-0.002197265625
-0.0018310546875
0.0029296875
0.002197265625
0.0018310546875
-0.002197265625
0.0040283203125
0.0032958984375
-0.1666259765625
-0.0040283203125
0.0040283203125
-0.00146484375
0.1702880859375
0.0128173828125
-0.0087890625
0.0047607421875
-0.0047607421875
0.005859375
-0.005126953125
0.0076904296875
-0.008056640625
0.00732421875
-0.005859375
0.00146484375
-0.00146484375
-0.0076904296875
-0.0047607421875
-0.0076904296875
-0.0032958984375
-0.0025634765625
0.002197265625
0.000732421875
-0.0010986328125
0.0025634765625
-0.0029296875
0.0025634765625
-0.0069580078125
-0.0047607421875
-0.00439453125
-0.0047607421875
0.0054931640625
0.0
0.0054931640625
-0.00146484375
-0.0003662109375
0.008056640625
-0.171783447265625
-0.0003662109375
0.0025634765625
-0.0010986328125
0.164093017578125
0.0069580078125
-0.0087890625
0.0010986328125
-0.0025634765625
0.0025634765625
-0.0047607421875
0.005859375
-0.006591796875
0.005859375
-0.002197265625
-0.0040283203125
0.003662109375
-0.010986328125
0.0032958984375
-0.009521484375
0.00732421875
-0.00146484375
0.005859375
0.0018310546875
-0.0003662109375
0.00146484375
0.0
0.00146484375
-0.0025634765625
-0.0032958984375
-0.0018310546875
-0.0029296875
0.0062255859375
-0.0010986328125
0.0076904296875
-0.0025634765625
0.00146484375
0.000732421875
-0.160430908203125
-0.0054931640625
0.01611328125
0.0
0.170318603515625
0.009521484375
-0.0062255859375
0.003662109375
-0.00146484375
0.0054931640625
-0.005126953125
0.01025390625
-0.01171875
0.01025390625
-0.0084228515625
0.0040283203125
-0.0025634765625
-0.0040283203125
0.00146484375
-0.0040283203125
0.005126953125
0.000732421875
0.0025634765625
0.000732421875
0.0003662109375
0.00146484375
-0.0003662109375
0.00146484375
-0.00439453125
-0.0003662109375
-0.0032958984375
-0.002197265625
0.0062255859375
-0.0018310546875
0.00732421875
0.00146484375
-0.009521484375
0.0029296875
-0.1402587890625
-0.0040283203125
0.0238037109375
-0.002197265625
0.147216796875
0.00439453125
-0.009521484375
0.002197265625
-0.0040283203125
0.0047607421875
-0.0062255859375
0.0047607421875
-0.0084228515625
0.0029296875
-0.0025634765625
-0.000732421875
0.0003662109375
-0.00732421875
0.0047607421875
-0.005859375
0.0106201171875
-0.0003662109375
0.00439453125
0.0032958984375
-0.005859375
0.0040283203125
-0.0040283203125
0.0032958984375
-0.003662109375
0.00146484375
-0.0047607421875
0.0
0.002197265625
0.000732421875
0.0040283203125
0.0062255859375
-0.0355224609375
0.003662109375
-0.107666015625
-0.009521484375
0.04541015625
-0.00146484375
0.107666015625
0.00732421875
-0.010986328125
0.00439453125
-0.005126953125
0.00439453125
-0.0076904296875
0.003662109375
-0.005859375
0.002197265625
-0.00146484375
-0.003662109375
-0.0010986328125
-0.0091552734375
0.00146484375
-0.008056640625
0.00732421875
-0.0018310546875
0.00439453125
0.000732421875
-0.0029296875
0.002197265625
-0.0054931640625
-0.00146484375
-0.0018310546875
-0.00732421875
0.0054931640625
-0.0076904296875
0.0084228515625
-0.0084228515625
0.008056640625
0.0091552734375
-0.0911865234375
0.00146484375
-0.027099609375
-0.01611328125
0.101806640625
-0.0047607421875
0.0340576171875
-0.00146484375
0.0
0.000732421875
-0.0032958984375
0.0029296875
-0.005126953125
0.003662109375
-0.0018310546875
-0.0003662109375
0.0029296875
-0.0091552734375
-0.002197265625
-0.0113525390625
-0.0025634765625
-0.005126953125
0.0025634765625
-0.0010986328125
0.0018310546875
-0.0003662109375
0.0
0.00439453125
-0.0047607421875
0.0010986328125
-0.0032958984375
-0.00439453125
0.0025634765625
-0.0040283203125
0.006591796875
-0.0032958984375
0.0054931640625
0.0135498046875
-0.1109619140625
0.003662109375
-0.0223388671875
-0.010986328125
0.113525390625
0.0
0.024169921875
0.0025634765625
-0.0025634765625
0.00439453125
-0.005126953125
0.006591796875
-0.0047607421875
0.009521484375
-0.006591796875
0.00732421875
-0.003662109375
0.0003662109375
-0.006591796875
-0.0032958984375
-0.006591796875
-0.0003662109375
0.0003662109375
0.0010986328125
0.00146484375
0.0032958984375
-0.0029296875
0.00439453125
-0.0054931640625
-0.0029296875
0.0
-0.0069580078125
0.0062255859375
-0.00732421875
0.0098876953125
-0.0091552734375
0.010986328125
0.0069580078125
-0.11279296875
0.0010986328125
-0.012451171875
-0.013916015625
0.1234130859375
-0.0032958984375
0.0172119140625
0.000732421875
-0.00146484375
0.003662109375
-0.0047607421875
0.00732421875
-0.0076904296875
0.0069580078125
-0.005859375
0.00439453125
-0.00146484375
-0.0047607421875
-0.000732421875
-0.0087890625
0.00146484375
-0.0018310546875
0.0029296875
0.002197265625
-0.000732421875
0.0040283203125
-0.0032958984375
0.0032958984375
-0.003662109375
0.0
-0.0040283203125
-0.002197265625
0.00146484375
0.0
0.005126953125
-0.0029296875
0.0054931640625
0.0087890625
-0.113525390625
0.0040283203125
-0.0113525390625
-0.0098876953125
0.119384765625
0.0
0.01318359375
0.00146484375
-0.00146484375
0.003662109375
-0.00439453125
0.0054931640625
-0.006591796875
0.0062255859375
-0.0054931640625
0.002197265625
0.0010986328125
-0.0054931640625
0.000732421875
-0.005859375
0.00146484375
-0.0029296875
0.0047607421875
0.00146484375
-0.0003662109375
0.003662109375
-0.003662109375
0.005126953125
-0.005859375
0.000732421875
-0.002197265625
-0.0029296875
0.0032958984375
-0.0025634765625
0.0054931640625
-0.005126953125
0.0076904296875
0.0062255859375
-0.1007080078125
0.002197265625
-0.00439453125
-0.0076904296875
0.1087646484375
-0.00146484375
0.0087890625
0.00146484375
-0.00146484375
0.0047607421875
-0.005126953125
0.0062255859375
-0.0076904296875
0.006591796875
-0.00732421875
0.0040283203125
-0.0025634765625
-0.0032958984375
0.0003662109375
-0.0069580078125
0.0047607421875
-0.0003662109375
0.005126953125
0.003662109375
-0.0018310546875
0.0032958984375
-0.0040283203125
0.0040283203125
-0.0032958984375
0.0
-0.002197265625
-0.0047607421875
0.002197265625
-0.005126953125
0.006591796875
-0.0047607421875
0.006591796875
0.00732421875
-0.081298828125
0.0054931640625
-0.01025390625
-0.01171875
0.090087890625
-0.0069580078125
0.01611328125
0.0
0.0003662109375
0.0010986328125
-0.0018310546875
0.005859375
-0.0087890625
0.005859375
-0.0084228515625
0.0029296875
-0.0018310546875
-0.0032958984375
-0.0029296875
-0.008056640625
0.002197265625
-0.0062255859375
0.0098876953125
-0.0018310546875
0.0025634765625
0.000732421875
-0.003662109375
0.0029296875
-0.00439453125
0.000732421875
-0.0040283203125
-0.0062255859375
0.0040283203125
-0.005126953125
0.0062255859375
-0.005126953125
0.0040283203125
0.0098876953125
-0.0977783203125
0.005126953125
-0.0186767578125
-0.008056640625
0.098876953125
0.002197265625
0.01611328125
0.0018310546875
-0.0018310546875
0.0025634765625
-0.0054931640625
0.005126953125
-0.0076904296875
0.0084228515625
-0.006591796875
0.005859375
-0.0025634765625
-0.0040283203125
-0.00439453125
-0.006591796875
-0.0040283203125
-0.003662109375
0.0040283203125
-0.000732421875
0.0032958984375
0.0003662109375
-0.0003662109375
0.0025634765625
-0.0025634765625
0.0
-0.0040283203125
-0.0029296875
-0.000732421875
-0.0025634765625
0.006591796875
-0.003662109375
0.0062255859375
0.01025390625
-0.076904296875
0.0054931640625
-0.0816650390625
-0.0087890625
0.08056640625
-0.002197265625
0.08349609375
0.00146484375
-0.00146484375
0.0029296875
-0.0032958984375
0.0069580078125
-0.006591796875
0.00732421875
-0.0054931640625
0.0032958984375
-0.000732421875
-0.003662109375
-0.0003662109375
-0.0106201171875
0.0025634765625
-0.0062255859375
0.0054931640625
-0.00146484375
0.0029296875
-0.000732421875
-0.0010986328125
0.0040283203125
-0.00439453125
0.0032958984375
-0.006591796875
-0.000732421875
-0.0062255859375
0.0
0.0025634765625
0.0054931640625
0.0
0.0135498046875
-0.0322265625
0.01171875
-0.171417236328125
0.00439453125
0.0238037109375
0.01171875
0.156768798828125
0.0150146484375
-0.0150146484375
0.0087890625
-0.0091552734375
0.0106201171875
-0.010986328125
0.010986328125
-0.01171875
0.009521484375
-0.006591796875
0.003662109375
-0.00146484375
-0.00439453125
-0.0003662109375
-0.003662109375
0.0025634765625
0.0003662109375
0.0032958984375
0.0010986328125
0.000732421875
0.0010986328125
0.0
0.0025634765625
-0.00439453125
-0.0032958984375
-0.002197265625
-0.005859375
0.0062255859375
-0.0018310546875
0.006591796875
0.0
0.0040283203125
0.0164794921875
-0.154571533203125
0.01171875
-0.010986328125
0.0098876953125
0.132598876953125
0.01904296875
-0.018310546875
0.009521484375
-0.0098876953125
0.00439453125
-0.00732421875
0.00146484375
-0.005859375
0.0003662109375
-0.0010986328125
-0.0040283203125
0.006591796875
-0.0106201171875
0.0069580078125
-0.012451171875
0.0098876953125
-0.00732421875
0.0113525390625
-0.0062255859375
0.0054931640625
-0.005859375
0.00439453125
-0.0018310546875
0.00146484375
-0.005126953125
0.0018310546875
-0.01025390625
0.0098876953125
-0.010986328125
0.0135498046875
-0.01318359375
0.01171875
-0.0003662109375
-0.1007080078125
-0.0054931640625
0.00732421875
-0.0150146484375
0.117919921875
-0.003662109375
0.0047607421875
-0.0029296875
0.000732421875
-0.00146484375
-0.002197265625
0.0010986328125
-0.0047607421875
0.00146484375
-0.0010986328125
0.0
0.0025634765625
-0.00732421875
-0.0003662109375
-0.01025390625
0.0010986328125
-0.005126953125
0.0062255859375
-0.0018310546875
0.0032958984375
-0.002197265625
0.0
-0.00146484375
0.0003662109375
-0.0025634765625
-0.0003662109375
-0.008056640625
0.003662109375
-0.008056640625
0.0091552734375
-0.005859375
0.008056640625
0.009521484375
-0.076904296875
0.0040283203125
-0.06884765625
-0.013916015625
0.08642578125
-0.00439453125
0.0758056640625
0.0003662109375
0.002197265625
0.0010986328125
-0.0003662109375
0.0032958984375
-0.003662109375
0.005126953125
-0.0040283203125
0.0032958984375
0.0
-0.005859375
0.002197265625
-0.0120849609375
0.003662109375
-0.0091552734375
0.0076904296875
-0.0018310546875
0.0040283203125
0.0003662109375
-0.000732421875
0.0062255859375
-0.006591796875
0.009521484375
-0.01318359375
0.0018310546875
-0.008056640625
-0.0003662109375
0.0029296875
-0.0003662109375
0.0062255859375
-0.0040283203125
0.0069580078125
0.0003662109375
-0.161895751953125
-0.0040283203125
0.0087890625
-0.0018310546875
0.172515869140625
0.0076904296875
-0.00439453125
0.0032958984375
-0.0025634765625
0.00439453125
-0.00439453125
0.008056640625
-0.00732421875
0.008056640625
-0.005126953125
0.0029296875
-0.0003662109375
-0.006591796875
0.00146484375
-0.0076904296875
0.0029296875
-0.00146484375
0.003662109375
0.003662109375
-0.0018310546875
0.003662109375
-0.00439453125
0.0032958984375
-0.0054931640625
0.002197265625
-0.005126953125
-0.0018310546875
0.0010986328125
-0.00146484375
0.0040283203125
-0.0047607421875
0.005859375
0.0084228515625
-0.1109619140625
0.0047607421875
-0.010986328125
-0.0062255859375
0.1109619140625
0.0025634765625
0.0054931640625
0.0029296875
-0.0032958984375
0.003662109375
-0.0047607421875
0.0029296875
-0.0069580078125
0.00439453125
-0.00732421875
0.0029296875
0.0
-0.005126953125
0.00439453125
-0.0076904296875
0.0062255859375
-0.0029296875
0.0087890625
-0.0003662109375
0.0040283203125
-0.000732421875
-0.000732421875
0.000732421875
-0.0003662109375
0.0
0.000732421875
-0.0025634765625
-0.00146484375
-0.0032958984375
0.005859375
-0.0032958984375
0.0091552734375
0.0
-0.005126953125
0.0047607421875
-0.1402587890625
-0.0025634765625
0.0201416015625
-0.0010986328125
0.14501953125
0.006591796875
-0.0113525390625
0.0032958984375
-0.0040283203125
0.0029296875
-0.00439453125
0.0018310546875
-0.005126953125
0.0025634765625
-0.0025634765625
0.0018310546875
-0.0003662109375
-0.00439453125
0.0010986328125
-0.003662109375
0.003662109375
-0.000732421875
0.005126953125
-0.000732421875
0.0003662109375
0.0
-0.0018310546875
0.0018310546875
-0.0025634765625
-0.0025634765625
-0.0003662109375
-0.0047607421875
0.00439453125
-0.0018310546875
0.005126953125
-0.006591796875
0.008056640625
0.0087890625
-0.12451171875
-0.000732421875
-0.0029296875
-0.0087890625
0.12744140625
0.0054931640625
0.000732421875
0.0
-0.002197265625
0.0010986328125
-0.0047607421875
0.00439453125
-0.005126953125
0.008056640625
-0.0054931640625
0.005126953125
-0.00146484375
-0.0040283203125
-0.00439453125
-0.0091552734375
-0.0018310546875
-0.00439453125
0.0047607421875
-0.0003662109375
0.000732421875
-0.0003662109375
-0.0018310546875
0.0029296875
-0.00439453125
-0.0003662109375
-0.00439453125
-0.005126953125
0.0003662109375
-0.00439453125
0.00732421875
-0.0018310546875
0.005859375
0.0098876953125
-0.062255859375
0.0040283203125
-0.109130859375
-0.010986328125
0.068115234375
-0.0040283203125
0.1142578125
0.003662109375
-0.0032958984375
0.0040283203125
-0.00439453125
0.005859375
-0.0054931640625
0.0084228515625
-0.00732421875
0.0054931640625
-0.0029296875
-0.003662109375
0.0
-0.009521484375
0.0003662109375
-0.0069580078125
0.0029296875
-0.0032958984375
0.00439453125
-0.000732421875
0.000732421875
0.000732421875
-0.0029296875
0.0032958984375
-0.0069580078125
-0.0010986328125
-0.0032958984375
-0.00439453125
0.0047607421875
-0.00146484375
0.0047607421875
-0.005859375
0.0087890625
0.0062255859375
-0.13623046875
-0.0032958984375
-0.0047607421875
-0.0087890625
0.142822265625
0.005126953125
0.0047607421875
0.0018310546875
-0.00146484375
0.003662109375
-0.003662109375
0.005859375
-0.005126953125
0.0062255859375
-0.005126953125
0.0003662109375
0.00146484375
-0.006591796875
0.00146484375
-0.009521484375
0.00146484375
-0.0047607421875
0.005126953125
0.0003662109375
0.0
0.000732421875
-0.0029296875
0.0018310546875
-0.0025634765625
0.0010986328125
-0.005126953125
-0.0018310546875
-0.003662109375
-0.0040283203125
0.00732421875
-0.0029296875
0.0069580078125
0.0003662109375
-0.0157470703125
-0.0032958984375
-0.1593017578125
-0.0054931640625
0.027099609375
0.0032958984375
0.1669921875
0.005859375
-0.0062255859375
0.0010986328125
-0.0025634765625
0.003662109375
-0.003662109375
0.006591796875
-0.0062255859375
0.008056640625
-0.00439453125
0.0040283203125
0.0010986328125
-0.005126953125
0.0032958984375
-0.003662109375
0.0029296875
0.00146484375
0.0025634765625
0.003662109375
-0.0032958984375
0.003662109375
-0.00439453125
0.005126953125
-0.003662109375
0.0025634765625
-0.0040283203125
-0.002197265625
0.0003662109375
0.0003662109375
0.0025634765625
-0.000732421875
0.0025634765625
0.0098876953125
-0.085693359375
0.008056640625
-0.0234375
-0.0069580078125
0.088623046875
-0.0032958984375
0.0245361328125
0.0010986328125
-0.0018310546875
0.0010986328125
-0.002197265625
0.0040283203125
-0.005126953125
0.0054931640625
-0.00732421875
0.0029296875
-0.0018310546875
-0.0010986328125
0.0003662109375
-0.0054931640625
0.0047607421875
-0.003662109375
0.0087890625
-0.000732421875
0.0018310546875
-0.0003662109375
-0.000732421875
0.000732421875
0.0
0.0018310546875
-0.003662109375
0.0
-0.0032958984375
-0.0025634765625
0.00439453125
-0.0029296875
0.0069580078125
-0.0040283203125
0.00146484375
0.003662109375
-0.1376953125
-0.003662109375
0.01611328125
-0.006591796875
0.144287109375
0.0040283203125
-0.0098876953125
0.00146484375
-0.003662109375
0.0040283203125
-0.0069580078125
0.0032958984375
-0.005859375
0.0025634765625
-0.0029296875
0.0
0.0003662109375
-0.0069580078125
0.000732421875
-0.0076904296875
0.005859375
-0.0032958984375
0.00732421875
-0.0003662109375
-0.0003662109375
-0.0029296875
-0.0003662109375
0.0
-0.002197265625
-0.0040283203125
0.0003662109375
-0.0069580078125
0.005859375
-0.00439453125
0.005859375
-0.0076904296875
0.0087890625
0.010986328125
-0.1336669921875
0.0
-0.00732421875
-0.0098876953125
0.1365966796875
0.00439453125
0.0032958984375
0.00146484375
-0.0032958984375
0.0018310546875
-0.0040283203125
0.0029296875
-0.00439453125
0.006591796875
-0.0032958984375
0.0029296875
0.0010986328125
-0.008056640625
-0.0025634765625
-0.01171875
-0.0003662109375
-0.0047607421875
0.0047607421875
0.0
0.0003662109375
0.0018310546875
-0.0025634765625
0.0032958984375
-0.0029296875
0.0
-0.005126953125
-0.0040283203125
-0.003662109375
-0.0047607421875
0.0076904296875
-0.003662109375
0.0076904296875
0.0003662109375
-0.0194091796875
-0.0025634765625
-0.1680908203125
-0.0062255859375
0.0318603515625
0.002197265625
0.17431640625
0.005126953125
-0.00732421875
0.0029296875
-0.0040283203125
0.0054931640625
-0.005126953125
0.005859375
-0.005126953125
0.0054931640625
-0.0025634765625
-0.0029296875
0.0018310546875
-0.01025390625
-0.0003662109375
-0.0076904296875
0.0003662109375
-0.002197265625
0.0029296875
0.002197265625
-0.0018310546875
0.00146484375
-0.0029296875
0.0029296875
-0.0054931640625
-0.0018310546875
-0.0032958984375
-0.003662109375
0.0025634765625
-0.0029296875
0.005126953125
-0.005859375
0.00732421875
0.0120849609375
-0.123046875
-0.000732421875
-0.0076904296875
-0.01611328125
0.132568359375
-0.0047607421875
0.0157470703125
-0.00439453125
0.00146484375
0.0025634765625
-0.0040283203125
0.01171875
-0.0098876953125
0.0120849609375
-0.0091552734375
0.00439453125
-0.0018310546875
-0.003662109375
-0.0018310546875
-0.0062255859375
0.0003662109375
-0.000732421875
0.0047607421875
0.0010986328125
0.0018310546875
0.0003662109375
-0.0018310546875
0.002197265625
-0.0029296875
0.0032958984375
-0.0047607421875
-0.000732421875
-0.0029296875
-0.00439453125
0.00732421875
-0.003662109375
0.009521484375
0.000732421875
-0.0128173828125
0.0032958984375
-0.16259765625
-0.002197265625
0.0260009765625
0.003662109375
0.1658935546875
0.0084228515625
-0.008056640625
0.00439453125
-0.003662109375
0.0069580078125
-0.0076904296875
0.0084228515625
-0.0098876953125
0.008056640625
-0.0069580078125
0.0032958984375
-0.002197265625
-0.002197265625
-0.00146484375
-0.0032958984375
0.002197265625
-0.0003662109375
0.0032958984375
0.0029296875
-0.00146484375
0.0018310546875
-0.0010986328125
0.0025634765625
-0.0025634765625
0.0
-0.0018310546875
-0.0025634765625
0.0018310546875
-0.0029296875
0.0047607421875
-0.005859375
0.0069580078125
0.00732421875
-0.100341796875
0.0069580078125
-0.0084228515625
-0.00439453125
0.1029052734375
-0.0003662109375
0.006591796875
0.0047607421875
-0.005859375
0.005126953125
-0.008056640625
0.005126953125
-0.0087890625
0.00732421875
-0.0091552734375
0.0069580078125
-0.0062255859375
0.0040283203125
-0.0062255859375
-0.0003662109375
-0.00146484375
-0.0018310546875
0.005859375
-0.002197265625
0.0040283203125
-0.002197265625
0.0
-0.002197265625
0.0018310546875
-0.00146484375
0.00146484375
-0.0054931640625
0.0018310546875
-0.00732421875
0.0091552734375
-0.0032958984375
0.009521484375
0.00146484375
-0.022705078125
-0.0010986328125
-0.1343994140625
-0.0084228515625
0.0380859375
0.0
0.1387939453125
0.0047607421875
-0.008056640625
0.000732421875
-0.0025634765625
0.000732421875
-0.0040283203125
0.0018310546875
-0.0029296875
0.00146484375
0.0
-0.0047607421875
0.000732421875
-0.0087890625
-0.0018310546875
-0.0047607421875
0.0010986328125
0.0010986328125
0.000732421875
0.0018310546875
-0.0032958984375
0.0018310546875
-0.002197265625
0.0003662109375
-0.003662109375
-0.00439453125
-0.0025634765625
-0.0029296875
0.00439453125
-0.0029296875
0.005859375
-0.0062255859375
0.005859375
0.002197265625
-0.163726806640625
-0.00439453125
0.002197265625
-0.0040283203125
0.167388916015625
0.005126953125
-0.003662109375
0.000732421875
-0.0029296875
0.0040283203125
-0.005126953125
0.0062255859375
-0.006591796875
0.0069580078125
-0.0032958984375
0.0003662109375
0.000732421875
-0.0098876953125
-0.00146484375
-0.0084228515625
0.0003662109375
-0.0062255859375
0.0076904296875
-0.0018310546875
0.0025634765625
0.005859375
-0.0062255859375
0.0047607421875
-0.0054931640625
-0.00146484375
-0.0010986328125
-0.005126953125
0.0040283203125
-0.0029296875
0.005859375
-0.003662109375
0.005859375
0.0106201171875
-0.1083984375
0.00439453125
-0.0146484375
-0.01171875
0.114990234375
-0.0010986328125
0.01611328125
0.0018310546875
-0.00146484375
0.0040283203125
-0.0040283203125
0.006591796875
-0.006591796875
0.00732421875
-0.005126953125
0.0040283203125
-0.00146484375
-0.00439453125
-0.000732421875
-0.0069580078125
0.0010986328125
-0.005126953125
0.005859375
-0.000732421875
0.0018310546875
0.00146484375
-0.0018310546875
0.0032958984375
-0.0029296875
0.0025634765625
-0.005126953125
-0.00146484375
-0.0032958984375
-0.0018310546875
0.0062255859375
-0.003662109375
0.0091552734375
0.0029296875
-0.0377197265625
-0.0003662109375
-0.1318359375
-0.01025390625
0.05419921875
-0.00146484375
0.141357421875
0.0047607421875
-0.006591796875
0.00439453125
-0.0047607421875
0.00732421875
-0.0084228515625
0.0087890625
-0.009521484375
0.0054931640625
-0.0018310546875
-0.0025634765625
0.0018310546875
-0.0087890625
0.0032958984375
-0.0047607421875
0.0062255859375
-0.000732421875
0.003662109375
0.0003662109375
-0.0010986328125
0.0025634765625
-0.0032958984375
0.0
-0.002197265625
-0.003662109375
0.0003662109375
-0.0047607421875
0.0084228515625
-0.0025634765625
0.008056640625
-0.0025634765625
0.0029296875
0.008056640625
-0.1505126953125
-0.0003662109375
0.0087890625
-0.0040283203125
0.1527099609375
0.0098876953125
-0.01171875
0.00439453125
-0.005859375
0.00732421875
-0.0091552734375
0.00732421875
-0.0106201171875
0.003662109375
-0.005859375
0.0010986328125
-0.000732421875
-0.0032958984375
0.0003662109375
-0.0018310546875
0.0029296875
0.0003662109375
0.0054931640625
0.0010986328125
0.0
0.00146484375
-0.0029296875
0.0040283203125
-0.00439453125
0.0003662109375
-0.000732421875
-0.0040283203125
0.005126953125
-0.00146484375
0.003662109375
-0.0029296875
0.005126953125
0.010986328125
-0.1197509765625
0.0
0.005126953125
-0.01025390625
0.123046875
0.003662109375
-0.0069580078125
0.0029296875
-0.003662109375
0.0029296875
-0.0047607421875
0.002197265625
-0.005859375
0.0040283203125
-0.0054931640625
0.003662109375
-0.00146484375
-0.0025634765625
-0.0003662109375
-0.0069580078125
0.0040283203125
-0.002197265625
0.0062255859375
0.0010986328125
-0.0003662109375
0.0
-0.0040283203125
0.002197265625
-0.00439453125
-0.00146484375
0.000732421875
-0.0076904296875
0.0076904296875
-0.0084228515625
0.01025390625
-0.0091552734375
0.009521484375
0.006591796875
-0.1025390625
0.0003662109375
0.0010986328125
-0.0135498046875
0.112060546875
-0.0010986328125
0.0025634765625
0.0025634765625
-0.0047607421875
0.00439453125
-0.00732421875
0.0084228515625
-0.0098876953125
0.006591796875
-0.0054931640625
0.0018310546875
0.000732421875
-0.005859375
-0.0025634765625
-0.009521484375
-0.0010986328125
-0.0029296875
0.0032958984375
0.00146484375
0.000732421875
0.0029296875
-0.0032958984375
0.0032958984375
-0.0047607421875
0.000732421875
-0.005126953125
-0.0025634765625
-0.000732421875
-0.0032958984375
0.005859375
-0.003662109375
0.005126953125
0.0113525390625
-0.082763671875
0.0062255859375
-0.0618896484375
-0.0135498046875
0.0882568359375
-0.00439453125
0.0640869140625
0.000732421875
-0.00146484375
0.0032958984375
-0.003662109375
0.0084228515625
-0.0069580078125
0.0069580078125
-0.0047607421875
0.006591796875
-0.003662109375
0.00146484375
-0.0062255859375
-0.005859375
-0.003662109375
-0.005859375
0.00439453125
-0.000732421875
0.003662109375
0.00146484375
0.0
0.002197265625
-0.0025634765625
0.00146484375
-0.005859375
-0.0047607421875
-0.0025634765625
-0.005859375
0.0076904296875
-0.00439453125
0.0098876953125
-0.00439453125
0.002197265625
0.0010986328125
-0.164459228515625
-0.00146484375
0.0113525390625
0.0018310546875
0.168853759765625
0.006591796875
-0.006591796875
0.0010986328125
-0.00146484375
0.003662109375
-0.0040283203125
0.005859375
-0.0069580078125
0.00439453125
-0.0032958984375
0.0
0.0018310546875
-0.009521484375
0.00146484375
-0.0098876953125
0.00439453125
-0.0010986328125
0.00439453125
0.0018310546875
0.0
0.0003662109375
-0.0003662109375
0.0025634765625
-0.003662109375
0.0010986328125
-0.0029296875
-0.00439453125
0.003662109375
-0.0032958984375
0.0040283203125
-0.003662109375
0.0047607421875
0.0142822265625
-0.1058349609375
0.0076904296875
-0.0194091796875
-0.01171875
0.1080322265625
0.0
0.016845703125
0.0025634765625
-0.002197265625
0.0029296875
-0.0040283203125
0.00439453125
-0.0054931640625
0.005859375
-0.005126953125
0.005126953125
-0.00146484375
-0.0029296875
0.0
-0.008056640625
0.0018310546875
-0.005859375
0.0062255859375
0.0
0.0029296875
0.0029296875
-0.0010986328125
0.0029296875
-0.002197265625
0.00146484375
-0.0032958984375
-0.00146484375
-0.003662109375
-0.00146484375
0.0032958984375
-0.0018310546875
0.0069580078125
-0.0040283203125
0.0029296875
0.0069580078125
-0.157470703125
0.0003662109375
0.0076904296875
-0.0047607421875
0.1607666015625
0.005126953125
-0.00732421875
0.00146484375
-0.003662109375
0.00146484375
-0.0032958984375
0.0032958984375
-0.005859375
0.0032958984375
-0.0032958984375
0.0
0.0047607421875
-0.0084228515625
0.0069580078125
-0.0069580078125
0.0062255859375
0.000732421875
0.0029296875
0.003662109375
-0.00439453125
0.0084228515625
-0.0113525390625
0.01318359375
-0.013916015625
0.009521484375
-0.0113525390625
0.0003662109375
-0.00439453125
-0.0010986328125
0.00146484375
-0.003662109375
0.005126953125
0.005859375
-0.069580078125
0.006591796875
-0.0347900390625
-0.01318359375
0.081298828125
-0.0106201171875
0.0421142578125
0.0010986328125
-0.0018310546875
0.0040283203125
-0.00439453125
0.0025634765625
-0.003662109375
0.0029296875
-0.0040283203125
0.002197265625
-0.00146484375
-0.0054931640625
0.002197265625
-0.009521484375
0.003662109375
-0.00439453125
0.006591796875
-0.0003662109375
0.0032958984375
-0.0029296875
-0.0003662109375
-0.0003662109375
0.0
-0.000732421875
-0.00146484375
-0.003662109375
-0.0032958984375
-0.005126953125
0.0047607421875
-0.005126953125
0.0069580078125
-0.0025634765625
-0.00146484375
0.002197265625
-0.163360595703125
-0.0025634765625
0.01171875
0.0
0.164459228515625
0.0076904296875
-0.0091552734375
0.00146484375
-0.0010986328125
0.00439453125
-0.00439453125
0.0062255859375
-0.005859375
0.003662109375
-0.00146484375
-0.0003662109375
0.0
-0.0091552734375
-0.002197265625
-0.008056640625
0.000732421875
-0.002197265625
0.005126953125
0.0010986328125
-0.000732421875
0.002197265625
-0.0029296875
0.003662109375
-0.0029296875
0.0
-0.002197265625
-0.0054931640625
0.0032958984375
-0.0032958984375
0.0054931640625
-0.0040283203125
0.005859375
0.01171875
-0.0882568359375
0.005859375
-0.0487060546875
-0.012451171875
0.09521484375
-0.0040283203125
0.05419921875
0.0
0.0
0.0018310546875
-0.0029296875
0.006591796875
-0.005126953125
0.0091552734375
-0.008056640625
0.005859375
-0.003662109375
-0.0025634765625
-0.000732421875
-0.009521484375
0.0003662109375
-0.0047607421875
0.0032958984375
0.00146484375
0.00146484375
0.00146484375
-0.0010986328125
0.0040283203125
-0.0029296875
0.0029296875
-0.005859375
-0.0018310546875
-0.005126953125
-0.00146484375
0.0025634765625
-0.00146484375
0.005859375
-0.0054931640625
0.0091552734375
0.0040283203125
-0.161895751953125
-0.0018310546875
0.002197265625
-0.0040283203125
0.167022705078125
0.00732421875
-0.00439453125
-0.000732421875
0.0003662109375
0.000732421875
-0.0025634765625
0.00732421875
-0.0087890625
0.0084228515625
-0.0087890625
0.0040283203125
-0.002197265625
-0.0032958984375
-0.0018310546875
-0.0047607421875
-0.000732421875
-0.002197265625
0.00439453125
0.0003662109375
0.00146484375
0.00146484375
-0.0010986328125
0.0029296875
-0.0018310546875
0.000732421875
-0.0032958984375
-0.0047607421875
0.0010986328125
-0.0054931640625
0.00732421875
-0.0047607421875
0.0076904296875
0.00732421875
-0.064453125
0.00732421875
-0.082763671875
-0.006591796875
0.06884765625
-0.0032958984375
0.0831298828125
0.002197265625
-0.002197265625
0.002197265625
-0.0029296875
0.0025634765625
-0.00439453125
0.005859375
-0.006591796875
0.0047607421875
-0.0029296875
-0.0025634765625
0.00146484375
-0.0076904296875
0.005126953125
-0.0032958984375
0.0054931640625
0.002197265625
0.0010986328125
0.00146484375
-0.002197265625
0.0029296875
-0.0032958984375
0.0047607421875
-0.0069580078125
0.002197265625
-0.0076904296875
-0.0003662109375
0.002197265625
-0.00146484375
0.0054931640625
-0.0054931640625
0.0091552734375
0.00732421875
-0.132568359375
0.0
0.00146484375
-0.008056640625
0.1387939453125
0.0040283203125
-0.0040283203125
0.000732421875
-0.0032958984375
0.0010986328125
-0.0040283203125
0.002197265625
-0.00439453125
0.0047607421875
-0.0069580078125
0.002197265625
-0.0010986328125
-0.005859375
0.0029296875
-0.00439453125
0.002197265625
0.000732421875
0.0032958984375
-0.0003662109375
0.0
-0.0018310546875
-0.0003662109375
0.000732421875
-0.0003662109375
-0.000732421875
-0.0003662109375
-0.0040283203125
0.00146484375
-0.0040283203125
0.0062255859375
-0.003662109375
0.006591796875
0.0087890625
-0.06005859375
0.0029296875
-0.0662841796875
-0.013916015625
0.0703125
-0.0062255859375
0.0732421875
-0.000732421875
0.0
-0.0018310546875
0.0
0.0040283203125
-0.008056640625
0.0076904296875
-0.008056640625
0.0032958984375
-0.00146484375
-0.000732421875
-0.003662109375
-0.006591796875
-0.002197265625
-0.0069580078125
0.003662109375
-0.0029296875
0.003662109375
-0.0003662109375
0.0003662109375
0.002197265625
-0.002197265625
0.0003662109375
-0.00439453125
-0.0029296875
-0.00439453125
-0.0029296875
0.00439453125
0.0
0.005859375
0.002197265625
-0.0186767578125
0.0003662109375
-0.170318603515625
-0.0054931640625
0.0281982421875
0.0010986328125
0.171783447265625
0.006591796875
-0.0091552734375
0.00439453125
-0.0040283203125
0.0054931640625
-0.006591796875
0.0054931640625
-0.0054931640625
0.005859375
-0.0003662109375
-0.0010986328125
0.0010986328125
-0.0098876953125
-0.0003662109375
-0.0091552734375
0.002197265625
-0.0025634765625
0.0047607421875
0.0010986328125
0.0003662109375
0.00146484375
-0.0025634765625
0.0040283203125
-0.0062255859375
-0.0010986328125
-0.0025634765625
-0.00439453125
0.005859375
-0.0032958984375
0.0069580078125
-0.00732421875
0.009521484375
0.0076904296875
-0.13623046875
-0.00146484375
-0.00439453125
-0.0087890625
0.144287109375
0.0040283203125
0.00732421875
0.0029296875
-0.0025634765625
0.003662109375
-0.0040283203125
0.0054931640625
-0.005126953125
0.0087890625
-0.005859375
0.002197265625
0.000732421875
-0.008056640625
0.0003662109375
-0.009521484375
0.000732421875
-0.0029296875
0.0047607421875
-0.00146484375
0.0032958984375
0.002197265625
-0.0040283203125
0.005859375
-0.0069580078125
0.000732421875
-0.0032958984375
-0.003662109375
0.00146484375
-0.003662109375
0.00732421875
-0.0029296875
0.0062255859375
0.009521484375
-0.0853271484375
0.0062255859375
-0.044677734375
-0.0087890625
0.090087890625
-0.0018310546875
0.0465087890625
0.0040283203125
-0.0029296875
0.005126953125
-0.00439453125
0.005859375
-0.006591796875
0.006591796875
-0.008056640625
0.006591796875
-0.00439453125
-0.0018310546875
0.0010986328125
-0.00732421875
0.003662109375
-0.0025634765625
0.0047607421875
0.0003662109375
0.0025634765625
-0.0010986328125
0.0
0.000732421875
-0.000732421875
0.0040283203125
-0.005859375
-0.000732421875
-0.00439453125
-0.0029296875
0.005126953125
-0.0003662109375
0.0062255859375
0.00439453125
-0.0238037109375
0.0025634765625
-0.1417236328125
-0.005859375
0.0333251953125
0.000732421875
0.1417236328125
0.005126953125
-0.008056640625
0.0018310546875
-0.003662109375
0.0029296875
-0.00732421875
0.005126953125
-0.0076904296875
0.0040283203125
-0.003662109375
0.000732421875
-0.000732421875
-0.003662109375
0.000732421875
-0.0062255859375
0.0069580078125
-0.0018310546875
0.006591796875
-0.0003662109375
-0.0003662109375
0.0018310546875
-0.0029296875
0.0025634765625
-0.0040283203125
-0.0010986328125
-0.0029296875
-0.002197265625
0.0054931640625
-0.0029296875
0.00732421875
-0.002197265625
-0.0032958984375
0.0025634765625
-0.14208984375
-0.003662109375
0.0179443359375
-0.003662109375
0.146484375
0.005126953125
-0.0106201171875
0.0018310546875
-0.0025634765625
0.002197265625
-0.0040283203125
0.00439453125
-0.006591796875
0.0047607421875
-0.0032958984375
0.0003662109375
0.0018310546875
-0.0098876953125
0.003662109375
-0.0120849609375
0.0106201171875
-0.008056640625
0.013916015625
-0.0029296875
0.0025634765625
0.0025634765625
-0.003662109375
0.0025634765625
-0.005859375
-0.0010986328125
-0.00732421875
-0.0010986328125
0.000732421875
-0.00146484375
0.005859375
-0.0069580078125
0.005126953125
-0.000732421875
-0.1614990234375
-0.006591796875
0.01171875
-0.003662109375
0.1688232421875
0.008056640625
-0.0087890625
0.003662109375
-0.0040283203125
0.005859375
-0.005859375
0.0062255859375
-0.0062255859375
0.005859375
-0.002197265625
-0.0003662109375
0.0025634765625
-0.0106201171875
-0.0003662109375
-0.010986328125
0.000732421875
-0.00439453125
0.005859375
-0.000732421875
0.0025634765625
0.0029296875
-0.0029296875
0.0047607421875
-0.0087890625
-0.0029296875
-0.00439453125
-0.0040283203125
0.003662109375
-0.002197265625
0.0047607421875
-0.00732421875
0.0106201171875
0.0054931640625
-0.15234375
-0.0003662109375
-0.0040283203125
-0.0029296875
0.1563720703125
0.0069580078125
0.0
0.0010986328125
-0.00146484375
0.002197265625
-0.003662109375
0.005126953125
-0.0054931640625
0.0062255859375
-0.0032958984375
0.0010986328125
0.0010986328125
-0.0047607421875
-0.003662109375
-0.00732421875
-0.00146484375
-0.0032958984375
0.00439453125
0.0025634765625
-0.0025634765625
0.005859375
-0.00732421875
0.0062255859375
-0.008056640625
0.0003662109375
-0.00439453125
-0.0032958984375
0.00439453125
-0.003662109375
0.0069580078125
-0.0054931640625
0.006591796875
0.01171875
-0.1153564453125
0.0040283203125
-0.01318359375
-0.0113525390625
0.1219482421875
0.00146484375
0.0146484375
0.0025634765625
-0.000732421875
0.00146484375
-0.0018310546875
0.0032958984375
-0.0047607421875
0.00439453125
-0.0025634765625
0.0025634765625
0.00146484375
-0.0106201171875
0.005126953125
-0.018310546875
0.0106201171875
-0.0113525390625
0.01025390625
0.002197265625
-0.002197265625
0.0113525390625
-0.0135498046875
0.0091552734375
-0.0106201171875
0.0047607421875
-0.00732421875
0.0032958984375
-0.008056640625
0.0040283203125
-0.000732421875
0.002197265625
0.0029296875
0.01025390625
-0.050537109375
0.00732421875
-0.123779296875
-0.005126953125
0.0531005859375
0.00146484375
0.1219482421875
0.0054931640625
-0.005859375
0.005126953125
-0.0062255859375
0.0076904296875
-0.0087890625
0.009521484375
-0.0113525390625
0.009521484375
-0.0076904296875
0.0032958984375
-0.00146484375
-0.0047607421875
0.000732421875
-0.0018310546875
0.0025634765625
0.002197265625
0.0003662109375
0.0
-0.0025634765625
0.002197265625
-0.0029296875
0.002197265625
-0.003662109375
-0.0018310546875
-0.0032958984375
-0.002197265625
0.003662109375
-0.0018310546875
0.005859375
-0.003662109375
-0.0040283203125
0.0003662109375
-0.149810791015625
-0.005126953125
0.0172119140625
-0.0032958984375
0.153839111328125
0.0087890625
-0.012451171875
0.0091552734375
-0.009521484375
0.01171875
-0.0120849609375
0.0113525390625
-0.0120849609375
0.0062255859375
-0.0062255859375
0.0
0.0
-0.0062255859375
0.0032958984375
-0.0087890625
0.0069580078125
-0.0076904296875
0.00732421875
-0.00732421875
0.0029296875
-0.008056640625
0.0010986328125
-0.005126953125
-0.0025634765625
-0.0069580078125
0.0
-0.008056640625
0.0069580078125
-0.00439453125
0.0069580078125
-0.0062255859375
0.0091552734375
0.005859375
-0.136993408203125
-0.000732421875
0.0040283203125
-0.0032958984375
0.140655517578125
0.0091552734375
-0.0084228515625
0.0025634765625
-0.0025634765625
0.0029296875
-0.0032958984375
0.003662109375
-0.0054931640625
0.0054931640625
-0.0040283203125
0.002197265625
0.0003662109375
-0.00732421875
-0.0018310546875
-0.01171875
0.0032958984375
-0.008056640625
0.009521484375
-0.0040283203125
0.003662109375
-0.003662109375
0.00146484375
-0.0010986328125
-0.0018310546875
-0.005859375
0.0018310546875
-0.0069580078125
0.0091552734375
-0.00439453125
0.0084228515625
-0.0069580078125
0.01171875
0.006591796875
-0.138427734375
-0.0025634765625
-0.0040283203125
-0.006591796875
0.146484375
0.006591796875
0.0025634765625
0.00146484375
-0.0018310546875
0.0018310546875
-0.00146484375
0.005126953125
-0.0040283203125
0.00732421875
-0.0029296875
0.00439453125
0.0010986328125
-0.0062255859375
0.0
-0.010986328125
0.002197265625
-0.002197265625
0.0040283203125
0.0003662109375
0.0025634765625
0.00146484375
-0.00146484375
0.006591796875
-0.006591796875
0.002197265625
-0.005126953125
-0.003662109375
0.0018310546875
-0.0040283203125
0.00732421875
-0.0054931640625
0.0084228515625
0.0106201171875
-0.1116943359375
0.0040283203125
-0.015380859375
-0.01025390625
0.1171875
0.002197265625
0.0142822265625
0.0025634765625
-0.00146484375
0.0018310546875
-0.0018310546875
0.005126953125
-0.00439453125
0.0069580078125
-0.00439453125
0.005859375
-0.00146484375
-0.0025634765625
-0.0010986328125
-0.008056640625
0.0003662109375
-0.005859375
0.0062255859375
-0.0010986328125
0.0032958984375
0.0010986328125
0.0
0.0025634765625
0.0
0.0003662109375
-0.0025634765625
-0.005126953125
0.000732421875
-0.0032958984375
0.0076904296875
-0.0018310546875
0.005859375
0.0076904296875
-0.06298828125
0.0032958984375
-0.0933837890625
-0.009521484375
0.0703125
-0.003662109375
0.099609375
0.0025634765625
-0.002197265625
0.00439453125
-0.00439453125
0.0054931640625
-0.005859375
0.00732421875
-0.0076904296875
0.0054931640625
-0.0029296875
-0.002197265625
0.00146484375
-0.0098876953125
0.0029296875
-0.008056640625
0.00732421875
-0.0010986328125
0.0040283203125
0.0018310546875
-0.0032958984375
0.005126953125
-0.0040283203125
0.0040283203125
-0.005126953125
-0.0018310546875
-0.00439453125
-0.0025634765625
0.0047607421875
-0.0018310546875
0.005859375
-0.00146484375
-0.003662109375
0.002197265625
-0.1512451171875
-0.0032958984375
0.0157470703125
-0.00146484375
0.1571044921875
0.00732421875
-0.008056640625
0.0047607421875
-0.0054931640625
0.0047607421875
-0.006591796875
0.0047607421875
-0.006591796875
0.005126953125
-0.0040283203125
0.003662109375
-0.0025634765625
-0.0040283203125
0.0
-0.0054931640625
0.00439453125
-0.0010986328125
0.00439453125
0.00146484375
-0.0018310546875
0.0018310546875
-0.0040283203125
0.0025634765625
-0.0047607421875
-0.00146484375
-0.002197265625
-0.0047607421875
0.0062255859375
-0.0047607421875
0.008056640625
-0.0098876953125
0.0128173828125
0.0003662109375
-0.123046875
-0.005126953125
0.005126953125
-0.0047607421875
0.1314697265625
0.0084228515625
-0.0087890625
0.0040283203125
-0.005126953125
0.0025634765625
-0.0047607421875
0.0018310546875
-0.0054931640625
0.0062255859375
-0.0054931640625
0.0040283203125
-0.0010986328125
-0.0047607421875
-0.0032958984375
-0.0084228515625
0.000732421875
-0.0032958984375
0.006591796875
0.000732421875
0.0003662109375
0.0018310546875
-0.0029296875
0.0040283203125
-0.005859375
-0.0025634765625
-0.000732421875
-0.0047607421875
0.00439453125
-0.0032958984375
0.0047607421875
-0.0054931640625
0.006591796875
0.01171875
-0.1171875
0.000732421875
-0.0091552734375
-0.01171875
0.1219482421875
0.00146484375
0.0106201171875
0.00146484375
-0.00146484375
0.0018310546875
-0.0032958984375
0.00439453125
-0.005126953125
0.00732421875
-0.00439453125
0.005126953125
-0.000732421875
-0.0047607421875
-0.0025634765625
-0.010986328125
-0.00146484375
-0.003662109375
0.0032958984375
0.0
0.0032958984375
-0.000732421875
-0.0003662109375
0.000732421875
-0.00146484375
0.002197265625
-0.0032958984375
-0.00146484375
-0.003662109375
-0.005126953125
0.005859375
-0.0029296875
0.0062255859375
0.005859375
-0.0435791015625
0.0018310546875
-0.14501953125
-0.0098876953125
0.0545654296875
-0.0003662109375
0.1512451171875
0.0047607421875
-0.005126953125
0.0010986328125
-0.000732421875
0.0047607421875
-0.00439453125
0.0087890625
-0.009521484375
0.0076904296875
-0.00439453125
-0.000732421875
-0.0003662109375
-0.0087890625
-0.002197265625
-0.0069580078125
0.0010986328125
-0.0010986328125
0.0029296875
0.0003662109375
0.0010986328125
0.0054931640625
-0.0029296875
0.0054931640625
-0.0087890625
-0.0029296875
-0.0047607421875
-0.0025634765625
0.0047607421875
-0.002197265625
0.0069580078125
-0.0062255859375
0.0106201171875
0.0032958984375
-0.1578369140625
-0.005126953125
0.0032958984375
-0.0047607421875
0.1666259765625
0.008056640625
-0.002197265625
0.000732421875
0.0
0.000732421875
-0.0018310546875
0.0062255859375
-0.006591796875
0.0098876953125
-0.006591796875
0.0054931640625
-0.0025634765625
-0.0047607421875
-0.000732421875
-0.0087890625
0.0025634765625
0.0
0.0029296875
0.0040283203125
-0.0029296875
0.0025634765625
-0.0047607421875
0.003662109375
-0.0040283203125
0.00146484375
-0.00439453125
-0.0032958984375
0.0018310546875
-0.0040283203125
0.0076904296875
-0.005859375
0.00732421875
0.005859375
-0.0889892578125
0.005859375
-0.027099609375
-0.0076904296875
0.0941162109375
-0.0003662109375
0.02783203125
0.0040283203125
-0.002197265625
0.0018310546875
-0.00439453125
0.0025634765625
-0.0054931640625
0.0054931640625
-0.0062255859375
0.005859375
-0.0047607421875
0.0
-0.0018310546875
-0.00439453125
0.000732421875
-0.0025634765625
0.0054931640625
0.0018310546875
0.000732421875
0.00146484375
-0.0047607421875
0.00146484375
-0.0010986328125
0.00146484375
-0.0018310546875
-0.00439453125
-0.0018310546875
-0.0047607421875
0.0069580078125
-0.0018310546875
0.0076904296875
0.002197265625
-0.012451171875
0.00439453125
-0.139892578125
-0.0040283203125
0.024169921875
-0.0018310546875
0.1431884765625
0.005859375
-0.0091552734375
0.0032958984375
-0.005126953125
0.0025634765625
-0.0054931640625
0.00439453125
-0.0062255859375
0.0047607421875
-0.005126953125
0.0029296875
-0.002197265625
-0.0032958984375
0.0010986328125
-0.0047607421875
0.00732421875
-0.0003662109375
0.005859375
0.0
-0.0010986328125
0.0010986328125
-0.0025634765625
0.0010986328125
-0.0025634765625
-0.002197265625
-0.00146484375
-0.00439453125
0.0062255859375
-0.003662109375
0.008056640625
-0.0062255859375
0.0091552734375
0.0047607421875
-0.1318359375
-0.002197265625
0.005126953125
-0.0076904296875
0.1380615234375
0.0047607421875
-0.00732421875
0.0010986328125
-0.0025634765625
0.0018310546875
-0.005126953125
0.0018310546875
-0.005126953125
0.005126953125
-0.0032958984375
0.0047607421875
-0.0010986328125
-0.0062255859375
-0.0003662109375
-0.0087890625
0.0040283203125
-0.0032958984375
0.00732421875
-0.00146484375
0.0018310546875
-0.0010986328125
-0.00146484375
0.0032958984375
-0.006591796875
0.0
-0.003662109375
-0.0047607421875
0.0032958984375
-0.00439453125
0.00439453125
-0.0084228515625
0.0076904296875
0.0091552734375
-0.11279296875
-0.000732421875
-0.00732421875
-0.012451171875
0.1182861328125
0.00146484375
0.0084228515625
0.0
-0.0010986328125
0.0029296875
-0.0040283203125
0.0047607421875
-0.0047607421875
0.0062255859375
-0.002197265625
0.0029296875
0.002197265625
-0.005859375
-0.0025634765625
-0.01025390625
-0.0032958984375
-0.00439453125
0.00146484375
0.0010986328125
-0.000732421875
0.00146484375
-0.0018310546875
0.0032958984375
-0.003662109375
0.00146484375
-0.005859375
-0.0032958984375
-0.0029296875
-0.003662109375
0.005859375
-0.0025634765625
0.00732421875
0.005126953125
-0.0439453125
0.000732421875
-0.15234375
-0.0087890625
0.0538330078125
-0.0003662109375
0.158203125
0.005126953125
-0.0047607421875
0.00439453125
-0.005126953125
0.005126953125
-0.0062255859375
0.0062255859375
-0.0054931640625
0.005859375
-0.00146484375
-0.002197265625
0.00146484375
-0.0098876953125
-0.0010986328125
-0.006591796875
-0.000732421875
-0.0010986328125
0.0029296875
0.0018310546875
0.0010986328125
0.0032958984375
-0.0010986328125
0.0032958984375
-0.0062255859375
-0.002197265625
-0.0047607421875
-0.0025634765625
0.0040283203125
-0.00146484375
0.0069580078125
-0.0076904296875
0.012451171875
0.00146484375
-0.153076171875
-0.0025634765625
-0.0025634765625
-0.000732421875
0.1585693359375
0.00732421875
-0.0003662109375
0.0018310546875
-0.002197265625
0.0032958984375
-0.00439453125
0.003662109375
-0.00439453125
0.00732421875
-0.003662109375
0.00439453125
-0.000732421875
-0.0047607421875
-0.002197265625
-0.008056640625
0.000732421875
-0.0018310546875
0.00439453125
0.0003662109375
0.0018310546875
-0.0003662109375
-0.0010986328125
0.00146484375
-0.0025634765625
-0.000732421875
-0.0018310546875
-0.003662109375
-0.0003662109375
-0.0040283203125
0.005859375
-0.0025634765625
0.0062255859375
0.0084228515625
-0.06884765625
0.0040283203125
-0.08642578125
-0.0091552734375
0.0750732421875
-0.0025634765625
0.0897216796875
0.002197265625
-0.0032958984375
0.0032958984375
-0.00439453125
0.006591796875
-0.00732421875
0.00732421875
-0.00732421875
0.00732421875
-0.0029296875
0.002197265625
-0.00146484375
-0.00439453125
-0.00146484375
-0.0040283203125
0.0029296875
0.0
0.0029296875
0.002197265625
-0.0025634765625
0.0040283203125
-0.0047607421875
0.0069580078125
-0.009521484375
0.0029296875
-0.0084228515625
0.0010986328125
-0.0003662109375
-0.0003662109375
0.0047607421875
-0.005859375
0.012451171875
0.005126953125
-0.1446533203125
-0.002197265625
0.000732421875
-0.0054931640625
0.1505126953125
0.005859375
-0.0040283203125
0.0029296875
-0.0032958984375
0.003662109375
-0.005126953125
0.0032958984375
-0.005859375
0.0047607421875
-0.0062255859375
0.00439453125
-0.00146484375
-0.0032958984375
0.00146484375
-0.00732421875
0.003662109375
-0.00146484375
0.005126953125
0.0010986328125
0.000732421875
0.0
-0.00146484375
0.00146484375
-0.002197265625
0.000732421875
-0.0018310546875
-0.0032958984375
0.0018310546875
-0.005859375
0.0076904296875
-0.0062255859375
0.0076904296875
0.0054931640625
-0.0604248046875
0.0069580078125
-0.063720703125
-0.0076904296875
0.0677490234375
-0.0003662109375
0.0626220703125
0.0084228515625
-0.0098876953125
0.00439453125
-0.005859375
0.0025634765625
-0.0047607421875
0.0029296875
-0.00439453125
0.003662109375
-0.00146484375
-0.0018310546875
0.000732421875
-0.0069580078125
0.002197265625
-0.006591796875
0.008056640625
-0.0025634765625
0.005859375
-0.0003662109375
-0.0018310546875
0.0003662109375
-0.00146484375
-0.000732421875
-0.00146484375
-0.008056640625
0.0025634765625
-0.008056640625
0.01171875
-0.005859375
0.01025390625
-0.006591796875
0.005859375
0.0010986328125
-0.1563720703125
-0.0047607421875
0.009521484375
-0.0010986328125
0.1611328125
0.0087890625
-0.009521484375
0.005859375
-0.00732421875
0.0069580078125
-0.009521484375
0.0076904296875
-0.0076904296875
0.0091552734375
-0.0047607421875
0.00439453125
-0.0018310546875
-0.0040283203125
-0.0054931640625
-0.00732421875
-0.0010986328125
-0.003662109375
0.0062255859375
-0.003662109375
0.0047607421875
-0.0040283203125
0.0018310546875
-0.0010986328125
-0.00146484375
-0.0054931640625
0.0003662109375
-0.0113525390625
0.00732421875
-0.0106201171875
0.01171875
-0.01171875
0.0120849609375
0.0069580078125
-0.1058349609375
0.00146484375
-0.0201416015625
-0.0146484375
0.114990234375
-0.0010986328125
0.0230712890625
0.00146484375
-0.0010986328125
0.0032958984375
-0.003662109375
0.005126953125
-0.0054931640625
0.006591796875
-0.00439453125
0.0069580078125
-0.0018310546875
-0.0029296875
-0.0032958984375
-0.0084228515625
-0.0032958984375
-0.0032958984375
0.002197265625
0.0062255859375
-0.003662109375
0.0135498046875
-0.015380859375
0.013916015625
-0.0157470703125
0.0087890625
-0.012451171875
-0.0003662109375
-0.00732421875
-0.000732421875
0.0018310546875
-0.002197265625
0.00732421875
-0.0076904296875
0.005859375
-0.0040283203125
-0.164459228515625
-0.0098876953125
0.0146484375
-0.0032958984375
0.176177978515625
0.0062255859375
-0.0047607421875
0.0010986328125
-0.00146484375
0.0040283203125
-0.0040283203125
0.0076904296875
-0.0062255859375
0.008056640625
-0.0032958984375
0.002197265625
0.000732421875
-0.0076904296875
0.0003662109375
-0.0087890625
0.0032958984375
-0.0018310546875
0.0054931640625
0.000732421875
0.002197265625
0.0025634765625
-0.0025634765625
0.00439453125
-0.00439453125
0.0025634765625
-0.0040283203125
-0.000732421875
-0.000732421875
-0.000732421875
0.00439453125
-0.0018310546875
0.0047607421875
0.0087890625
-0.0736083984375
0.00732421875
-0.07177734375
-0.00732421875
0.0787353515625
0.0003662109375
0.0721435546875
0.005126953125
-0.0040283203125
0.0032958984375
-0.0047607421875
0.005126953125
-0.006591796875
0.0062255859375
-0.005859375
0.00439453125
-0.000732421875
-0.0029296875
0.0029296875
-0.0084228515625
0.003662109375
-0.008056640625
0.009521484375
-0.0032958984375
0.00732421875
0.0010986328125
-0.0010986328125
0.0047607421875
-0.005859375
0.0062255859375
-0.0076904296875
0.0010986328125
-0.0047607421875
-0.0010986328125
0.002197265625
-0.000732421875
0.005859375
-0.0040283203125
0.00732421875
0.008056640625
-0.1351318359375
0.0029296875
0.000732421875
-0.002197265625
0.13330078125
0.00732421875
-0.0084228515625
0.002197265625
-0.0025634765625
0.00146484375
-0.0025634765625
0.002197265625
-0.00439453125
0.0032958984375
-0.00439453125
0.003662109375
-0.0003662109375
-0.00146484375
0.0
-0.005859375
0.0054931640625
-0.0032958984375
0.0091552734375
0.0003662109375
0.000732421875
0.0010986328125
-0.0032958984375
0.0010986328125
-0.0018310546875
0.0010986328125
-0.002197265625
-0.002197265625
0.0003662109375
-0.0032958984375
0.00439453125
-0.0040283203125
0.005126953125
0.0076904296875
-0.07470703125
0.0062255859375
-0.018310546875
-0.01171875
0.08349609375
-0.006591796875
0.0230712890625
0.0003662109375
-0.0025634765625
0.0010986328125
-0.0032958984375
0.0018310546875
-0.005126953125
0.0032958984375
-0.00439453125
0.0040283203125
-0.000732421875
-0.00146484375
-0.00146484375
-0.0062255859375
0.000732421875
-0.0062255859375
0.0076904296875
-0.00146484375
0.0032958984375
0.0
-0.0018310546875
0.002197265625
-0.0032958984375
0.0010986328125
-0.0047607421875
-0.003662109375
-0.0032958984375
-0.0029296875
0.0047607421875
-0.0029296875
0.0076904296875
0.002197265625
-0.021240234375
-0.0029296875
-0.15673828125
-0.009521484375
0.03662109375
0.0003662109375
0.164794921875
0.005126953125
-0.0076904296875
0.0025634765625
-0.003662109375
0.0029296875
-0.0040283203125
0.0047607421875
-0.0029296875
0.00439453125
0.0010986328125
-0.000732421875
0.0
-0.0113525390625
-0.0018310546875
-0.0098876953125
0.0010986328125
-0.0010986328125
0.0025634765625
0.0
-0.0003662109375
0.0010986328125
-0.003662109375
0.0040283203125
-0.008056640625
0.0
-0.005859375
-0.0040283203125
0.0040283203125
-0.0029296875
0.005126953125
-0.00439453125
0.0047607421875
0.015380859375
-0.1329345703125
0.0010986328125
-0.0106201171875
-0.0128173828125
0.13623046875
0.0062255859375
0.0091552734375
0.0025634765625
-0.0025634765625
0.0029296875
-0.0032958984375
0.00439453125
-0.0032958984375
0.00732421875
-0.0029296875
0.00732421875
-0.000732421875
-0.0029296875
-0.00146484375
-0.0076904296875
-0.002197265625
-0.0010986328125
0.0
0.00439453125
-0.0003662109375
0.0010986328125
-0.0010986328125
0.002197265625
-0.003662109375
0.005126953125
-0.0076904296875
-0.0010986328125
-0.005126953125
-0.003662109375
0.0047607421875
-0.0010986328125
0.0069580078125
0.0003662109375
-0.0091552734375
-0.0029296875
-0.168853759765625
-0.0091552734375
0.024169921875
-0.000732421875
0.176544189453125
0.006591796875
-0.006591796875
0.00146484375
-0.0025634765625
0.000732421875
-0.0029296875
0.0040283203125
-0.003662109375
0.005126953125
-0.00146484375
0.00146484375
0.0018310546875
-0.0069580078125
-0.000732421875
-0.008056640625
0.0003662109375
-0.0018310546875
0.003662109375
-0.0003662109375
0.0003662109375
-0.00146484375
-0.00146484375
0.0010986328125
-0.0025634765625
0.0
-0.0029296875
-0.0054931640625
0.002197265625
-0.003662109375
0.0062255859375
-0.00439453125
0.005859375
0.008056640625
-0.0849609375
0.0029296875
-0.046875
-0.012451171875
0.0926513671875
-0.0032958984375
0.052734375
0.0003662109375
0.0
0.0025634765625
-0.0025634765625
0.00439453125
-0.0040283203125
0.006591796875
-0.0054931640625
0.00732421875
-0.0029296875
0.0
-0.000732421875
-0.006591796875
-0.000732421875
-0.00439453125
0.0032958984375
0.0010986328125
0.0010986328125
0.0010986328125
-0.0029296875
0.0025634765625
-0.0040283203125
0.0018310546875
-0.003662109375
-0.0029296875
-0.0010986328125
-0.002197265625
0.00439453125
-0.0032958984375
0.0076904296875
-0.0076904296875
0.009521484375
0.0040283203125
-0.134033203125
-0.0003662109375
-0.0040283203125
-0.0029296875
0.1365966796875
0.010986328125
-0.0054931640625
0.0054931640625
-0.006591796875
0.0032958984375
-0.005859375
0.005126953125
-0.008056640625
0.005126953125
-0.005126953125
0.003662109375
-0.00146484375
-0.00439453125
0.002197265625
-0.00732421875
0.0054931640625
-0.0025634765625
0.006591796875
-0.000732421875
0.000732421875
0.0003662109375
-0.003662109375
0.00146484375
-0.000732421875
0.000732421875
-0.0032958984375
-0.000732421875
-0.0054931640625
-0.0025634765625
0.00439453125
-0.00439453125
0.008056640625
0.00146484375
-0.021240234375
0.002197265625
-0.13330078125
-0.005126953125
0.03369140625
0.0
0.1365966796875
0.0047607421875
-0.00732421875
0.002197265625
-0.003662109375
0.002197265625
-0.0054931640625
0.003662109375
-0.0062255859375
0.0029296875
-0.0018310546875
0.000732421875
0.00146484375
-0.0032958984375
-0.000732421875
-0.00439453125
0.0032958984375
-0.0003662109375
0.0029296875
-0.00146484375
-0.000732421875
-0.0018310546875
-0.00146484375
0.00146484375
-0.0032958984375
-0.000732421875
-0.00146484375
-0.003662109375
0.0047607421875
-0.005126953125
0.0076904296875
-0.009521484375
0.0106201171875
0.005859375
-0.1131591796875
-0.0018310546875
0.0010986328125
-0.0150146484375
0.12744140625
-0.0025634765625
0.0084228515625
-0.0010986328125
0.000732421875
0.002197265625
-0.0029296875
0.00732421875
-0.008056640625
0.010986328125
-0.01025390625
0.008056640625
-0.0054931640625
-0.000732421875
-0.0084228515625
-0.003662109375
-0.00732421875
-0.000732421875
-0.00146484375
0.002197265625
-0.0032958984375
0.00146484375
-0.0032958984375
0.0018310546875
-0.0018310546875
0.000732421875
-0.0029296875
-0.0047607421875
-0.00146484375
-0.00439453125
0.006591796875
-0.0040283203125
0.008056640625
0.003662109375
-0.0369873046875
-0.0032958984375
-0.155670166015625
-0.0113525390625
0.049072265625
0.000732421875
0.162994384765625
0.0029296875
-0.0040283203125
0.002197265625
-0.0029296875
0.0032958984375
-0.0040283203125
0.005859375
-0.0040283203125
0.0084228515625
-0.0018310546875
0.00146484375
0.0
-0.0098876953125
-0.000732421875
-0.0091552734375
0.0029296875
-0.002197265625
0.0040283203125
-0.0003662109375
0.0
0.00146484375
-0.0029296875
0.0025634765625
-0.005126953125
-0.0010986328125
-0.00146484375
-0.00439453125
0.005126953125
-0.0040283203125
0.0062255859375
-0.0062255859375
0.0084228515625
0.01025390625
-0.1190185546875
0.0018310546875
-0.0135498046875
-0.0120849609375
0.1285400390625
0.0010986328125
0.015380859375
-0.000732421875
0.000732421875
0.00146484375
-0.00146484375
0.005859375
-0.006591796875
0.0087890625
-0.0054931640625
0.0054931640625
0.0
-0.005859375
0.00146484375
-0.0091552734375
-0.0010986328125
-0.0032958984375
0.0018310546875
0.00146484375
0.0003662109375
0.00146484375
-0.0025634765625
0.0032958984375
-0.0029296875
0.002197265625
-0.0040283203125
-0.003662109375
-0.002197265625
-0.0032958984375
0.005126953125
-0.0025634765625
0.00732421875
-0.0040283203125
0.002197265625
0.0010986328125
-0.166290283203125
-0.0040283203125
0.01025390625
0.0
0.171417236328125
0.0084228515625
-0.0069580078125
0.0025634765625
-0.0032958984375
0.0040283203125
-0.0047607421875
0.0054931640625
-0.006591796875
0.006591796875
-0.0047607421875
0.00439453125
-0.00146484375
-0.0054931640625
-0.0003662109375
-0.0069580078125
0.0010986328125
0.0003662109375
0.002197265625
0.002197265625
-0.0018310546875
0.0
-0.0029296875
0.0018310546875
-0.00146484375
0.0010986328125
-0.0032958984375
-0.0032958984375
-0.00146484375
-0.0032958984375
0.005859375
-0.0025634765625
0.00732421875
0.006591796875
-0.0545654296875
0.0029296875
-0.094482421875
-0.0113525390625
0.066650390625
-0.00439453125
0.1014404296875
0.0040283203125
-0.0047607421875
0.0029296875
-0.0047607421875
0.0029296875
-0.0054931640625
0.005859375
-0.0069580078125
0.005859375
-0.0040283203125
0.0018310546875
-0.00146484375
-0.0029296875
-0.0003662109375
-0.0047607421875
0.005126953125
0.0
0.0040283203125
-0.00146484375
0.0
0.0
-0.002197265625
0.003662109375
-0.0047607421875
0.0
-0.0018310546875
-0.000732421875
0.0032958984375
-0.002197265625
0.0047607421875
-0.005859375
0.009521484375
0.006591796875
-0.125244140625
0.00146484375
-0.0018310546875
-0.005859375
0.12890625
0.00439453125
-0.0032958984375
0.00146484375
-0.0032958984375
0.000732421875
-0.0032958984375
0.0029296875
-0.005126953125
0.00439453125
-0.0047607421875
0.0047607421875
0.0
-0.00146484375
-0.0010986328125
-0.006591796875
0.0032958984375
-0.003662109375
0.0084228515625
-0.0010986328125
0.000732421875
0.0003662109375
-0.00439453125
0.002197265625
-0.0025634765625
0.000732421875
-0.00146484375
-0.002197265625
-0.0025634765625
-0.0010986328125
0.0032958984375
-0.0040283203125
0.00732421875
0.0003662109375
-0.0263671875
-0.00146484375
-0.142822265625
-0.0087890625
0.0399169921875
0.0010986328125
0.1483154296875
0.0040283203125
-0.0062255859375
0.00146484375
-0.0032958984375
0.0018310546875
-0.0029296875
0.0040283203125
-0.002197265625
0.0047607421875
-0.0003662109375
0.0003662109375
0.0
-0.003662109375
-0.005859375
-0.00439453125
-0.00146484375
-0.0032958984375
0.0054931640625
-0.002197265625
0.0
0.0025634765625
-0.0054931640625
0.005126953125
-0.008056640625
-0.0003662109375
-0.0040283203125
-0.005126953125
0.005859375
-0.005859375
0.0084228515625
-0.0062255859375
0.0091552734375
0.012451171875
-0.1307373046875
0.0
-0.010986328125
-0.0128173828125
0.1365966796875
0.0032958984375
0.010986328125
0.000732421875
0.0
0.00146484375
-0.0025634765625
0.003662109375
-0.005126953125
0.00732421875
-0.00439453125
0.00732421875
-0.002197265625
-0.00439453125
-0.0018310546875
-0.009521484375
-0.0010986328125
-0.0040283203125
0.003662109375
-0.0003662109375
0.0032958984375
0.0
-0.000732421875
0.0010986328125
-0.0018310546875
0.0025634765625
-0.0054931640625
-0.0025634765625
-0.0032958984375
-0.0032958984375
0.005859375
-0.0025634765625
0.00732421875
-0.006591796875
0.002197265625
-0.003662109375
-0.164825439453125
-0.008056640625
0.0172119140625
-0.0084228515625
0.182769775390625
0.0032958984375
-0.0032958984375
0.0087890625
-0.0098876953125
0.009521484375
-0.01025390625
0.0084228515625
-0.0091552734375
0.0084228515625
-0.005859375
0.005859375
-0.0018310546875
-0.0040283203125
-0.0029296875
-0.00732421875
0.0
-0.0003662109375
0.0029296875
0.0003662109375
0.0003662109375
-0.0003662109375
-0.0018310546875
0.0018310546875
-0.00146484375
0.00146484375
-0.0029296875
-0.002197265625
-0.0010986328125
-0.00439453125
0.008056640625
-0.0032958984375
0.006591796875
0.009521484375
-0.0670166015625
0.006591796875
-0.093017578125
-0.0091552734375
0.0721435546875
-0.0029296875
0.0948486328125
0.0025634765625
-0.0029296875
0.0040283203125
-0.003662109375
0.006591796875
-0.0069580078125
0.0062255859375
-0.006591796875
0.0040283203125
-0.0018310546875
-0.0003662109375
-0.0003662109375
-0.0040283203125
-0.0010986328125
-0.0029296875
0.00439453125
0.0003662109375
0.0025634765625
0.0
-0.003662109375
0.0
-0.002197265625
0.0029296875
-0.002197265625
0.0010986328125
-0.002197265625
-0.00146484375
0.0010986328125
-0.00146484375
0.003662109375
-0.003662109375
0.0054931640625
0.0098876953125
-0.1124267578125
0.005859375
-0.006591796875
-0.005126953125
0.11279296875
0.0025634765625
0.0025634765625
0.0032958984375
-0.003662109375
0.003662109375
-0.005859375
0.005126953125
-0.0087890625
0.005859375
-0.0069580078125
0.00439453125
-0.0018310546875
-0.0010986328125
-0.00146484375
-0.005859375
0.0025634765625
-0.0029296875
0.006591796875
0.0
0.002197265625
0.0
-0.0010986328125
-0.0010986328125
-0.0003662109375
0.0
-0.0025634765625
-0.0018310546875
-0.0029296875
-0.0047607421875
0.005859375
-0.0040283203125
0.0087890625
-0.000732421875
-0.0120849609375
-0.0003662109375
-0.135498046875
-0.0091552734375
0.0311279296875
-0.00146484375
0.14208984375
0.005859375
-0.01025390625
0.00146484375
-0.0029296875
0.00146484375
-0.00439453125
0.0032958984375
-0.0047607421875
0.00439453125
-0.002197265625
0.000732421875
-0.0003662109375
-0.0040283203125
-0.0032958984375
-0.0062255859375
0.0029296875
-0.0018310546875
0.006591796875
0.000732421875
-0.000732421875
0.00146484375
-0.0025634765625
0.002197265625
-0.00439453125
-0.0032958984375
-0.00146484375
-0.005126953125
0.005859375
-0.003662109375
0.006591796875
-0.0069580078125
0.0098876953125
0.0062255859375
-0.136962890625
-0.0025634765625
-0.00439453125
-0.0091552734375
0.144287109375
0.005126953125
0.0040283203125
0.0018310546875
-0.0025634765625
0.00439453125
-0.00439453125
0.006591796875
-0.0054931640625
0.006591796875
-0.003662109375
0.005126953125
-0.000732421875
-0.0047607421875
-0.003662109375
-0.008056640625
-0.0025634765625
-0.0040283203125
0.0029296875
0.0
0.0010986328125
0.0003662109375
-0.0018310546875
0.0010986328125
-0.002197265625
0.0029296875
-0.0054931640625
-0.0029296875
-0.003662109375
-0.00439453125
0.00732421875
-0.0040283203125
0.0087890625
0.000732421875
-0.0223388671875
-0.0025634765625
-0.167755126953125
-0.0091552734375
0.03515625
0.002197265625
0.173614501953125
0.005859375
-0.0062255859375
0.0018310546875
-0.0029296875
0.003662109375
-0.00439453125
0.006591796875
-0.005126953125
0.0069580078125
-0.002197265625
-0.0003662109375
0.0010986328125
-0.0087890625
-0.00146484375
-0.0076904296875
0.0
-0.0018310546875
0.0029296875
0.0
0.0
0.0018310546875
-0.0025634765625
0.0029296875
-0.005126953125
-0.0018310546875
-0.00146484375
-0.0047607421875
0.0047607421875
-0.005126953125
0.00732421875
-0.0069580078125
0.008056640625
0.0084228515625
-0.11572265625
-0.0029296875
-0.008056640625
-0.0150146484375
0.1259765625
0.003662109375
0.0113525390625
0.006591796875
-0.0054931640625
0.00732421875
-0.0091552734375
0.009521484375
-0.012451171875
0.0091552734375
-0.008056640625
0.006591796875
-0.003662109375
-0.000732421875
-0.0040283203125
-0.005126953125
-0.00146484375
-0.0018310546875
0.003662109375
0.00146484375
0.0010986328125
0.003662109375
-0.0047607421875
0.0032958984375
-0.0040283203125
0.00146484375
-0.0032958984375
-0.002197265625
-0.0025634765625
-0.0018310546875
0.0032958984375
-0.00146484375
0.0069580078125
-0.0029296875
0.0047607421875
0.0032958984375
-0.161895751953125
-0.0040283203125
0.0084228515625
-0.0003662109375
0.165924072265625
0.0087890625
-0.0076904296875
0.0032958984375
-0.00439453125
0.0040283203125
-0.0054931640625
0.0054931640625
-0.00732421875
0.005859375
-0.00439453125
0.003662109375
0.0
-0.0032958984375
0.0003662109375
-0.00732421875
0.0040283203125
-0.003662109375
0.0062255859375
-0.0018310546875
0.0018310546875
-0.0003662109375
-0.000732421875
0.00146484375
-0.00146484375
0.0010986328125
-0.0029296875
-0.002197265625
0.0
-0.0040283203125
0.0069580078125
-0.0025634765625
0.0076904296875
0.00732421875
-0.0523681640625
0.0062255859375
-0.082763671875
-0.0098876953125
0.063720703125
-0.005126953125
0.0867919921875
0.00439453125
-0.0076904296875
0.0040283203125
-0.0047607421875
0.005126953125
-0.0062255859375
0.0054931640625
-0.0076904296875
0.005126953125
-0.0040283203125
-0.0003662109375
-0.0003662109375
-0.005859375
0.0032958984375
-0.0054931640625
0.008056640625
-0.00146484375
0.0040283203125
0.0003662109375
-0.0025634765625
0.000732421875
-0.0025634765625
0.0029296875
-0.00439453125
-0.00146484375
-0.0029296875
-0.0040283203125
0.0040283203125
-0.0047607421875
0.008056640625
-0.008056640625
0.0120849609375
0.0032958984375
-0.128173828125
-0.0032958984375
0.003662109375
-0.006591796875
0.13623046875
0.005126953125
-0.00439453125
0.0029296875
-0.0025634765625
0.0025634765625
-0.003662109375
0.002197265625
-0.00439453125
0.0032958984375
-0.00146484375
0.002197265625
0.000732421875
-0.0047607421875
-0.0018310546875
-0.008056640625
0.0018310546875
-0.0029296875
0.0069580078125
0.0
0.0010986328125
0.000732421875
-0.00439453125
0.0018310546875
-0.0032958984375
0.0003662109375
-0.003662109375
-0.00439453125
0.0003662109375
-0.005859375
0.0076904296875
-0.0047607421875
0.00732421875
0.0084228515625
-0.0615234375
0.0047607421875
-0.1058349609375
-0.01171875
0.069580078125
-0.0032958984375
0.10986328125
0.0018310546875
-0.0018310546875
0.00146484375
-0.002197265625
0.0040283203125
-0.00439453125
0.006591796875
-0.0047607421875
0.006591796875
-0.0018310546875
-0.002197265625
-0.000732421875
-0.01025390625
-0.002197265625
-0.008056640625
0.0010986328125
-0.000732421875
0.00146484375
0.0010986328125
-0.0018310546875
0.0029296875
-0.00439453125
0.0032958984375
-0.005859375
-0.0040283203125
-0.00146484375
-0.0032958984375
0.003662109375
-0.0029296875
0.005859375
-0.005859375
0.0084228515625
0.0106201171875
-0.1409912109375
-0.00146484375
-0.006591796875
-0.0087890625
0.1461181640625
0.005859375
0.005859375
0.0010986328125
-0.0025634765625
0.0029296875
-0.0047607421875
0.0062255859375
-0.006591796875
0.00732421875
-0.0047607421875
0.005126953125
-0.00146484375
-0.0032958984375
-0.0032958984375
-0.0087890625
-0.000732421875
-0.00439453125
0.00439453125
0.0
0.0025634765625
0.0
-0.00146484375
0.002197265625
-0.003662109375
0.00439453125
-0.0076904296875
-0.0025634765625
-0.0054931640625
-0.00439453125
0.005859375
-0.0018310546875
0.008056640625
-0.00146484375
-0.009521484375
-0.000732421875
-0.169586181640625
-0.0054931640625
0.02197265625
0.000732421875
0.174346923828125
0.0069580078125
-0.006591796875
0.0040283203125
-0.0040283203125
0.006591796875
-0.005859375
0.0091552734375
-0.0091552734375
0.008056640625
-0.0054931640625
0.0025634765625
0.0010986328125
-0.0054931640625
0.0003662109375
-0.0076904296875
0.0029296875
-0.000732421875
0.0040283203125
0.002197265625
-0.0018310546875
0.0025634765625
-0.0040283203125
0.003662109375
-0.002197265625
0.0010986328125
-0.0029296875
-0.0025634765625
0.00146484375
-0.0032958984375
0.0062255859375
-0.0032958984375
0.005859375
0.0069580078125
-0.0823974609375
0.0040283203125
-0.0391845703125
-0.009521484375
0.0904541015625
-0.0018310546875
0.0435791015625
0.0025634765625
-0.00146484375
0.002197265625
-0.003662109375
0.0054931640625
-0.0076904296875
0.00732421875
-0.009521484375
0.0054931640625
-0.003662109375
-0.0018310546875
0.00146484375
-0.005859375
0.0025634765625
-0.003662109375
0.005859375
0.000732421875
0.0018310546875
0.00146484375
-0.00439453125
0.0003662109375
-0.0018310546875
0.00146484375
-0.002197265625
-0.0018310546875
-0.0032958984375
-0.0029296875
0.0040283203125
-0.0025634765625
0.00732421875
-0.003662109375
0.00439453125
0.00732421875
-0.144287109375
-0.0029296875
0.01171875
-0.008056640625
0.1505126953125
0.003662109375
-0.0084228515625
0.0025634765625
-0.0040283203125
0.0025634765625
-0.005126953125
0.002197265625
-0.006591796875
0.005126953125
-0.005859375
0.003662109375
-0.00146484375
-0.003662109375
0.00146484375
-0.0054931640625
0.006591796875
-0.000732421875
0.0054931640625
-0.000732421875
0.0
0.0
-0.002197265625
0.0029296875
-0.003662109375
0.0
-0.0018310546875
-0.0032958984375
0.00146484375
-0.0040283203125
0.0054931640625
-0.0054931640625
0.006591796875
0.0084228515625
-0.0941162109375
0.0062255859375
-0.0040283203125
-0.01025390625
0.098876953125
-0.00439453125
0.006591796875
0.0
0.0003662109375
0.0
-0.0018310546875
0.00146484375
-0.0032958984375
0.0025634765625
-0.0018310546875
0.0032958984375
-0.0003662109375
-0.0010986328125
-0.0029296875
-0.0047607421875
-0.0018310546875
-0.003662109375
0.0054931640625
-0.00146484375
0.003662109375
0.0
-0.0025634765625
0.002197265625
-0.003662109375
0.00146484375
-0.0054931640625
-0.002197265625
-0.0032958984375
-0.003662109375
0.005859375
-0.0040283203125
0.005859375
0.0062255859375
-0.0443115234375
0.0003662109375
-0.1376953125
-0.01171875
0.052734375
-0.00146484375
0.1417236328125
0.0032958984375
-0.005126953125
0.002197265625
-0.003662109375
0.00439453125
-0.0054931640625
0.0069580078125
-0.0047607421875
0.005859375
-0.000732421875
-0.0010986328125
-0.0003662109375
-0.0091552734375
-0.0040283203125
-0.0087890625
0.000732421875
-0.00146484375
0.003662109375
0.0018310546875
-0.000732421875
0.0029296875
-0.0029296875
0.0018310546875
-0.0054931640625
-0.0029296875
-0.003662109375
-0.003662109375
0.00439453125
-0.0025634765625
0.006591796875
-0.0076904296875
0.0106201171875
0.00146484375
-0.159332275390625
-0.0025634765625
-0.000732421875
-0.0029296875
0.166656494140625
0.009521484375
-0.002197265625
0.0029296875
-0.0025634765625
0.0040283203125
-0.0032958984375
0.006591796875
-0.0047607421875
0.00732421875
-0.0032958984375
0.00146484375
0.0018310546875
-0.0091552734375
0.0003662109375
-0.009521484375
0.000732421875
-0.0010986328125
0.0018310546875
0.0047607421875
-0.003662109375
0.0032958984375
-0.0032958984375
0.003662109375
-0.0040283203125
0.000732421875
-0.003662109375
-0.0047607421875
0.0018310546875
-0.003662109375
0.006591796875
-0.0040283203125
0.006591796875
0.010986328125
-0.0897216796875
0.005126953125
-0.0457763671875
-0.0106201171875
0.0948486328125
-0.0018310546875
0.0487060546875
0.0018310546875
-0.0018310546875
0.0025634765625
-0.003662109375
0.0040283203125
-0.003662109375
0.0076904296875
-0.006591796875
0.0062255859375
-0.0029296875
-0.0018310546875
0.0003662109375
-0.009521484375
0.0018310546875
-0.006591796875
0.005859375
-0.000732421875
0.003662109375
-0.0003662109375
-0.0010986328125
0.0029296875
-0.0032958984375
0.0029296875
-0.0054931640625
0.0
-0.005126953125
-0.0025634765625
0.003662109375
-0.003662109375
0.00732421875
-0.0018310546875
-0.0032958984375
0.0003662109375
-0.160064697265625
-0.003662109375
0.016845703125
0.000732421875
0.164825439453125
0.008056640625
-0.0076904296875
0.0025634765625
-0.0029296875
0.0018310546875
-0.0047607421875
0.00439453125
-0.0069580078125
0.006591796875
-0.0069580078125
0.0040283203125
-0.002197265625
-0.0029296875
0.0003662109375
-0.005859375
0.0047607421875
-0.002197265625
0.0054931640625
0.002197265625
-0.0018310546875
0.00146484375
-0.0029296875
0.002197265625
-0.00439453125
-0.0010986328125
-0.00146484375
-0.003662109375
0.0047607421875
-0.00146484375
0.0054931640625
-0.0054931640625
0.0087890625
0.0069580078125
-0.114990234375
0.000732421875
-0.0025634765625
-0.0084228515625
0.12158203125
0.0029296875
0.0010986328125
0.002197265625
-0.00439453125
0.002197265625
-0.0047607421875
0.003662109375
-0.005859375
0.005126953125
-0.006591796875
0.0029296875
-0.0025634765625
-0.002197265625
-0.000732421875
-0.005859375
0.005126953125
-0.0032958984375
0.0084228515625
-0.000732421875
0.00146484375
0.0003662109375
-0.00146484375
0.0029296875
-0.0018310546875
0.0010986328125
-0.003662109375
-0.0029296875
0.0
-0.00439453125
0.00732421875
-0.005126953125
0.005859375
0.0076904296875
-0.0714111328125
0.008056640625
-0.0380859375
-0.0098876953125
0.076904296875
-0.0054931640625
0.040283203125
0.0032958984375
-0.00439453125
0.00146484375
-0.003662109375
0.0029296875
-0.0040283203125
0.0040283203125
-0.0032958984375
0.0029296875
-0.0003662109375
-0.0018310546875
-0.0003662109375
-0.00732421875
0.00146484375
-0.005859375
0.0062255859375
-0.002197265625
0.005126953125
0.0018310546875
-0.0018310546875
0.002197265625
-0.003662109375
0.0003662109375
-0.0047607421875
-0.0025634765625
-0.003662109375
-0.005859375
0.0069580078125
-0.005126953125
0.0087890625
0.0029296875
-0.028564453125
0.0
-0.15966796875
-0.0087890625
0.0391845703125
0.00146484375
0.161865234375
0.005859375
-0.0084228515625
0.0032958984375
-0.005126953125
0.0054931640625
-0.005859375
0.0069580078125
-0.0040283203125
0.0062255859375
-0.000732421875
-0.000732421875
-0.0003662109375
-0.0087890625
-0.0029296875
-0.0091552734375
0.000732421875
-0.0032958984375
0.0040283203125
0.0
0.00146484375
0.0018310546875
-0.0010986328125
0.0018310546875
-0.00439453125
-0.0032958984375
-0.0025634765625
-0.0029296875
0.003662109375
-0.0025634765625
0.0062255859375
-0.00732421875
0.0106201171875
0.0062255859375
-0.147216796875
-0.0018310546875
-0.005126953125
-0.0069580078125
0.154541015625
0.00732421875
0.0029296875
0.0025634765625
-0.002197265625
0.0032958984375
-0.00439453125
0.005859375
-0.0069580078125
0.006591796875
-0.0029296875
0.005126953125
0.0
-0.0040283203125
-0.0025634765625
-0.009521484375
-0.0003662109375
-0.0047607421875
0.00439453125
-0.000732421875
0.0025634765625
0.000732421875
-0.0018310546875
0.002197265625
-0.0032958984375
0.002197265625
-0.0047607421875
-0.002197265625
-0.0018310546875
-0.0025634765625
0.005859375
-0.00146484375
0.0062255859375
0.0076904296875
-0.0556640625
0.0032958984375
-0.11572265625
-0.01171875
0.065185546875
-0.0040283203125
0.1226806640625
0.0029296875
-0.002197265625
0.003662109375
-0.0054931640625
0.00439453125
-0.0062255859375
0.005859375
-0.0054931640625
0.0069580078125
-0.0032958984375
0.0003662109375
-0.000732421875
-0.008056640625
0.0
-0.0069580078125
0.003662109375
0.0
0.0029296875
0.0010986328125
-0.000732421875
0.0032958984375
-0.0029296875
0.0054931640625
-0.0062255859375
-0.0010986328125
-0.003662109375
-0.0029296875
0.0032958984375
-0.002197265625
0.005859375
-0.0054931640625
0.0098876953125
0.0069580078125
-0.134765625
0.0003662109375
-0.006591796875
-0.0054931640625
0.140625
0.0062255859375
0.0032958984375
0.003662109375
-0.0040283203125
0.0018310546875
-0.0025634765625
0.0032958984375
-0.005126953125
0.00732421875
-0.009521484375
0.0054931640625
-0.00439453125
-0.0029296875
0.000732421875
-0.0069580078125
0.0032958984375
-0.0029296875
0.0047607421875
0.000732421875
0.0003662109375
0.000732421875
-0.0029296875
0.00146484375
-0.0018310546875
0.002197265625
-0.003662109375
-0.000732421875
-0.00439453125
-0.0025634765625
0.0054931640625
-0.0032958984375
0.009521484375
0.0047607421875
-0.0333251953125
0.0029296875
-0.125244140625
-0.0084228515625
0.0435791015625
0.0003662109375
0.1259765625
0.0054931640625
-0.006591796875
0.0018310546875
-0.0029296875
0.0029296875
-0.0054931640625
0.0032958984375
-0.0054931640625
0.0029296875
-0.0047607421875
0.0018310546875
-0.002197265625
-0.003662109375
0.000732421875
-0.0054931640625
0.0062255859375
0.0
0.00439453125
0.0010986328125
-0.002197265625
0.0018310546875
-0.0040283203125
0.0018310546875
-0.00439453125
-0.0025634765625
-0.0010986328125
-0.0047607421875
0.005126953125
-0.0040283203125
0.00732421875
-0.0062255859375
0.0087890625
0.0062255859375
-0.119384765625
0.000732421875
-0.0010986328125
-0.0087890625
0.125244140625
0.0025634765625
-0.000732421875
0.0029296875
-0.0040283203125
0.0025634765625
-0.0047607421875
0.002197265625
-0.00439453125
0.0029296875
-0.002197265625
0.0029296875
-0.0003662109375
-0.002197265625
-0.0040283203125
-0.006591796875
0.0003662109375
-0.0054931640625
0.0076904296875
-0.00146484375
0.0029296875
-0.000732421875
-0.000732421875
0.00146484375
-0.0018310546875
0.00146484375
-0.00439453125
-0.0032958984375
-0.0025634765625
-0.0029296875
0.0047607421875
-0.0025634765625
0.0076904296875
0.0076904296875
-0.0523681640625
0.0018310546875
-0.123779296875
-0.0113525390625
0.0615234375
-0.003662109375
0.129638671875
0.0018310546875
-0.0018310546875
0.0047607421875
-0.005126953125
0.0047607421875
-0.0054931640625
0.005859375
-0.00439453125
0.0062255859375
0.0
-0.0010986328125
0.0003662109375
-0.009521484375
-0.0025634765625
-0.0084228515625
0.002197265625
-0.0003662109375
0.0025634765625
0.0010986328125
-0.0010986328125
0.0
-0.0010986328125
0.0018310546875
-0.0029296875
0.0010986328125
-0.0040283203125
-0.0018310546875
0.0003662109375
-0.003662109375
0.005126953125
-0.0062255859375
0.0076904296875
0.0113525390625
-0.119384765625
0.0018310546875
-0.015380859375
-0.01318359375
0.1259765625
0.0018310546875
0.01611328125
0.0025634765625
-0.002197265625
0.003662109375
-0.003662109375
0.00439453125
-0.0047607421875
0.006591796875
-0.003662109375
0.0069580078125
-0.00146484375
-0.002197265625
-0.0025634765625
-0.0084228515625
-0.0029296875
-0.006591796875
0.0032958984375
-0.00146484375
0.003662109375
0.0010986328125
-0.000732421875
0.0025634765625
-0.0029296875
0.0029296875
-0.005859375
-0.0029296875
-0.0025634765625
-0.0029296875
0.005126953125
-0.002197265625
0.00732421875
-0.005859375
0.009521484375
0.0029296875
-0.163726806640625
-0.002197265625
0.0
-0.000732421875
0.167022705078125
0.008056640625
-0.0032958984375
0.0010986328125
-0.0025634765625
0.003662109375
-0.00439453125
0.0062255859375
-0.0062255859375
0.005859375
-0.0040283203125
0.003662109375
-0.0003662109375
-0.0040283203125
-0.0018310546875
-0.0076904296875
0.0
-0.0025634765625
0.0032958984375
0.000732421875
0.000732421875
0.0
-0.00146484375
0.0018310546875
-0.000732421875
0.0029296875
-0.005126953125
-0.002197265625
-0.005859375
-0.0025634765625
0.005126953125
-0.000732421875
0.0069580078125
0.0
-0.0098876953125
0.000732421875
-0.162261962890625
-0.003662109375
0.0216064453125
0.002197265625
0.165557861328125
0.006591796875
-0.0084228515625
0.0029296875
-0.0040283203125
0.005859375
-0.0076904296875
0.0087890625
-0.0098876953125
0.0098876953125
-0.00732421875
0.0076904296875
-0.0054931640625
0.0032958984375
-0.0087890625
0.005126953125
-0.008056640625
0.01171875
-0.008056640625
0.0128173828125
-0.0142822265625
0.0113525390625
-0.0146484375
0.012451171875
-0.010986328125
0.0120849609375
-0.012451171875
0.0087890625
-0.0098876953125
0.003662109375
0.00146484375
-0.0010986328125
0.0040283203125
0.006591796875
-0.0596923828125
0.0047607421875
-0.07177734375
-0.013916015625
0.0721435546875
-0.01171875
0.0849609375
-0.0025634765625
0.00146484375
-0.002197265625
0.0003662109375
-0.00146484375
-0.00146484375
-0.00146484375
-0.00146484375
-0.0003662109375
0.000732421875
-0.005859375
0.003662109375
-0.0135498046875
0.008056640625
-0.01171875
0.010986328125
-0.0054931640625
0.006591796875
-0.0032958984375
0.0003662109375
-0.00146484375
-0.0010986328125
0.0010986328125
-0.0025634765625
-0.005126953125
0.00146484375
-0.0069580078125
0.008056640625
-0.005126953125
0.0087890625
-0.009521484375
0.0120849609375
0.0040283203125
-0.1234130859375
-0.003662109375
0.0
-0.009521484375
0.1329345703125
0.0032958984375
0.0018310546875
-0.0003662109375
0.0
-0.0106201171875
-0.00439453125
-0.0106201171875
-0.00439453125
