0.025634765625
-0.160064697265625
0.015380859375
-0.213531494140625
0.0179443359375
0.034088134765625
0.0029296875
0.147613525390625
-0.029296875
0.07470703125
-0.00732421875
0.022705078125
-0.0106201171875
0.0252685546875
-0.0194091796875
0.046875
-0.0201416015625
0.0501708984375
-0.0106201171875
-0.000732421875
0.01318359375
-0.0732421875
0.0340576171875
-0.0802001953125
0.027099609375
-0.034423828125
0.0098876953125
-0.0087890625
0.000732421875
0.0018310546875
-0.0010986328125
0.005859375
0.0
-0.00146484375
-0.003662109375
-0.005126953125
0.0003662109375
-0.000732421875
0.0062255859375
0.005859375
0.002197265625
0.003662109375
0.0010986328125
-0.00146484375
-0.00146484375
-0.000732421875
0.006591796875
-0.067779541015625
0.002197265625
-0.143951416015625
0.0120849609375
0.021270751953125
-0.0113525390625
0.166656494140625
-0.037353515625
0.0926513671875
-0.021240234375
0.03515625
-0.024169921875
0.03076171875
-0.031494140625
0.052734375
-0.0384521484375
0.0574951171875
-0.0146484375
-0.002197265625
0.02197265625
-0.0765380859375
0.03515625
-0.078369140625
0.02490234375
-0.0333251953125
0.0113525390625
-0.0054931640625
0.0054931640625
0.000732421875
0.005126953125
0.0
0.0032958984375
-0.00146484375
0.0010986328125
-0.0106201171875
0.005126953125
-0.0069580078125
0.00732421875
0.0054931640625
0.0029296875
0.0047607421875
0.0054931640625
-0.0010986328125
0.003662109375
0.0025634765625
0.0113525390625
-0.085723876953125
0.0142822265625
-0.145050048828125
0.01318359375
0.052764892578125
-0.0150146484375
0.161895751953125
-0.029296875
0.072509765625
-0.005126953125
0.0263671875
-0.00732421875
0.02783203125
-0.0142822265625
0.0509033203125
-0.019775390625
0.0498046875
-0.0047607421875
-0.01025390625
0.018310546875
-0.07763671875
0.03369140625
-0.0780029296875
0.0252685546875
-0.0322265625
0.0106201171875
-0.0062255859375
0.0054931640625
0.0010986328125
0.00439453125
0.002197265625
0.00439453125
-0.0025634765625
-0.003662109375
-0.0091552734375
0.000732421875
-0.0010986328125
0.008056640625
0.0032958984375
0.002197265625
-0.0003662109375
0.0010986328125
-0.0010986328125
0.000732421875
-0.003662109375
-0.000732421875
-0.084991455078125
-0.005126953125
-0.134429931640625
0.0146484375
0.038482666015625
-0.002197265625
0.144317626953125
-0.03076171875
0.0703125
-0.0076904296875
0.0150146484375
-0.005126953125
0.01904296875
-0.0087890625
0.041748046875
-0.010986328125
0.0377197265625
-0.0018310546875
-0.01025390625
0.0267333984375
-0.076904296875
0.0498046875
-0.0867919921875
0.043212890625
-0.046142578125
0.0245361328125
-0.024169921875
0.0230712890625
-0.0208740234375
0.0245361328125
-0.0164794921875
0.01904296875
-0.023101806640625
-0.0091552734375
-0.030792236328125
-0.031494140625
-0.019775390625
0.0010986328125
-0.0113525390625
0.0238037109375
-0.01025390625
0.010986328125
-0.0062255859375
0.005126953125
0.000732421875
0.008056640625
-0.059326171875
-0.0025634765625
-0.1072998046875
0.028961181640625
0.0245361328125
0.0076904296875
0.141357421875
-0.033721923828125
0.087554931640625
-0.0098876953125
0.022369384765625
-0.0054931640625
0.0325927734375
-0.003662109375
0.065185546875
-0.0076904296875
0.0736083984375
-0.01611328125
0.0252685546875
-0.01318359375
-0.052001953125
0.006591796875
-0.064453125
0.0054931640625
-0.0245361328125
-0.0069580078125
-0.0040283203125
-0.00146484375
0.000732421875
0.0069580078125
0.0091552734375
0.0146484375
0.009521484375
0.0113525390625
0.0018310546875
0.00732421875
0.0084228515625
0.0087890625
0.0113525390625
0.0003662109375
0.01025390625
-0.0040283203125
0.0091552734375
-0.0018310546875
0.0062255859375
-0.005859375
-0.0399169921875
-0.0340576171875
-0.109161376953125
0.030029296875
-0.0084228515625
0.0552978515625
0.134796142578125
-0.0025634765625
0.09375
-0.00732421875
0.0223388671875
-0.03515625
0.019775390625
-0.049072265625
0.046142578125
-0.035888671875
0.064453125
-0.0164794921875
0.0201416015625
0.01171875
-0.0582275390625
0.041015625
-0.0721435546875
0.068878173828125
-0.024169921875
0.117218017578125
0.0120849609375
0.245361328125
0.0208740234375
0.316436767578125
0.0128173828125
0.204742431640625
0.0069580078125
0.0765380859375
0.009521484375
0.056396484375
0.0303955078125
0.114654541015625
0.0421142578125
0.085357666015625
0.03369140625
-0.00146484375
0.029296875
-0.015380859375
0.0025634765625
0.01025390625
-0.0955810546875
0.015380859375
-0.1962890625
0.0003662109375
-0.056396484375
0.0003662109375
0.1025390625
-0.0003662109375
0.0556640625
-0.034088134765625
0.00732421875
-0.143218994140625
0.01318359375
-0.2054443359375
0.0545654296875
-0.174346923828125
0.08203125
-0.156036376953125
0.040283203125
-0.1658935546875
-0.035888671875
-0.167724609375
-0.0809326171875
-0.1043701171875
-0.0787353515625
-0.050567626953125
-0.044677734375
-0.056793212890625
-0.01171875
-0.057861328125
0.0054931640625
-0.0439453125
-0.0091552734375
-0.0380859375
-0.031494140625
-0.0076904296875
-0.0435791015625
0.04541015625
-0.094146728515625
0.069580078125
-0.138092041015625
0.03662109375
-0.095947265625
-0.367340087890625
0.41973876953125
-0.0728759765625
0.829559326171875
-0.48968505859375
0.56292724609375
-0.783782958984375
0.178375244140625
0.0
0.0
0.0003662109375
0.0
-0.0003662109375
0.0
1.0
-1.0
1.0
-1.0
-0.38128662109375
0.0
-0.127105712890625
0.0
-0.046142578125
0.0
0.01318359375
0.0
0.063720703125
0.0
0.0721435546875
0.0
0.0362548828125
0.0
0.039215087890625
0.0
0.136993408203125
0.0
0.2193603515625
0.0
0.176910400390625
0.0
0.032958984375
0.0
-0.035552978515625
0.0
-0.0325927734375
0.0
-0.0032958984375
0.0
0.030029296875
0.0
0.053497314453125
0.0
-0.0084228515625
0.0
-0.182037353515625
0.0
-0.2200927734375
0.0
-0.117919921875
0.0
-0.045440673828125
0.0
-0.042510986328125
0.0
-0.02783203125
0.0
0.042877197265625
0.0
0.142852783203125
0.0
0.299591064453125
0.0
0.201812744140625
0.0
0.0003662109375
0.0
0.0003662109375
0.0
-0.0003662109375
0.0
-1.0
0.0
-1.0
0.0
0.0
0.0
0.0003662109375
0.0
0.0
0.0
0.0
0.0
0.0
0.0
-0.0003662109375
0.0
0.0
0.0
0.0
0.0
0.0003662109375
0.0
0.0
0.0
0.0
0.0
0.0
0.0
-0.0003662109375
0.0
0.0003662109375
0.0
0.0
0.0
-0.0003662109375
0.0
0.0003662109375
0.0
0.0
0.0
-0.0003662109375
0.0
0.0003662109375
0.0
0.0
0.0
-0.0003662109375
0.0
0.0
0.117218017578125
0.0
0.294097900390625
0.0
0.436920166015625
0.0
0.48272705078125
0.0
0.36370849609375
0.0
0.0692138671875
0.0003662109375
-0.033721923828125
0.0
0.161895751953125
-0.0003662109375
0.157135009765625
0.0
0.037353515625
0.0
0.00732421875
0.0
0.015380859375
0.0003662109375
0.03662109375
0.0
0.029296875
0.036285400390625
-0.035888671875
0.090484619140625
-0.093017578125
0.100341796875
-0.0706787109375
0.079833984375
-0.0230712890625
0.0684814453125
-0.0047607421875
0.0743408203125
-0.0018310546875
0.0823974609375
-0.0084228515625
0.080596923828125
-0.021240234375
0.078399658203125
-0.013916015625
0.08349609375
-0.00732421875
0.081298828125
-0.0069580078125
0.0728759765625
0.0
0.0655517578125
-0.0128173828125
0.060791015625
-0.061553955078125
0.034423828125
-0.164093017578125
0.05126953125
-0.0369873046875
0.025634765625
0.151275634765625
-0.019775390625
0.087921142578125
0.0040283203125
0.01171875
0.0025634765625
0.0076904296875
-0.01025390625
0.0322265625
-0.0201416015625
0.0369873046875
-0.0032958984375
-0.0128173828125
0.040283203125
-0.097442626953125
0.063018798828125
-0.116119384765625
0.045074462890625
-0.0714111328125
0.017578125
-0.046875
-0.0087890625
-0.041015625
-0.0380859375
-0.0318603515625
-0.041046142578125
-0.028564453125
-0.016143798828125
-0.016845703125
0.009918212890625
-0.0040283203125
0.014678955078125
-0.0091552734375
0.01171875
-0.00732421875
0.0146484375
-0.0054931640625
0.0098876953125
0.00732421875
0.02490234375
-0.158966064453125
0.0479736328125
-0.1080322265625
-0.008056640625
0.147247314453125
-0.0443115234375
0.08935546875
-0.005859375
0.0010986328125
0.005859375
-0.00146484375
-0.003662109375
0.0194091796875
-0.0047607421875
0.03515625
0.0281982421875
0.00732421875
0.081298828125
-0.0545654296875
0.1175537109375
-0.0765380859375
0.0911865234375
-0.044677734375
0.022705078125
-0.0150146484375
-0.018310546875
-0.0003662109375
-0.0208740234375
0.0025634765625
-0.0164794921875
0.0010986328125
-0.0091552734375
-0.0025634765625
0.008056640625
0.002197265625
0.028564453125
0.008056640625
0.041748046875
-0.003662109375
0.025634765625
-0.0069580078125
-0.0029296875
0.01318359375
-0.00146484375
-0.127838134765625
0.00732421875
-0.130035400390625
-0.005859375
0.119049072265625
-0.029296875
0.129669189453125
-0.0296630859375
0.0340576171875
-0.009521484375
0.0179443359375
-0.013916015625
0.0296630859375
-0.0267333984375
0.049072265625
-0.0245361328125
0.032958984375
-0.0142822265625
-0.0245361328125
0.009521484375
-0.068115234375
0.028564453125
-0.0538330078125
0.02197265625
-0.021240234375
0.008056640625
-0.0054931640625
0.000732421875
-0.0029296875
-0.000732421875
-0.00146484375
0.000732421875
-0.01025390625
0.0069580078125
-0.013916015625
0.019775390625
-0.01025390625
0.0208740234375
-0.01171875
0.01318359375
-0.0120849609375
-0.005126953125
0.002197265625
-0.0069580078125
-0.009552001953125
-0.03369140625
-0.119049072265625
0.0120849609375
-0.0567626953125
0.031494140625
0.127105712890625
-0.021240234375
0.097076416015625
-0.010986328125
0.0260009765625
-0.019775390625
0.0340576171875
-0.0296630859375
0.0611572265625
-0.034423828125
0.0728759765625
-0.0281982421875
0.03369140625
-0.0084228515625
-0.03369140625
0.019775390625
-0.0611572265625
0.02783203125
-0.0318603515625
0.0113525390625
-0.0010986328125
-0.00146484375
0.0087890625
0.0
0.0069580078125
0.00146484375
0.000732421875
-0.0003662109375
-0.0029296875
0.003662109375
0.002197265625
0.0062255859375
0.005859375
0.0018310546875
0.00146484375
0.0025634765625
0.002197265625
-0.00146484375
0.006591796875
-0.0069580078125
-0.098907470703125
-0.0010986328125
-0.131500244140625
0.0205078125
0.070343017578125
0.000732421875
0.145782470703125
-0.024169921875
0.0596923828125
-0.0069580078125
0.0223388671875
-0.0087890625
0.031494140625
-0.0201416015625
0.0516357421875
-0.0208740234375
0.04833984375
-0.01025390625
-0.008056640625
0.0128173828125
-0.076904296875
0.0333251953125
-0.0728759765625
0.0245361328125
-0.0274658203125
0.0054931640625
-0.0040283203125
0.0010986328125
0.0047607421875
0.000732421875
0.0032958984375
-0.0010986328125
-0.000732421875
-0.0025634765625
-0.0040283203125
0.0010986328125
0.0018310546875
0.0054931640625
0.0084228515625
0.0040283203125
0.0054931640625
0.0040283203125
0.00439453125
0.00146484375
0.017578125
-0.010986328125
-0.121978759765625
0.0106201171875
-0.144317626953125
0.0186767578125
0.112091064453125
-0.0186767578125
0.153472900390625
-0.0230712890625
0.0479736328125
-0.01025390625
0.022705078125
-0.0120849609375
0.0333251953125
-0.0230712890625
0.052001953125
-0.0260009765625
0.0362548828125
-0.000732421875
-0.0340576171875
0.0318603515625
-0.0849609375
0.0355224609375
-0.0626220703125
0.0172119140625
-0.0208740234375
-0.0029296875
0.000732421875
-0.0029296875
0.0025634765625
0.0018310546875
-0.002197265625
-0.0029296875
-0.0106201171875
-0.0018310546875
-0.0054931640625
0.0032958984375
0.0032958984375
0.0069580078125
0.002197265625
0.00439453125
0.0003662109375
0.0003662109375
0.0003662109375
-0.0076904296875
0.0230712890625
-0.0245361328125
-0.124176025390625
0.022705078125
-0.1307373046875
0.027099609375
0.120880126953125
-0.0120849609375
0.119384765625
-0.0040283203125
0.0245361328125
-0.0106201171875
0.021240234375
-0.01318359375
0.032958984375
-0.0194091796875
0.0487060546875
-0.0186767578125
0.0267333984375
-0.003662109375
-0.0384521484375
0.0208740234375
-0.07763671875
0.03076171875
-0.053466796875
0.0146484375
-0.017578125
-0.0010986328125
-0.00146484375
-0.0029296875
0.0032958984375
-0.0003662109375
0.0018310546875
-0.005126953125
-0.005859375
-0.005126953125
-0.0032958984375
0.0054931640625
0.0047607421875
0.0062255859375
0.0062255859375
-0.000732421875
0.00439453125
-0.0032958984375
0.005126953125
-0.00146484375
0.009521484375
-0.0322265625
-0.125640869140625
0.0135498046875
-0.0955810546875
0.0263671875
0.136260986328125
-0.018310546875
0.114990234375
-0.002197265625
0.02197265625
-0.0087890625
0.022705078125
-0.0135498046875
0.038818359375
-0.0216064453125
0.0552978515625
-0.0186767578125
0.02783203125
0.0010986328125
-0.0450439453125
0.0252685546875
-0.0823974609375
0.0322265625
-0.056396484375
0.018310546875
-0.01904296875
0.000732421875
-0.0010986328125
-0.0010986328125
0.0032958984375
0.002197265625
0.0010986328125
-0.005126953125
-0.0029296875
-0.00439453125
-0.002197265625
0.0032958984375
0.0047607421875
0.005126953125
0.0029296875
0.0003662109375
-0.0003662109375
0.0003662109375
0.00146484375
0.0069580078125
-0.022705078125
-0.032958984375
-0.126007080078125
0.012451171875
-0.0582275390625
0.030029296875
0.136260986328125
-0.0230712890625
0.1065673828125
-0.0069580078125
0.0216064453125
-0.0120849609375
0.022705078125
-0.018310546875
0.0439453125
-0.0234375
0.0560302734375
-0.01611328125
0.0164794921875
0.003662109375
-0.0582275390625
0.028564453125
-0.08349609375
0.03369140625
-0.0479736328125
0.0120849609375
-0.0120849609375
-0.0018310546875
0.000732421875
-0.0025634765625
0.005126953125
0.0003662109375
0.000732421875
-0.002197265625
-0.006591796875
-0.000732421875
-0.0003662109375
0.0054931640625
0.0076904296875
0.0040283203125
0.005126953125
0.002197265625
0.0010986328125
0.0010986328125
0.0025634765625
-0.0040283203125
-0.0421142578125
-0.038818359375
-0.114990234375
0.0179443359375
-0.02490234375
0.0340576171875
0.12890625
-0.0201416015625
0.0999755859375
-0.00439453125
0.0234375
-0.00732421875
0.022705078125
-0.012451171875
0.0439453125
-0.0205078125
0.0552978515625
-0.0186767578125
0.0157470703125
0.00146484375
-0.0567626953125
0.0296630859375
-0.0823974609375
0.029296875
-0.04248046875
0.0106201171875
-0.0069580078125
0.0010986328125
0.0010986328125
0.0
0.0032958984375
0.0018310546875
-0.0003662109375
-0.00439453125
-0.0047607421875
-0.0029296875
0.0003662109375
0.005126953125
0.00439453125
0.0029296875
0.0032958984375
-0.000732421875
0.0018310546875
0.000732421875
0.000732421875
-0.00439453125
-0.0457763671875
-0.035888671875
-0.116455078125
0.0179443359375
-0.01611328125
0.02783203125
0.13330078125
-0.0245361328125
0.09814453125
-0.005859375
0.0238037109375
-0.006591796875
0.0234375
-0.013916015625
0.0443115234375
-0.017578125
0.052734375
-0.0146484375
0.012451171875
0.0040283203125
-0.060791015625
0.0303955078125
-0.084228515625
0.0274658203125
-0.0465087890625
0.0069580078125
-0.0084228515625
-0.0003662109375
0.0010986328125
0.0025634765625
0.00146484375
0.0018310546875
0.0
-0.0032958984375
-0.0047607421875
-0.002197265625
0.0
0.005126953125
0.0040283203125
0.005859375
0.002197265625
0.0003662109375
0.002197265625
0.0
0.00146484375
-0.00146484375
-0.03515625
-0.0450439453125
-0.117919921875
0.017578125
-0.043212890625
0.04248046875
0.125244140625
-0.01904296875
0.1036376953125
-0.0069580078125
0.0274658203125
-0.01025390625
0.0238037109375
-0.015380859375
0.0443115234375
-0.0252685546875
0.0596923828125
-0.018310546875
0.0135498046875
0.0091552734375
-0.0692138671875
0.034423828125
-0.0897216796875
0.0325927734375
-0.0479736328125
0.0150146484375
-0.01025390625
0.0054931640625
0.0018310546875
0.005859375
0.0003662109375
0.005859375
-0.003662109375
-0.0003662109375
-0.0062255859375
0.000732421875
-0.00146484375
0.0025634765625
0.000732421875
0.0
0.002197265625
-0.0010986328125
0.0
-0.0029296875
0.0018310546875
0.0087890625
-0.0120849609375
-0.0062255859375
-0.145416259765625
0.0120849609375
-0.05419921875
-0.0025634765625
0.159332275390625
-0.0377197265625
0.0999755859375
-0.0113525390625
0.02490234375
-0.015380859375
0.02490234375
-0.0205078125
0.043212890625
-0.0234375
0.0538330078125
-0.0142822265625
0.0135498046875
0.012451171875
-0.0618896484375
0.034423828125
-0.081298828125
0.0322265625
-0.04248046875
0.0128173828125
-0.0120849609375
-0.002197265625
0.0018310546875
-0.005126953125
0.006591796875
-0.0029296875
0.0054931640625
-0.003662109375
-0.0047607421875
-0.0040283203125
0.0
0.0025634765625
0.008056640625
0.005859375
0.0029296875
0.0025634765625
0.0003662109375
0.0032958984375
-0.000732421875
0.008056640625
-0.02197265625
-0.030029296875
-0.1241455078125
0.01025390625
-0.04833984375
0.0234375
0.138427734375
-0.025634765625
0.1029052734375
-0.005859375
0.0267333984375
-0.01025390625
0.022705078125
-0.0146484375
0.0413818359375
-0.02197265625
0.057861328125
-0.016845703125
0.01611328125
0.0076904296875
-0.0556640625
0.03076171875
-0.073974609375
0.03076171875
-0.0399169921875
0.0128173828125
-0.0098876953125
0.000732421875
0.0018310546875
-0.0018310546875
0.008056640625
-0.0003662109375
0.0047607421875
-0.0029296875
-0.000732421875
-0.000732421875
-0.0010986328125
0.00439453125
0.0040283203125
0.0047607421875
0.0047607421875
0.0032958984375
0.0018310546875
0.0
0.0029296875
-0.0047607421875
0.01904296875
-0.0325927734375
-0.1204833984375
0.01611328125
-0.1160888671875
0.0289306640625
0.1300048828125
-0.019775390625
0.1259765625
-0.0084228515625
0.0340576171875
-0.0091552734375
0.0347900390625
-0.01171875
0.0443115234375
-0.0172119140625
0.054595947265625
-0.01611328125
0.027130126953125
-0.0032958984375
-0.038848876953125
0.0223388671875
-0.078399658203125
0.0333251953125
-0.0556640625
0.016845703125
-0.01904296875
0.0003662109375
-0.0018310546875
-0.000732421875
0.003662109375
0.0010986328125
0.000732421875
-0.000732421875
-0.0040283203125
-0.005126953125
-0.0084228515625
-0.0018310546875
0.0003662109375
0.0032958984375
0.00439453125
0.0010986328125
-0.000732421875
0.0003662109375
0.0025634765625
-0.0040283203125
0.015380859375
-0.0091552734375
-0.11279296875
0.0054931640625
-0.1417236328125
0.0179443359375
0.09228515625
-0.0084228515625
0.1439208984375
-0.017578125
0.0457763671875
-0.0054931640625
0.01904296875
-0.01171875
0.0289306640625
-0.0194091796875
0.046875
-0.0201416015625
0.03662109375
-0.0091552734375
-0.0194091796875
0.0164794921875
-0.0732421875
0.0333251953125
-0.0692138671875
0.021240234375
-0.030029296875
0.00439453125
-0.00732421875
-0.000732421875
-0.003662109375
-0.0010986328125
-0.0003662109375
0.0
-0.003662109375
-0.0029296875
-0.008056640625
0.0
-0.002197265625
0.0040283203125
0.0032958984375
0.002197265625
0.0032958984375
0.0018310546875
-0.002197265625
-0.000732421875
0.000732421875
-0.005126953125
-0.037353515625
-0.0355224609375
-0.1168212890625
0.021240234375
-0.021240234375
0.0311279296875
0.1292724609375
-0.0238037109375
0.0911865234375
-0.005126953125
0.0205078125
-0.0076904296875
0.0194091796875
-0.0128173828125
0.040283203125
-0.019775390625
0.0498046875
-0.0150146484375
0.0091552734375
0.0047607421875
-0.0567626953125
0.0274658203125
-0.072509765625
0.030029296875
-0.0377197265625
0.0106201171875
-0.005859375
-0.0018310546875
0.002197265625
0.0003662109375
0.000732421875
0.003662109375
-0.000732421875
-0.0003662109375
-0.00439453125
-0.0032958984375
-0.0076904296875
0.00146484375
0.00146484375
0.0054931640625
0.0047607421875
0.000732421875
0.0010986328125
-0.0010986328125
0.00146484375
-0.0040283203125
0.0223388671875
-0.0281982421875
-0.11865234375
0.010986328125
-0.136962890625
0.0281982421875
0.111328125
-0.0106201171875
0.135498046875
-0.0076904296875
0.037353515625
-0.0069580078125
0.0205078125
-0.0128173828125
0.03515625
-0.018310546875
0.05126953125
-0.0164794921875
0.03662109375
-0.0076904296875
-0.0245361328125
0.0164794921875
-0.079833984375
0.0318603515625
-0.0684814453125
0.017578125
-0.025634765625
0.0047607421875
-0.0032958984375
0.000732421875
-0.0003662109375
0.0003662109375
-0.0010986328125
0.0025634765625
-0.0025634765625
-0.0025634765625
-0.0069580078125
-0.0025634765625
-0.003662109375
0.0032958984375
0.0062255859375
0.00146484375
0.0062255859375
0.0010986328125
0.00146484375
0.00146484375
-0.00146484375
-0.00439453125
-0.035888671875
-0.0443115234375
-0.1124267578125
0.0164794921875
-0.0325927734375
0.041015625
0.1292724609375
-0.0186767578125
0.1036376953125
-0.005126953125
0.0281982421875
-0.006591796875
0.022705078125
-0.013916015625
0.044677734375
-0.0205078125
0.056427001953125
-0.0179443359375
0.0172119140625
0.0003662109375
-0.055328369140625
0.025634765625
-0.0853271484375
0.0289306640625
-0.0501708984375
0.0120849609375
-0.0135498046875
0.0
-0.000732421875
-0.0003662109375
0.0025634765625
0.00146484375
0.000732421875
-0.0003662109375
-0.0003662109375
-0.0040283203125
0.0
0.0018310546875
0.0054931640625
0.0069580078125
0.005859375
0.0025634765625
0.0
-0.0010986328125
0.0
-0.0069580078125
0.0201416015625
-0.0238037109375
-0.1182861328125
0.008056640625
-0.138427734375
0.0281982421875
0.1072998046875
-0.005126953125
0.1490478515625
-0.0098876953125
0.057861328125
-0.006591796875
0.0333251953125
-0.0113525390625
0.041015625
-0.0172119140625
0.054962158203125
-0.019775390625
0.046173095703125
-0.01318359375
-0.012451171875
0.012451171875
-0.071075439453125
0.0325927734375
-0.062652587890625
0.0216064453125
-0.021240234375
0.0047607421875
0.0003662109375
0.0
0.005859375
-0.000732421875
0.0062255859375
0.002197265625
0.003662109375
-0.0032958984375
-0.003662109375
-0.0047607421875
0.0032958984375
0.0047607421875
0.012451171875
0.0032958984375
0.0062255859375
-0.0010986328125
0.00439453125
-0.000732421875
0.002197265625
0.003662109375
-0.010986328125
-0.05126953125
-0.10986328125
0.0076904296875
-0.0743408203125
0.0465087890625
0.1259765625
-0.017578125
0.124176025390625
-0.0032958984375
0.031158447265625
-0.00732421875
0.021240234375
-0.01318359375
0.0391845703125
-0.0186767578125
0.052734375
-0.017578125
0.0234375
-0.003662109375
-0.04833984375
0.0216064453125
-0.087554931640625
0.03076171875
-0.057891845703125
0.0150146484375
-0.0172119140625
0.002197265625
-0.0040283203125
-0.000732421875
-0.0029296875
0.0003662109375
-0.0025634765625
0.0010986328125
-0.005859375
-0.0032958984375
-0.0098876953125
-0.000732421875
-0.0047607421875
0.0040283203125
0.0047607421875
0.000732421875
0.0029296875
0.00146484375
-0.0018310546875
0.00146484375
-0.00146484375
-0.0098876953125
-0.0791015625
-0.0194091796875
-0.1292724609375
0.025634765625
0.0208740234375
0.0201416015625
0.1417236328125
-0.0146484375
0.0816650390625
-0.003662109375
0.0194091796875
-0.01025390625
0.025665283203125
-0.0164794921875
0.045440673828125
-0.022705078125
0.052734375
-0.0146484375
0.0054931640625
0.008056640625
-0.069610595703125
0.028564453125
-0.088653564453125
0.0252685546875
-0.049072265625
0.0091552734375
-0.0146484375
0.0
-0.005859375
-0.000732421875
-0.0054931640625
0.00146484375
-0.006591796875
-0.002197265625
-0.006591796875
-0.0054931640625
-0.008056640625
0.000732421875
-0.002197265625
0.008056640625
0.0010986328125
0.0040283203125
-0.000732421875
0.0
-0.0003662109375
-0.008056640625
0.0238037109375
-0.0281982421875
-0.1256103515625
0.0106201171875
-0.1490478515625
0.0260009765625
0.106201171875
-0.0084228515625
0.139892578125
-0.006591796875
0.031494140625
-0.0106201171875
0.0040283203125
-0.019775390625
0.0333251953125
-0.0267333984375
0.058990478515625
-0.0267333984375
0.047637939453125
-0.0091552734375
-0.023834228515625
0.0234375
-0.088653564453125
0.0413818359375
-0.073974609375
0.0216064453125
-0.0274658203125
0.0003662109375
-0.00146484375
-0.0032958984375
0.0029296875
-0.0029296875
0.002197265625
-0.0032958984375
-0.0018310546875
-0.0098876953125
-0.003662109375
-0.0025634765625
-0.0003662109375
0.005859375
-0.0040283203125
-0.000732421875
-0.0062255859375
-0.002197265625
-0.00439453125
0.0025634765625
-0.008056640625
0.021240234375
-0.106201171875
0.03515625
-0.174713134765625
0.005126953125
0.05712890625
-0.0428466796875
0.173980712890625
-0.0377197265625
0.052001953125
-0.0098876953125
0.0128173828125
-0.0150146484375
0.0205078125
-0.02783203125
0.047607421875
-0.029296875
0.050537109375
-0.0040283203125
-0.0135498046875
0.031494140625
-0.0802001953125
0.0428466796875
-0.0706787109375
0.0263671875
-0.0296630859375
0.006591796875
-0.00439453125
-0.0029296875
0.0047607421875
-0.0029296875
0.00439453125
-0.0003662109375
0.0003662109375
-0.0010986328125
-0.0054931640625
0.0032958984375
0.000732421875
0.0047607421875
0.0054931640625
0.000732421875
-0.002197265625
-0.0003662109375
-0.00439453125
-0.003662109375
0.00732421875
0.0025634765625
-0.088623046875
0.0146484375
-0.1358642578125
0.017578125
0.071044921875
-0.01318359375
0.1409912109375
-0.025634765625
0.04541015625
-0.0084228515625
0.0208740234375
-0.01025390625
0.0281982421875
-0.018310546875
0.0498046875
-0.022705078125
0.0439453125
-0.0069580078125
-0.0135498046875
0.0186767578125
-0.0743408203125
0.0340576171875
-0.06884765625
0.024169921875
-0.025634765625
0.0087890625
-0.002197265625
0.00146484375
0.00439453125
-0.0018310546875
0.005126953125
0.0003662109375
0.0
-0.003662109375
-0.0069580078125
-0.00146484375
-0.0025634765625
0.006591796875
0.0054931640625
0.00439453125
0.00439453125
-0.0003662109375
0.0032958984375
0.0
0.005859375
-0.00146484375
-0.0780029296875
-0.005859375
-0.128173828125
0.0216064453125
0.0494384765625
0.0010986328125
0.1417236328125
-0.0252685546875
0.057861328125
-0.005859375
0.0208740234375
-0.0087890625
0.0289306640625
-0.0164794921875
0.0472412109375
-0.021240234375
0.043212890625
-0.012451171875
-0.00732421875
0.0091552734375
-0.0655517578125
0.0318603515625
-0.0677490234375
0.0274658203125
-0.0311279296875
0.0098876953125
-0.0069580078125
0.0040283203125
-0.0010986328125
0.0040283203125
0.0
0.0029296875
-0.0025634765625
-0.0003662109375
-0.0062255859375
0.0018310546875
-0.003662109375
0.006591796875
0.0003662109375
0.0040283203125
0.0010986328125
-0.000732421875
0.0
-0.0032958984375
-0.0003662109375
0.0025634765625
-0.0472412109375
-0.0216064453125
-0.126708984375
0.017578125
-0.012451171875
0.02197265625
0.1343994140625
-0.0267333984375
0.0816650390625
-0.010986328125
0.02197265625
-0.013916015625
0.022705078125
-0.0179443359375
0.0391845703125
-0.0234375
0.047607421875
-0.015380859375
0.006591796875
0.0062255859375
-0.060791015625
0.0281982421875
-0.07470703125
0.0296630859375
-0.038818359375
0.0087890625
-0.01025390625
-0.0032958984375
0.0010986328125
-0.0025634765625
0.005126953125
-0.0003662109375
0.0029296875
-0.0040283203125
-0.00439453125
-0.0032958984375
0.0003662109375
0.0047607421875
0.0087890625
0.0054931640625
0.00732421875
-0.0003662109375
0.005126953125
-0.002197265625
0.003662109375
0.0040283203125
-0.003662109375
-0.0318603515625
-0.1204833984375
0.0113525390625
-0.0714111328125
0.0281982421875
0.1343994140625
-0.0238037109375
0.1065673828125
-0.009521484375
0.025634765625
-0.0113525390625
0.0274658203125
-0.0146484375
0.041015625
-0.01904296875
0.0545654296875
-0.015380859375
0.02197265625
-0.000732421875
-0.04248046875
0.022705078125
-0.06591796875
0.0325927734375
-0.046142578125
0.0186767578125
-0.0223388671875
0.0069580078125
-0.0208740234375
0.0025634765625
-0.0150146484375
0.0003662109375
-0.0047607421875
-0.002197265625
-0.005859375
-0.0018310546875
0.003662109375
0.0069580078125
0.0172119140625
0.0069580078125
0.0186767578125
0.0
0.021240234375
-0.0025634765625
0.0263671875
-0.0076904296875
0.0311279296875
-0.0556640625
-0.0941162109375
0.0029296875
-0.088623046875
0.0377197265625
0.13037109375
-0.0120849609375
0.13037109375
0.0003662109375
0.03662109375
-0.005859375
0.035186767578125
-0.010986328125
0.049102783203125
-0.019775390625
0.057861328125
-0.0208740234375
0.037353515625
0.00146484375
-0.0340576171875
0.0303955078125
-0.079864501953125
0.0318603515625
-0.051666259765625
0.0150146484375
-0.0142822265625
0.002197265625
-0.006591796875
-0.00146484375
-0.008056640625
0.0025634765625
-0.010986328125
0.0
-0.01318359375
-0.0029296875
-0.0076904296875
-0.000732421875
0.0047607421875
-0.0010986328125
0.012451171875
0.0010986328125
0.008056640625
0.005126953125
-0.0018310546875
-0.0032958984375
0.01611328125
-0.031494140625
-0.1256103515625
0.0150146484375
-0.134765625
0.02783203125
0.1182861328125
-0.0164794921875
0.1270751953125
-0.006591796875
0.0252685546875
-0.00732421875
0.0150146484375
-0.012451171875
0.026031494140625
-0.0157470703125
0.041778564453125
-0.015380859375
0.0263671875
-0.006591796875
-0.035888671875
0.01611328125
-0.077667236328125
0.0311279296875
-0.058990478515625
0.01904296875
-0.02197265625
0.0040283203125
-0.0047607421875
0.0003662109375
-0.0025634765625
0.0018310546875
-0.0047607421875
-0.00146484375
-0.0084228515625
-0.0047607421875
-0.0098876953125
0.0010986328125
-0.0032958984375
0.0029296875
-0.000732421875
0.000732421875
-0.003662109375
0.0003662109375
-0.0029296875
-0.0069580078125
0.0186767578125
-0.0399169921875
-0.11572265625
0.0076904296875
-0.1307373046875
0.0340576171875
0.110595703125
-0.008056640625
0.12451171875
-0.0032958984375
0.025634765625
-0.0069580078125
0.010986328125
-0.01171875
0.0245361328125
-0.016845703125
0.0457763671875
-0.018310546875
0.0252685546875
-0.0106201171875
-0.03662109375
0.0164794921875
-0.0816650390625
0.031494140625
-0.065185546875
0.0179443359375
-0.0263671875
0.00439453125
-0.0062255859375
-0.000732421875
-0.0032958984375
0.002197265625
-0.0062255859375
0.0003662109375
-0.0054931640625
-0.0040283203125
-0.0087890625
0.000732421875
-0.0047607421875
0.005859375
0.0032958984375
0.0018310546875
0.0018310546875
-0.0010986328125
-0.0018310546875
-0.002197265625
0.0084228515625
-0.018310546875
-0.106201171875
-0.0029296875
-0.136962890625
0.027099609375
0.0787353515625
0.0029296875
0.1376953125
-0.010986328125
0.046875
-0.00439453125
0.01611328125
-0.0098876953125
0.0260009765625
-0.015380859375
0.044677734375
-0.016845703125
0.0377197265625
-0.010986328125
-0.0157470703125
0.0069580078125
-0.0684814453125
0.0274658203125
-0.0626220703125
0.019775390625
-0.025634765625
0.0032958984375
-0.006591796875
0.0003662109375
-0.0010986328125
0.000732421875
-0.0025634765625
0.0018310546875
-0.0069580078125
-0.0032958984375
-0.0069580078125
-0.002197265625
-0.003662109375
0.0054931640625
-0.0003662109375
0.0040283203125
-0.0010986328125
0.00146484375
-0.0029296875
0.0
-0.0029296875
-0.0113525390625
-0.0655517578125
-0.0303955078125
-0.1190185546875
0.02490234375
0.0113525390625
0.02783203125
0.1285400390625
-0.019775390625
0.0743408203125
-0.005859375
0.019775390625
-0.009521484375
0.0234375
-0.0157470703125
0.041015625
-0.0194091796875
0.046875
-0.0172119140625
0.000732421875
0.00146484375
-0.065185546875
0.027099609375
-0.076904296875
0.0263671875
-0.041015625
0.009521484375
-0.01171875
0.0029296875
-0.0018310546875
0.0010986328125
0.0003662109375
0.0025634765625
-0.0018310546875
-0.002197265625
-0.00732421875
-0.003662109375
-0.0025634765625
0.0047607421875
0.003662109375
0.0025634765625
0.0029296875
-0.0010986328125
0.009521484375
0.0025634765625
0.006591796875
0.0040283203125
-0.04833984375
-0.041015625
-0.144683837890625
0.015380859375
-0.076568603515625
0.0443115234375
0.101470947265625
-0.0150146484375
0.099273681640625
-0.00439453125
0.025634765625
-0.0076904296875
0.0230712890625
-0.01318359375
0.0457763671875
-0.0146484375
0.0567626953125
-0.0146484375
0.021240234375
-0.005126953125
-0.046875
0.0208740234375
-0.078369140625
0.0263671875
-0.04541015625
0.01025390625
-0.0106201171875
0.002197265625
0.0032958984375
0.0010986328125
0.00439453125
0.0010986328125
-0.0018310546875
-0.0018310546875
-0.003662109375
-0.0029296875
-0.0003662109375
0.00439453125
0.002197265625
0.00439453125
-0.000732421875
0.0010986328125
-0.0018310546875
0.0010986328125
-0.0010986328125
0.00146484375
0.0120849609375
-0.041748046875
-0.111724853515625
0.008056640625
-0.098907470703125
0.03662109375
0.130035400390625
-0.0142822265625
0.127471923828125
-0.0025634765625
0.038818359375
-0.0076904296875
0.0322265625
-0.0128173828125
0.041748046875
-0.0146484375
0.0516357421875
-0.015380859375
0.032958984375
-0.008056640625
-0.0281982421875
0.0205078125
-0.0772705078125
0.032958984375
-0.0582275390625
0.0146484375
-0.0164794921875
0.0010986328125
0.0029296875
-0.0003662109375
0.006591796875
0.0003662109375
0.0029296875
-0.0003662109375
-0.0040283203125
-0.00439453125
-0.005126953125
0.0003662109375
0.0025634765625
0.0040283203125
0.01025390625
0.00146484375
0.005859375
0.0
0.0
-0.0040283203125
0.0223388671875
-0.0479736328125
-0.10693359375
0.00439453125
-0.1307373046875
0.0479736328125
0.099609375
-0.0003662109375
0.129638671875
-0.0025634765625
0.040283203125
-0.0062255859375
0.0234375
-0.008056640625
0.0318603515625
-0.015380859375
0.046875
-0.0201416015625
0.03515625
-0.015380859375
-0.0216064453125
0.0106201171875
-0.0765380859375
0.0311279296875
-0.0699462890625
0.02197265625
-0.02783203125
0.0047607421875
-0.0029296875
-0.003662109375
0.0040283203125
-0.0029296875
0.000732421875
-0.0018310546875
-0.005126953125
-0.0062255859375
-0.0098876953125
-0.000732421875
-0.0047607421875
0.006591796875
0.01025390625
0.0018310546875
0.0142822265625
0.0
0.010986328125
-0.0040283203125
0.0267333984375
0.01611328125
-0.149810791015625
0.0333251953125
-0.162261962890625
-0.01171875
0.146148681640625
-0.03515625
0.169586181640625
-0.015380859375
0.041015625
-0.005859375
0.01025390625
-0.012451171875
0.0238037109375
-0.0289306640625
0.0501708984375
-0.02783203125
0.0399169921875
-0.0025634765625
-0.0234375
0.02783203125
-0.0787353515625
0.037353515625
-0.064453125
0.0223388671875
-0.02490234375
0.008056640625
-0.0047607421875
0.003662109375
-0.0029296875
-0.000732421875
-0.002197265625
-0.0040283203125
-0.000732421875
-0.0087890625
-0.000732421875
-0.0047607421875
0.005859375
0.0032958984375
0.00439453125
0.0018310546875
-0.0047607421875
0.0018310546875
-0.0062255859375
-0.0018310546875
0.0164794921875
-0.0399169921875
-0.1190185546875
0.0032958984375
-0.1343994140625
0.0340576171875
0.111328125
-0.0025634765625
0.132568359375
-0.000732421875
0.0377197265625
-0.006591796875
0.0238037109375
-0.0106201171875
0.0347900390625
-0.01611328125
0.0494384765625
-0.0186767578125
0.03515625
-0.013916015625
-0.0201416015625
0.0087890625
-0.068115234375
0.0281982421875
-0.05859375
0.0205078125
-0.0208740234375
0.005859375
-0.0003662109375
0.0029296875
0.0032958984375
0.002197265625
0.00439453125
-0.002197265625
0.0018310546875
-0.0047607421875
0.0018310546875
0.0025634765625
0.0040283203125
0.0025634765625
0.005126953125
-0.0029296875
0.00732421875
0.0003662109375
0.005126953125
-0.0003662109375
0.01318359375
-0.057861328125
-0.101806640625
0.005126953125
-0.106201171875
0.053466796875
0.1080322265625
-0.002197265625
0.123046875
0.00146484375
0.0347900390625
-0.0076904296875
0.02490234375
-0.010986328125
0.03955078125
-0.016845703125
0.057861328125
-0.019775390625
0.0384521484375
-0.0135498046875
-0.0201416015625
0.0146484375
-0.0684814453125
0.0311279296875
-0.0538330078125
0.01611328125
-0.0106201171875
0.00439453125
0.005859375
0.00146484375
0.005859375
0.0010986328125
0.00146484375
-0.0010986328125
-0.00146484375
-0.00439453125
0.0010986328125
0.002197265625
0.0029296875
0.006591796875
0.0018310546875
0.00146484375
0.0010986328125
-0.00146484375
0.00146484375
-0.0018310546875
0.009521484375
-0.0670166015625
-0.1029052734375
0.0010986328125
-0.104736328125
0.0604248046875
0.1029052734375
-0.0032958984375
0.117919921875
-0.000732421875
0.029296875
-0.0087890625
0.0216064453125
-0.0128173828125
0.03515625
-0.018310546875
0.050933837890625
-0.0216064453125
0.030059814453125
-0.009521484375
-0.037750244140625
0.0205078125
-0.080963134765625
0.0318603515625
-0.0589599609375
0.0146484375
-0.01904296875
-0.0025634765625
-0.0029296875
-0.0076904296875
-0.0003662109375
-0.0047607421875
0.0029296875
-0.00732421875
0.0
-0.0047607421875
-0.0087890625
0.0076904296875
-0.0106201171875
0.0069580078125
-0.0076904296875
0.0
-0.0054931640625
0.0010986328125
-0.0047607421875
-0.0010986328125
0.0142822265625
0.00146484375
-0.15673828125
0.0252685546875
-0.1171875
-0.005859375
0.17138671875
-0.029296875
0.138427734375
-0.0029296875
0.029296875
-0.0076904296875
0.0216064453125
-0.016845703125
0.041748046875
-0.021240234375
0.054595947265625
-0.0179443359375
0.026397705078125
0.0018310546875
-0.044708251953125
0.0274658203125
-0.081695556640625
0.0340576171875
-0.0552978515625
0.0201416015625
-0.0216064453125
0.0029296875
-0.002197265625
-0.0029296875
0.0054931640625
-0.0003662109375
0.002197265625
-0.0010986328125
-0.0062255859375
0.0003662109375
-0.003662109375
0.005859375
0.0047607421875
0.0054931640625
0.0003662109375
0.0025634765625
-0.0029296875
0.000732421875
-0.0029296875
-0.00439453125
-0.0267333984375
-0.0531005859375
-0.1080322265625
0.01611328125
-0.05712890625
0.0509033203125
0.11279296875
-0.0135498046875
0.1029052734375
-0.003662109375
0.0208740234375
-0.0084228515625
0.017578125
-0.012451171875
0.0406494140625
-0.0179443359375
0.052001953125
-0.0172119140625
0.0164794921875
-0.0018310546875
-0.053466796875
0.0245361328125
-0.0838623046875
0.029296875
-0.052734375
0.01171875
-0.0172119140625
0.0
-0.0040283203125
-0.00146484375
-0.0003662109375
0.0018310546875
-0.002197265625
-0.00146484375
-0.01025390625
-0.0018310546875
-0.0054931640625
0.0040283203125
0.0047607421875
0.0040283203125
0.003662109375
0.0018310546875
-0.0003662109375
-0.0003662109375
-0.0025634765625
-0.008056640625
-0.05859375
-0.0347900390625
-0.1168212890625
0.0216064453125
-0.0084228515625
0.03369140625
0.125244140625
-0.0157470703125
0.0875244140625
-0.00439453125
0.0223388671875
-0.0084228515625
0.0223388671875
-0.0146484375
0.0391845703125
-0.018310546875
0.0439453125
-0.0146484375
0.002197265625
0.0010986328125
-0.0626220703125
0.0245361328125
-0.0787353515625
0.0252685546875
-0.0421142578125
0.0106201171875
-0.0106201171875
0.0025634765625
0.0003662109375
0.000732421875
0.0
0.00146484375
-0.00439453125
-0.0040283203125
-0.0062255859375
-0.0032958984375
-0.00146484375
0.0032958984375
0.0018310546875
0.003662109375
0.0
0.0029296875
-0.0025634765625
-0.0003662109375
0.0010986328125
-0.0146484375
-0.0618896484375
-0.0303955078125
-0.1204833984375
0.0263671875
0.003662109375
0.0274658203125
0.1322021484375
-0.016845703125
0.0853271484375
-0.0040283203125
0.0208740234375
-0.0069580078125
0.0238037109375
-0.0135498046875
0.0406494140625
-0.021240234375
0.0465087890625
-0.01611328125
0.0029296875
0.0032958984375
-0.0648193359375
0.02490234375
-0.0787353515625
0.02490234375
-0.041015625
0.0084228515625
-0.01025390625
0.0010986328125
-0.0010986328125
0.0025634765625
0.0
0.0018310546875
-0.005126953125
-0.0047607421875
-0.0069580078125
-0.00146484375
-0.000732421875
0.0047607421875
0.0054931640625
0.003662109375
0.005859375
0.00146484375
0.00146484375
-0.00146484375
0.0
-0.0157470703125
-0.0662841796875
-0.028564453125
-0.1201171875
0.0281982421875
0.0091552734375
0.027099609375
0.134033203125
-0.0164794921875
0.085693359375
-0.005126953125
0.0252685546875
-0.0098876953125
0.02783203125
-0.01611328125
0.047607421875
-0.0201416015625
0.0538330078125
-0.015380859375
0.0054931640625
0.0054931640625
-0.0604248046875
0.03076171875
-0.076171875
0.02783203125
-0.043212890625
0.00732421875
-0.01025390625
-0.00146484375
0.005126953125
-0.0003662109375
0.010986328125
0.00146484375
0.0040283203125
-0.0010986328125
-0.01171875
0.00439453125
-0.0157470703125
0.00732421875
-0.0047607421875
0.002197265625
0.0003662109375
0.0
-0.0003662109375
-0.000732421875
0.0010986328125
-0.01611328125
-0.0743408203125
-0.0230712890625
-0.12451171875
0.0296630859375
0.0245361328125
0.0216064453125
0.14794921875
-0.0179443359375
0.097412109375
-0.0069580078125
0.03369140625
-0.0087890625
0.0274658203125
-0.0135498046875
0.0457763671875
-0.0194091796875
0.050537109375
-0.01904296875
0.008056640625
0.0018310546875
-0.05859375
0.030029296875
-0.0787353515625
0.0281982421875
-0.0413818359375
0.0098876953125
-0.0098876953125
-0.00146484375
0.003662109375
-0.002197265625
0.0040283203125
0.0010986328125
-0.0029296875
-0.0040283203125
-0.01025390625
-0.0010986328125
-0.0087890625
0.006591796875
0.0010986328125
0.0032958984375
0.0047607421875
-0.0003662109375
0.0025634765625
-0.0025634765625
0.0062255859375
-0.0208740234375
-0.0933837890625
-0.0091552734375
-0.1505126953125
0.0303955078125
0.028564453125
0.0087890625
0.13623046875
-0.0186767578125
0.0728759765625
-0.0084228515625
0.0281982421875
-0.0098876953125
0.0318603515625
-0.0172119140625
0.0443115234375
-0.018310546875
0.03662109375
-0.01318359375
-0.0164794921875
0.009521484375
-0.076171875
0.03369140625
-0.084228515625
0.0234375
-0.0333251953125
0.003662109375
0.003662109375
0.0
0.000732421875
0.00146484375
-0.0062255859375
0.0040283203125
-0.009521484375
-0.003662109375
-0.0084228515625
-0.0032958984375
0.00146484375
0.0040283203125
0.0084228515625
0.0025634765625
0.0062255859375
-0.00146484375
0.0062255859375
-0.0029296875
0.01611328125
-0.0201416015625
-0.1021728515625
-0.002197265625
-0.138092041015625
0.0274658203125
0.08056640625
0.00146484375
0.156402587890625
-0.01318359375
0.0706787109375
-0.0106201171875
0.0325927734375
-0.0142822265625
0.0391845703125
-0.022705078125
0.0633544921875
-0.0289306640625
0.0626220703125
-0.01611328125
-0.0076904296875
0.013916015625
-0.0791015625
0.0362548828125
-0.0699462890625
0.022705078125
-0.0234375
0.0003662109375
-0.0025634765625
-0.0025634765625
-0.000732421875
-0.002197265625
0.00439453125
-0.005126953125
0.000732421875
-0.0040283203125
-0.006591796875
0.00732421875
-0.0025634765625
0.0084228515625
0.0032958984375
0.0010986328125
0.000732421875
0.0003662109375
-0.0018310546875
-0.01025390625
0.030029296875
0.0263671875
-0.16552734375
0.0531005859375
-0.1746826171875
-0.015380859375
0.145751953125
-0.0465087890625
0.15673828125
-0.022705078125
0.0465087890625
-0.0164794921875
0.0355224609375
-0.0230712890625
0.05126953125
-0.0303955078125
0.0626220703125
-0.02197265625
0.0303955078125
0.0098876953125
-0.049072265625
0.0399169921875
-0.09521484375
0.040283203125
-0.063720703125
0.0223388671875
-0.021240234375
0.0062255859375
-0.005859375
0.000732421875
0.000732421875
-0.0025634765625
0.0
-0.006591796875
-0.0087890625
-0.0025634765625
-0.0054931640625
0.003662109375
-0.0010986328125
0.0003662109375
-0.0029296875
-0.0029296875
-0.0018310546875
-0.0003662109375
-0.005126953125
0.0025634765625
-0.028564453125
-0.0384521484375
-0.128173828125
0.008056640625
-0.060791015625
0.0263671875
0.1322021484375
-0.02490234375
0.10546875
-0.0047607421875
0.0205078125
-0.008056640625
0.0208740234375
-0.0146484375
0.0421142578125
-0.0208740234375
0.0567626953125
-0.015380859375
0.0179443359375
0.0087890625
-0.0604248046875
0.0333251953125
-0.084228515625
0.0318603515625
-0.0501708984375
0.0135498046875
-0.0146484375
-0.000732421875
0.00146484375
-0.0003662109375
0.0018310546875
0.0029296875
-0.000732421875
-0.0032958984375
-0.0040283203125
0.00146484375
-0.0040283203125
0.0076904296875
-0.000732421875
0.00439453125
0.0025634765625
0.0010986328125
0.0018310546875
0.000732421875
0.00146484375
-0.0106201171875
-0.06884765625
-0.0194091796875
-0.128173828125
0.0267333984375
0.0216064453125
0.013916015625
0.1468505859375
-0.0234375
0.087890625
-0.008056640625
0.027099609375
-0.0128173828125
0.028564453125
-0.0194091796875
0.0498046875
-0.0245361328125
0.052001953125
-0.017578125
0.00146484375
0.00732421875
-0.0714111328125
0.0296630859375
-0.081298828125
0.024169921875
-0.04248046875
0.008056640625
-0.013916015625
-0.0025634765625
-0.0032958984375
-0.0040283203125
0.0025634765625
-0.0029296875
0.0003662109375
-0.008056640625
-0.0098876953125
-0.00146484375
-0.0054931640625
0.0040283203125
0.0054931640625
-0.00146484375
0.003662109375
-0.0054931640625
0.0062255859375
-0.01318359375
0.022705078125
0.0157470703125
-0.144317626953125
0.0322265625
-0.168121337890625
-0.019775390625
0.131500244140625
-0.0439453125
0.173980712890625
-0.019775390625
0.0465087890625
-0.005859375
0.0216064453125
-0.0146484375
0.0347900390625
-0.0263671875
0.0615234375
-0.019775390625
0.0465087890625
0.0098876953125
-0.0347900390625
0.041015625
-0.098876953125
0.046875
-0.078369140625
0.02490234375
-0.0311279296875
0.0062255859375
-0.008056640625
0.00146484375
0.0032958984375
0.0040283203125
0.003662109375
0.0029296875
-0.006591796875
0.000732421875
-0.00439453125
0.003662109375
0.00146484375
0.0040283203125
-0.000732421875
0.0054931640625
0.0
0.00439453125
-0.000732421875
0.0091552734375
-0.0252685546875
-0.0230712890625
-0.130401611328125
0.0157470703125
-0.0589599609375
0.0230712890625
0.135528564453125
-0.025634765625
0.1036376953125
-0.0029296875
0.0230712890625
-0.0054931640625
0.0208740234375
-0.015380859375
0.0391845703125
-0.0238037109375
0.0538330078125
-0.0146484375
0.013916015625
0.0098876953125
-0.063720703125
0.0333251953125
-0.08642578125
0.0318603515625
-0.0498046875
0.01171875
-0.0157470703125
-0.0018310546875
-0.000732421875
-0.0040283203125
0.0018310546875
-0.002197265625
-0.000732421875
-0.005126953125
-0.0069580078125
-0.0018310546875
-0.0047607421875
0.0032958984375
0.0010986328125
0.00146484375
-0.0018310546875
-0.0018310546875
0.000732421875
-0.0032958984375
0.00732421875
-0.006591796875
-0.0867919921875
-0.0010986328125
-0.140289306640625
0.0216064453125
0.0450439453125
-0.005859375
0.152374267578125
-0.0260009765625
0.0721435546875
-0.00732421875
0.02490234375
-0.0135498046875
0.03515625
-0.019775390625
0.0531005859375
-0.0216064453125
0.0472412109375
-0.01318359375
-0.0087890625
0.01318359375
-0.071044921875
0.0347900390625
-0.07177734375
0.027099609375
-0.03369140625
0.008056640625
-0.005859375
-0.0029296875
0.0032958984375
-0.0029296875
0.0029296875
-0.0025634765625
-0.0003662109375
-0.002197265625
-0.002197265625
0.0029296875
0.00146484375
0.0040283203125
0.003662109375
0.000732421875
0.002197265625
0.0018310546875
0.00146484375
-0.005126953125
0.0201416015625
-0.0216064453125
-0.126739501953125
0.0146484375
-0.145782470703125
0.02490234375
0.110260009765625
-0.010986328125
0.143585205078125
-0.0113525390625
0.0457763671875
-0.0091552734375
0.0245361328125
-0.0113525390625
0.0347900390625
-0.019775390625
0.052734375
-0.0223388671875
0.0421142578125
-0.0087890625
-0.0238037109375
0.0179443359375
-0.084228515625
0.03369140625
-0.0714111328125
0.01904296875
-0.0238037109375
0.003662109375
-0.0025634765625
-0.00146484375
0.0010986328125
-0.002197265625
0.0
-0.0029296875
-0.006591796875
-0.0025634765625
-0.000732421875
0.0047607421875
0.008056640625
0.00732421875
0.00146484375
0.0029296875
-0.0029296875
-0.0010986328125
-0.0029296875
-0.0062255859375
0.0208740234375
-0.031494140625
-0.119781494140625
0.0146484375
-0.136627197265625
0.032958984375
0.112823486328125
-0.013916015625
0.139923095703125
-0.009521484375
0.047607421875
-0.0069580078125
0.0238037109375
-0.0113525390625
0.034423828125
-0.0230712890625
0.05712890625
-0.0260009765625
0.0421142578125
-0.0062255859375
-0.0333251953125
0.0267333984375
-0.09375
0.038818359375
-0.069580078125
0.0223388671875
-0.0245361328125
0.0069580078125
-0.005859375
0.0029296875
0.0010986328125
0.00439453125
-0.0018310546875
0.0
-0.0087890625
-0.00146484375
-0.0032958984375
0.00146484375
0.0040283203125
-0.003662109375
0.00146484375
-0.005126953125
0.0010986328125
-0.0032958984375
0.0003662109375
0.0091552734375
-0.0172119140625
-0.003662109375
-0.155670166015625
0.013916015625
-0.073974609375
-0.00146484375
0.160064697265625
-0.0369873046875
0.119384765625
-0.0098876953125
0.034423828125
-0.0087890625
0.0245361328125
-0.0194091796875
0.046875
-0.0311279296875
0.063720703125
-0.021240234375
0.0208740234375
0.010986328125
-0.0618896484375
0.0406494140625
-0.0919189453125
0.038818359375
-0.0538330078125
0.0146484375
-0.0146484375
0.000732421875
0.0010986328125
0.0
0.0062255859375
0.0
0.005859375
-0.0018310546875
-0.0025634765625
0.0040283203125
-0.00439453125
0.005126953125
0.0025634765625
0.00146484375
0.0029296875
0.0029296875
-0.0018310546875
-0.0003662109375
-0.0003662109375
-0.0113525390625
-0.0794677734375
-0.005859375
-0.144683837890625
0.0296630859375
0.0208740234375
0.0047607421875
0.152008056640625
-0.02490234375
0.084228515625
-0.00732421875
0.0274658203125
-0.0106201171875
0.029296875
-0.018310546875
0.0509033203125
-0.027099609375
0.0582275390625
-0.016845703125
-0.0025634765625
0.0205078125
-0.085693359375
0.0406494140625
-0.0911865234375
0.0252685546875
-0.03955078125
0.00732421875
-0.00732421875
0.00146484375
-0.00146484375
-0.0003662109375
0.0025634765625
-0.0032958984375
-0.002197265625
-0.0025634765625
-0.0084228515625
0.003662109375
-0.000732421875
0.0047607421875
-0.000732421875
0.0010986328125
-0.005126953125
0.0003662109375
-0.005126953125
-0.009521484375
0.0216064453125
0.0025634765625
-0.147979736328125
0.0369873046875
-0.164459228515625
0.0018310546875
0.129302978515625
-0.0377197265625
0.150543212890625
-0.016845703125
0.0406494140625
-0.008056640625
0.0238037109375
-0.0172119140625
0.0399169921875
-0.0281982421875
0.0662841796875
-0.024169921875
0.049072265625
0.0025634765625
-0.032958984375
0.034423828125
-0.09228515625
0.0421142578125
-0.068115234375
0.024169921875
-0.021240234375
0.0069580078125
0.00146484375
-0.002197265625
0.0106201171875
-0.0032958984375
0.0062255859375
-0.0032958984375
-0.008056640625
0.0040283203125
-0.008056640625
0.0091552734375
-0.0025634765625
0.002197265625
-0.00146484375
0.002197265625
-0.000732421875
0.003662109375
0.0010986328125
-0.0047607421875
-0.0201416015625
-0.05712890625
-0.104034423828125
0.0157470703125
-0.05859375
0.050537109375
0.114288330078125
-0.0201416015625
0.1124267578125
-0.0069580078125
0.0303955078125
-0.00732421875
0.02197265625
-0.010986328125
0.038818359375
-0.0201416015625
0.053466796875
-0.0205078125
0.0216064453125
-0.0040283203125
-0.05419921875
0.0263671875
-0.093017578125
0.0340576171875
-0.060791015625
0.0146484375
-0.02197265625
-0.00146484375
-0.0029296875
-0.0029296875
0.0069580078125
0.00146484375
0.00439453125
-0.006591796875
-0.0029296875
0.0010986328125
-0.0025634765625
0.0084228515625
0.00146484375
0.000732421875
-0.00146484375
-0.0025634765625
-0.00439453125
-0.01171875
0.0040283203125
-0.017578125
-0.046875
-0.0289306640625
-0.123443603515625
0.01318359375
0.00732421875
0.0076904296875
0.162994384765625
-0.0318603515625
0.10986328125
-0.0084228515625
0.0391845703125
-0.0098876953125
0.0347900390625
-0.01904296875
0.0509033203125
-0.02783203125
0.0721435546875
-0.01171875
0.0362548828125
0.025634765625
-0.0615234375
0.046875
-0.0966796875
0.03369140625
-0.046142578125
0.017578125
0.009521484375
0.01171875
0.01904296875
0.002197265625
-0.0069580078125
0.01025390625
-0.0556640625
0.0413818359375
-0.0963134765625
0.087158203125
-0.091552734375
0.160064697265625
-0.061920166015625
0.187530517578125
-0.030792236328125
0.097412109375
-0.0205078125
0.210601806640625
-0.0216064453125
0.42156982421875
-0.1959228515625
0.224517822265625
-0.243927001953125
0.0
0.0179443359375
0.0
0.072906494140625
-0.073272705078125
0.019775390625
-1.0
0.05419921875
-1.0
0.09521484375
0.0
0.162994384765625
-0.0003662109375
0.186065673828125
0.0003662109375
0.101806640625
0.0
-0.0010986328125
-0.0003662109375
0.0098876953125
0.0
0.0791015625
0.0
0.0955810546875
0.0
0.0706787109375
0.0
0.06005859375
0.0
0.074005126953125
0.0003662109375
0.087554931640625
0.0003662109375
0.0780029296875
0.0
0.0604248046875
-0.0003662109375
0.0615234375
-0.0003662109375
0.0736083984375
0.0
0.10400390625
0.0
-0.053466796875
0.0
-0.0963134765625
0.0003662109375
0.134796142578125
0.0
0.150543212890625
-0.0003662109375
0.037353515625
0.0003662109375
0.0018310546875
0.0
0.012451171875
-0.0003662109375
0.0289306640625
0.0
0.01171875
0.0
-0.069580078125
0.0
-0.143585205078125
0.0003662109375
-0.124176025390625
0.0
-0.0692138671875
-0.0003662109375
-0.04541015625
0.0003662109375
-0.034423828125
0.0201416015625
-0.029296875
0.040313720703125
-0.0311279296875
0.050201416015625
-0.03515625
0.0703125
-0.0362548828125
0.1083984375
-0.0406494140625
0.1541748046875
-0.048736572265625
0.1314697265625
-0.049835205078125
0.052764892578125
-0.053466796875
-0.03955078125
-0.169921875
0.034423828125
-0.1336669921875
0.075836181640625
0.082763671875
0.003662109375
0.0948486328125
0.0281982421875
0.0267333984375
0.0303955078125
0.025634765625
0.0234375
0.053466796875
0.0150146484375
0.078369140625
0.017578125
0.054229736328125
0.0538330078125
-0.0245361328125
0.0963134765625
-0.068878173828125
0.10400390625
-0.0399169921875
0.0816650390625
-0.0032958984375
0.049835205078125
0.0106201171875
0.031158447265625
0.0142822265625
0.0263671875
0.0120849609375
0.015380859375
0.005126953125
0.016845703125
0.00439453125
0.0113525390625
0.009521484375
-0.00732421875
0.0146484375
-0.019775390625
0.015380859375
-0.029296875
0.016845703125
-0.030029296875
-0.049072265625
-0.026397705078125
-0.1494140625
0.013916015625
-0.002197265625
-0.0054931640625
0.167022705078125
-0.041046142578125
0.097808837890625
-0.012451171875
0.0186767578125
-0.0062255859375
0.0113525390625
-0.0098876953125
0.044677734375
-0.022705078125
0.0648193359375
-0.012451171875
0.005126953125
0.028564453125
-0.093017578125
0.058624267578125
-0.121612548828125
0.055328369140625
-0.094879150390625
0.0201416015625
-0.0673828125
-0.0047607421875
-0.0552978515625
-0.028961181640625
-0.0494384765625
-0.061187744140625
-0.049072265625
-0.0439453125
-0.04833984375
-0.0062255859375
-0.0267333984375
0.005859375
-0.0120849609375
0.0047607421875
-0.0084228515625
0.0029296875
-0.0040283203125
-0.00732421875
0.0223388671875
0.0
-0.150909423828125
0.048736572265625
-0.172149658203125
0.030029296875
0.109161376953125
-0.015045166015625
0.126007080078125
-0.0018310546875
0.018310546875
0.0091552734375
-0.0076904296875
0.005859375
-0.0032958984375
-0.0025634765625
0.0172119140625
-0.0054931640625
0.0128173828125
0.009552001953125
-0.040283203125
0.034820556640625
-0.072174072265625
0.041748046875
-0.038482666015625
0.0252685546875
-0.0010986328125
0.0018310546875
0.0142822265625
-0.006591796875
0.021240234375
-0.0025634765625
0.022735595703125
0.0
0.009185791015625
0.0032958984375
-0.0010986328125
0.01025390625
0.0040283203125
0.01025390625
0.0032958984375
0.0069580078125
0.000732421875
0.0084228515625
0.000732421875
0.0106201171875
-0.000732421875
-0.043212890625
-0.115020751953125
0.006591796875
-0.085723876953125
0.038818359375
0.134796142578125
-0.018310546875
0.131134033203125
-0.0062255859375
0.03662109375
-0.01171875
0.0260009765625
-0.0142822265625
0.041015625
-0.0164794921875
0.057861328125
-0.013916015625
0.030029296875
0.005859375
-0.046142578125
0.0369873046875
-0.0897216796875
0.0428466796875
-0.060791015625
0.0208740234375
-0.0208740234375
0.0054931640625
-0.005859375
0.0003662109375
0.0047607421875
-0.0010986328125
0.0113525390625
-0.005859375
0.009521484375
-0.0010986328125
0.0113525390625
0.0076904296875
0.0113525390625
0.0047607421875
0.0069580078125
0.008056640625
0.005859375
0.0091552734375
-0.00146484375
0.0120849609375
-0.0325927734375
-0.0098876953125
-0.141754150390625
0.0172119140625
-0.041412353515625
0.0087890625
0.159698486328125
-0.03076171875
0.101837158203125
-0.005126953125
0.016845703125
-0.005859375
0.0157470703125
-0.0150146484375
0.0406494140625
-0.022705078125
0.0596923828125
-0.0120849609375
0.0238037109375
0.0164794921875
-0.0545654296875
0.0406494140625
-0.0765380859375
0.03515625
-0.0380859375
0.0135498046875
-0.008056640625
0.0003662109375
0.00146484375
-0.0018310546875
0.003662109375
-0.00146484375
-0.0003662109375
-0.002197265625
-0.00146484375
0.0029296875
0.0054931640625
0.0047607421875
0.010986328125
0.00439453125
0.00439453125
0.006591796875
-0.002197265625
0.000732421875
0.0025634765625
-0.002197265625
-0.090850830078125
0.010986328125
-0.145782470703125
0.031494140625
0.049835205078125
-0.002197265625
0.152374267578125
-0.0263671875
0.065185546875
-0.00439453125
0.0234375
-0.008056640625
0.028564453125
-0.017578125
0.05126953125
-0.025634765625
0.0531005859375
-0.01318359375
-0.002197265625
0.0205078125
-0.07470703125
0.0377197265625
-0.0787353515625
0.0274658203125
-0.0340576171875
0.00732421875
-0.0062255859375
0.0003662109375
0.0029296875
0.0025634765625
0.0029296875
0.0003662109375
-0.0040283203125
-0.0029296875
-0.0054931640625
0.0025634765625
0.000732421875
0.005859375
0.00439453125
0.00439453125
0.0047607421875
0.0047607421875
0.0003662109375
-0.0084228515625
0.02197265625
-0.02783203125
-0.122344970703125
0.01171875
-0.141754150390625
0.017578125
0.114654541015625
-0.01904296875
0.133331298828125
-0.003662109375
0.027099609375
0.01611328125
0.0025634765625
0.01318359375
0.010986328125
-0.0018310546875
0.0340576171875
-0.0069580078125
0.0216064453125
0.0054931640625
-0.0450439453125
0.0369873046875
-0.099609375
0.056396484375
-0.076904296875
0.03662109375
-0.0230712890625
0.0076904296875
0.0047607421875
-0.00146484375
0.0128173828125
0.0
0.008056640625
-0.0054931640625
-0.000732421875
-0.0047607421875
0.002197265625
0.005126953125
0.006591796875
-0.0018310546875
0.0106201171875
-0.0098876953125
0.0087890625
-0.0084228515625
0.003662109375
-0.01318359375
0.030029296875
-0.0047607421875
-0.138824462890625
0.0274658203125
-0.135528564453125
-0.00146484375
0.143951416015625
-0.03515625
0.137725830078125
-0.0157470703125
0.037353515625
-0.0146484375
0.0263671875
-0.0223388671875
0.0443115234375
-0.02783203125
0.0648193359375
-0.0274658203125
0.037353515625
-0.0047607421875
-0.0369873046875
0.0245361328125
-0.0816650390625
0.0303955078125
-0.052001953125
0.0146484375
-0.016845703125
-0.0003662109375
-0.003662109375
-0.0025634765625
0.0003662109375
-0.002197265625
0.0
-0.0062255859375
-0.0040283203125
-0.0032958984375
-0.003662109375
0.003662109375
0.005859375
0.002197265625
0.002197265625
-0.0003662109375
0.00146484375
0.0003662109375
0.0032958984375
-0.0032958984375
0.0091552734375
-0.03076171875
-0.120147705078125
0.01611328125
-0.087921142578125
0.0201416015625
0.143585205078125
-0.028564453125
0.123443603515625
-0.0087890625
0.0325927734375
-0.010986328125
0.0322265625
-0.018310546875
0.049072265625
-0.0260009765625
0.059326171875
-0.022705078125
0.0252685546875
0.00146484375
-0.050537109375
0.0296630859375
-0.08056640625
0.035888671875
-0.046875
0.0186767578125
-0.0120849609375
0.0040283203125
0.0032958984375
0.0
0.0087890625
-0.002197265625
0.006591796875
-0.0054931640625
-0.002197265625
-0.000732421875
0.0010986328125
0.0069580078125
0.0054931640625
0.0032958984375
0.0040283203125
0.0003662109375
0.003662109375
-0.0003662109375
0.0032958984375
-0.0018310546875
-0.0567626953125
-0.01611328125
-0.133331298828125
0.0238037109375
-0.0062255859375
0.0142822265625
0.143585205078125
-0.0311279296875
0.094482421875
-0.0091552734375
0.0234375
-0.008056640625
0.0238037109375
-0.01904296875
0.0439453125
-0.030029296875
0.050537109375
-0.0172119140625
0.0010986328125
0.012451171875
-0.078369140625
0.037353515625
-0.091552734375
0.032958984375
-0.0501708984375
0.0120849609375
-0.0146484375
0.0018310546875
-0.003662109375
-0.002197265625
-0.008056640625
-0.005126953125
-0.0113525390625
-0.005126953125
-0.0106201171875
0.0040283203125
-0.00732421875
0.0054931640625
-0.005126953125
0.00146484375
-0.008056640625
-0.0003662109375
-0.01171875
-0.008056640625
0.0069580078125
0.0179443359375
-0.144317626953125
0.037353515625
-0.165191650390625
-0.0040283203125
0.119415283203125
-0.0399169921875
0.164459228515625
-0.0263671875
0.052734375
-0.008056640625
0.0234375
-0.0157470703125
0.0340576171875
-0.0289306640625
0.0633544921875
-0.0274658203125
0.0472412109375
-0.0003662109375
-0.0274658203125
0.0303955078125
-0.0831298828125
0.040283203125
-0.0640869140625
0.0245361328125
-0.0186767578125
0.0054931640625
0.003662109375
-0.002197265625
0.0076904296875
-0.0025634765625
0.005859375
-0.003662109375
-0.0032958984375
-0.0018310546875
0.0003662109375
0.0069580078125
0.00732421875
0.005126953125
0.0054931640625
0.0010986328125
0.0029296875
0.0003662109375
0.0
0.0062255859375
-0.006591796875
-0.0194091796875
-0.128936767578125
0.0150146484375
-0.0765380859375
0.0164794921875
0.140655517578125
-0.031494140625
0.1131591796875
-0.008056640625
0.0263671875
-0.0084228515625
0.025634765625
-0.0164794921875
0.04541015625
-0.024169921875
0.0596923828125
-0.01904296875
0.0252685546875
0.0054931640625
-0.0531005859375
0.030029296875
-0.0831298828125
0.0318603515625
-0.044677734375
0.013916015625
-0.009521484375
0.0032958984375
0.0040283203125
0.00146484375
0.00732421875
0.0010986328125
0.003662109375
-0.0010986328125
-0.0047607421875
0.0018310546875
-0.0003662109375
0.0069580078125
0.0054931640625
0.002197265625
0.0010986328125
0.0
-0.005126953125
0.00146484375
-0.0084228515625
-0.00146484375
-0.07763671875
-0.013916015625
-0.122711181640625
0.0234375
0.0303955078125
0.01025390625
0.143585205078125
-0.029296875
0.081298828125
-0.009521484375
0.0263671875
-0.01025390625
0.0289306640625
-0.01611328125
0.0552978515625
-0.0179443359375
0.064453125
-0.0120849609375
0.013916015625
0.0062255859375
-0.0596923828125
0.0267333984375
-0.073974609375
0.0234375
-0.03369140625
0.009521484375
-0.00146484375
0.0029296875
0.0076904296875
0.0018310546875
0.0113525390625
-0.0029296875
0.009521484375
-0.0069580078125
-0.0040283203125
0.0010986328125
-0.01025390625
0.0076904296875
-0.012451171875
0.005126953125
-0.027099609375
0.0025634765625
-0.0311279296875
-0.0025634765625
-0.009521484375
-0.015380859375
-0.10107421875
0.0054931640625
-0.138092041015625
0.0281982421875
0.06591796875
-0.0091552734375
0.148345947265625
-0.028564453125
0.059326171875
-0.01171875
0.012451171875
-0.01025390625
0.0179443359375
-0.022705078125
0.0439453125
-0.0260009765625
0.0289306640625
-0.000732421875
-0.0531005859375
0.0406494140625
-0.13037109375
0.0574951171875
-0.1025390625
0.0413818359375
-0.047637939453125
0.02783203125
-0.036651611328125
0.054931640625
-0.0362548828125
0.094512939453125
-0.0560302734375
0.074005126953125
-0.05712890625
0.0260009765625
-0.0164794921875
0.005126953125
0.015380859375
0.046875
0.0230712890625
0.277984619140625
0.03515625
0.311309814453125
0.05419921875
0.0322265625
0.064483642578125
-0.147979736328125
-0.1072998046875
-0.164093017578125
-0.089019775390625
-0.1864013671875
0.157867431640625
-0.195587158203125
0.132598876953125
-0.129669189453125
0.03662109375
-0.107666015625
0.0238037109375
-0.0999755859375
0.0340576171875
-0.08935546875
0.0380859375
-0.037353515625
-0.010986328125
0.0252685546875
-0.0992431640625
0.046142578125
-0.125274658203125
0.02197265625
-0.079132080078125
-0.0029296875
-0.0443115234375
-0.0047607421875
-0.0457763671875
-0.002197265625
-0.0443115234375
0.069580078125
-0.021240234375
0.0933837890625
-0.012451171875
-0.013916015625
0.00146484375
-0.0765380859375
0.0179443359375
-0.0728759765625
0.0281982421875
-0.0556640625
0.0472412109375
-0.0216064453125
0.049072265625
0.035888671875
-0.030029296875
0.093017578125
-0.09375
0.1446533203125
0.0494384765625
0.087890625
0.165557861328125
-0.0018310546875
0.097808837890625
0.0098876953125
0.03369140625
0.022735595703125
0.027099609375
-0.018310546875
0.0498046875
-0.062286376953125
0.0604248046875
-0.0457763671875
0.018310546875
-0.029296875
-0.0556640625
-0.0450439453125
-0.0743408203125
-0.05712890625
-0.0311279296875
-0.0355224609375
-0.00732421875
-0.0146484375
-0.0091552734375
-0.017578125
-0.0128173828125
-0.028564453125
-0.0142822265625
-0.0216064453125
-0.0120849609375
0.003662109375
-0.0047607421875
0.0029296875
-0.0018310546875
-0.01318359375
-0.0040283203125
-0.0076904296875
-0.005859375
0.0179443359375
0.01318359375
0.05859375
-0.114288330078125
0.07177734375
-0.147613525390625
0.0369873046875
0.101470947265625
-0.0223388671875
0.150909423828125
-0.038818359375
0.0439453125
-0.0311279296875
0.0263671875
-0.0362548828125
0.049072265625
-0.022705078125
0.0794677734375
-0.0010986328125
0.0703125
0.008056640625
0.0047607421875
-0.00146484375
-0.056396484375
-0.0018310546875
-0.050537109375
0.0113525390625
-0.01318359375
0.01171875
0.0054931640625
-0.005859375
0.010986328125
-0.0194091796875
0.0076904296875
-0.0186767578125
-0.0062255859375
-0.0091552734375
-0.008056640625
0.0018310546875
0.0010986328125
0.00439453125
-0.002197265625
0.0018310546875
-0.005859375
0.000732421875
-0.003662109375
-0.005859375
0.0205078125
-0.0380859375
-0.112823486328125
0.0146484375
-0.126007080078125
0.0439453125
0.116119384765625
-0.0054931640625
0.127471923828125
-0.0018310546875
0.031494140625
0.0
0.0234375
-0.005859375
0.0369873046875
-0.01171875
0.0516357421875
-0.013916015625
0.0347900390625
-0.0076904296875
-0.0263671875
0.0208740234375
-0.07763671875
0.03662109375
-0.0596923828125
0.022705078125
-0.0157470703125
0.01171875
0.0029296875
0.0087890625
0.00439453125
0.013916015625
0.0029296875
0.0267333984375
0.00146484375
0.0289306640625
0.00146484375
0.0172119140625
0.00439453125
0.005126953125
0.005126953125
0.0062255859375
0.0032958984375
0.012451171875
0.002197265625
-0.0025634765625
0.02490234375
-0.0311279296875
-0.1190185546875
0.0164794921875
-0.1431884765625
0.03369140625
0.1109619140625
-0.0238037109375
0.144287109375
-0.0413818359375
0.046875
-0.03955078125
0.02490234375
-0.0263671875
0.035888671875
-0.0234375
0.05126953125
-0.0303955078125
0.0435791015625
-0.017578125
-0.025634765625
0.0106201171875
-0.09228515625
0.0238037109375
-0.07177734375
0.0135498046875
-0.0252685546875
0.0
-0.0091552734375
-0.0040283203125
-0.005859375
-0.0076904296875
-0.0047607421875
-0.01025390625
-0.0142822265625
-0.0069580078125
-0.01318359375
0.0018310546875
-0.00439453125
0.0018310546875
-0.002197265625
-0.000732421875
-0.00146484375
0.002197265625
-0.002197265625
-0.0069580078125
0.021240234375
-0.0025634765625
-0.149444580078125
0.0281982421875
-0.146881103515625
0.005859375
0.141387939453125
-0.0263671875
0.142852783203125
-0.01611328125
0.0399169921875
-0.01171875
0.0234375
-0.01171875
0.0377197265625
-0.019775390625
0.0615234375
-0.0223388671875
0.0450439453125
0.000732421875
-0.031494140625
0.0318603515625
-0.0867919921875
0.0413818359375
-0.062255859375
0.0267333984375
-0.0186767578125
0.0098876953125
0.0018310546875
0.00146484375
0.009521484375
0.000732421875
0.01025390625
0.000732421875
-0.000732421875
0.005126953125
-0.0018310546875
0.0142822265625
0.0054931640625
0.0098876953125
0.003662109375
0.00146484375
0.0032958984375
0.0
0.0025634765625
0.0069580078125
0.00146484375
-0.031494140625
-0.126007080078125
0.0146484375
-0.0941162109375
0.0322265625
0.134429931640625
-0.0234375
0.123046875
-0.005126953125
0.0311279296875
-0.0091552734375
0.0234375
-0.0142822265625
0.03955078125
-0.017578125
0.054931640625
-0.0201416015625
0.029296875
-0.002197265625
-0.049072265625
0.0267333984375
-0.0955810546875
0.0333251953125
-0.0626220703125
0.016845703125
-0.0216064453125
0.0018310546875
-0.0040283203125
-0.002197265625
0.0040283203125
-0.002197265625
-0.0029296875
-0.005859375
-0.010986328125
-0.0025634765625
-0.0087890625
0.002197265625
-0.0084228515625
-0.0029296875
-0.00732421875
-0.0054931640625
-0.006591796875
-0.0040283203125
-0.0106201171875
0.0054931640625
-0.017578125
-0.0223388671875
-0.149810791015625
0.01611328125
-0.094512939453125
0.02197265625
0.142120361328125
-0.0267333984375
0.114654541015625
-0.0054931640625
0.0172119140625
-0.0084228515625
0.0106201171875
-0.015380859375
0.0340576171875
-0.02197265625
0.0494384765625
-0.0164794921875
0.0142822265625
0.009521484375
-0.064453125
0.034423828125
-0.0919189453125
0.03515625
-0.0498046875
0.0194091796875
-0.012451171875
0.005859375
0.0025634765625
-0.0003662109375
0.0098876953125
-0.00439453125
0.0128173828125
-0.012451171875
0.0047607421875
-0.0084228515625
0.0054931640625
0.002197265625
0.0135498046875
0.0003662109375
0.0120849609375
0.0
0.009521484375
0.0018310546875
0.0098876953125
0.005126953125
-0.0479736328125
-0.0062255859375
-0.137725830078125
0.0201416015625
0.0010986328125
0.009521484375
0.164825439453125
-0.0260009765625
0.1021728515625
-0.0047607421875
0.0340576171875
-0.0054931640625
0.032958984375
-0.0135498046875
0.053466796875
-0.0201416015625
0.064453125
-0.0157470703125
0.0201416015625
0.010986328125
-0.0640869140625
0.038818359375
-0.0823974609375
0.0391845703125
-0.0391845703125
0.0172119140625
-0.0087890625
0.0
0.0029296875
-0.003662109375
0.00439453125
-0.0025634765625
0.003662109375
-0.00439453125
-0.00439453125
-0.000732421875
-0.00146484375
0.0062255859375
0.005859375
0.0135498046875
0.0025634765625
0.0201416015625
-0.0003662109375
0.0106201171875
-0.0029296875
-0.0146484375
-0.0582275390625
-0.0369873046875
-0.1259765625
0.0274658203125
-0.0146484375
0.0245361328125
0.1300048828125
-0.03369140625
0.0955810546875
-0.0150146484375
0.025634765625
-0.0135498046875
0.0234375
-0.0146484375
0.046142578125
-0.019775390625
0.054931640625
-0.0245361328125
0.0128173828125
-0.0054931640625
-0.068115234375
0.02197265625
-0.0948486328125
0.0194091796875
-0.0501708984375
0.0
-0.012451171875
-0.008056640625
-0.0047607421875
-0.0076904296875
0.0
-0.00439453125
0.0018310546875
-0.002197265625
-0.006591796875
0.008056640625
-0.009521484375
0.0091552734375
-0.0010986328125
-0.002197265625
0.005126953125
-0.0018310546875
-0.00146484375
0.000732421875
-0.0025634765625
-0.0369873046875
-0.0098876953125
-0.00439453125
-0.03662109375
0.035888671875
0.012451171875
0.000732421875
0.041015625
-0.003662109375
0.0062255859375
-0.0029296875
0.0098876953125
-0.0069580078125
0.0179443359375
-0.0146484375
0.025634765625
-0.0194091796875
0.0194091796875
0.0087890625
-0.0146484375
0.035888671875
-0.0289306640625
0.019775390625
-0.0098876953125
0.003662109375
0.0003662109375
0.002197265625
0.0018310546875
0.000732421875
0.0032958984375
0.0003662109375
0.003662109375
0.0018310546875
0.003662109375
0.0
-0.0010986328125
0.0047607421875
-0.00146484375
0.0087890625
0.0040283203125
0.0040283203125
0.0047607421875
0.0025634765625
0.0029296875
0.00439453125
0.005126953125
-0.078369140625
0.0
-0.00732421875
-0.0245361328125
0.0809326171875
0.00439453125
0.006591796875
0.0263671875
-0.0018310546875
0.0040283203125
-0.00439453125
0.006591796875
-0.0084228515625
0.0142822265625
-0.0172119140625
0.0245361328125
-0.0216064453125
0.0172119140625
0.009521484375
-0.0234375
0.0322265625
-0.0362548828125
0.01611328125
-0.012451171875
0.003662109375
-0.002197265625
-0.00146484375
-0.0003662109375
-0.003662109375
0.002197265625
-0.00146484375
0.0010986328125
0.000732421875
-0.00146484375
-0.0029296875
-0.0047607421875
0.0010986328125
-0.0029296875
0.0069580078125
0.002197265625
0.0029296875
0.0018310546875
0.000732421875
-0.0003662109375
0.00146484375
-0.0032958984375
-0.0618896484375
-0.00146484375
-0.0091552734375
-0.03076171875
0.060791015625
-0.0018310546875
0.003662109375
0.03076171875
-0.0076904296875
0.0032958984375
-0.009521484375
0.0032958984375
-0.0128173828125
0.01171875
-0.022705078125
0.0230712890625
-0.025634765625
0.012451171875
0.005859375
-0.024169921875
0.03076171875
-0.0391845703125
0.01318359375
-0.018310546875
-0.000732421875
-0.00439453125
-0.0032958984375
-0.000732421875
-0.0040283203125
0.0
-0.006591796875
-0.0018310546875
-0.008056640625
-0.005126953125
-0.005859375
-0.008056640625
0.0003662109375
-0.000732421875
0.003662109375
0.005126953125
0.0003662109375
0.0029296875
0.0018310546875
0.0010986328125
0.0047607421875
0.0106201171875
-0.059326171875
-0.0091552734375
0.0040283203125
-0.024169921875
0.0736083984375
0.0216064453125
0.006591796875
0.0267333984375
-0.0032958984375
0.005126953125
-0.0054931640625
0.008056640625
-0.0087890625
0.0146484375
-0.018310546875
0.025634765625
-0.017578125
0.0146484375
0.01611328125
-0.0245361328125
0.035888671875
-0.032958984375
0.0238037109375
-0.0087890625
0.0135498046875
0.0
0.0047607421875
-0.000732421875
0.002197265625
-0.0010986328125
-0.0010986328125
0.0025634765625
-0.0047607421875
0.0029296875
-0.0076904296875
-0.0032958984375
-0.002197265625
0.002197265625
0.005859375
0.0084228515625
0.0018310546875
0.0040283203125
-0.000732421875
-0.002197265625
0.0003662109375
0.0
-0.060791015625
0.003662109375
-0.005859375
-0.0289306640625
0.0633544921875
0.0010986328125
0.0062255859375
0.0325927734375
-0.000732421875
0.000732421875
-0.0029296875
0.0010986328125
-0.0076904296875
0.0106201171875
-0.0179443359375
0.0172119140625
-0.0263671875
0.01171875
0.0062255859375
-0.0234375
0.0281982421875
-0.0369873046875
0.0150146484375
-0.0172119140625
0.0062255859375
-0.0087890625
-0.000732421875
-0.0018310546875
-0.0032958984375
0.0
-0.0010986328125
-0.000732421875
0.0018310546875
-0.002197265625
-0.000732421875
-0.0091552734375
0.0
-0.0010986328125
0.0047607421875
0.0076904296875
0.0018310546875
0.0025634765625
-0.00146484375
0.0003662109375
0.000732421875
0.0003662109375
-0.03955078125
0.0010986328125
-0.0069580078125
-0.0369873046875
0.0380859375
0.0029296875
0.002197265625
0.0421142578125
-0.0029296875
0.00146484375
-0.005859375
0.00439453125
-0.0098876953125
0.015380859375
-0.018310546875
0.024169921875
-0.0223388671875
0.0157470703125
0.0032958984375
-0.01904296875
0.0281982421875
-0.03515625
0.018310546875
-0.0142822265625
0.0018310546875
-0.000732421875
-0.0025634765625
-0.0010986328125
-0.0025634765625
0.0018310546875
-0.002197265625
0.0025634765625
0.0
-0.002197265625
-0.0040283203125
-0.00439453125
-0.0018310546875
0.00146484375
0.005126953125
0.00439453125
0.000732421875
0.00146484375
-0.0018310546875
0.000732421875
-0.0010986328125
-0.000732421875
-0.02783203125
0.0062255859375
-0.0047607421875
-0.0435791015625
0.029296875
-0.005126953125
0.005859375
0.046142578125
-0.0010986328125
0.0040283203125
-0.0029296875
0.0029296875
-0.0084228515625
0.010986328125
-0.0150146484375
0.0245361328125
-0.0208740234375
0.0172119140625
0.000732421875
-0.016845703125
0.030029296875
-0.0340576171875
0.018310546875
-0.015380859375
0.0025634765625
-0.002197265625
0.0010986328125
-0.00146484375
-0.0010986328125
0.0032958984375
-0.002197265625
0.00439453125
-0.00146484375
-0.00146484375
-0.0029296875
-0.00439453125
-0.0032958984375
-0.002197265625
0.0047607421875
0.0040283203125
0.005859375
0.003662109375
-0.000732421875
0.000732421875
-0.00146484375
0.003662109375
-0.0098876953125
0.0230712890625
-0.0333251953125
-0.0380859375
0.0076904296875
-0.0205078125
0.0311279296875
0.040283203125
-0.0018310546875
0.0029296875
-0.005859375
0.0032958984375
-0.008056640625
0.0106201171875
-0.016845703125
0.0216064453125
-0.0223388671875
0.0205078125
-0.0025634765625
-0.01025390625
0.025634765625
-0.0325927734375
0.0216064453125
-0.0201416015625
0.000732421875
-0.0040283203125
-0.0029296875
0.0018310546875
-0.0040283203125
0.0029296875
-0.0069580078125
0.003662109375
-0.0003662109375
-0.0003662109375
0.0003662109375
-0.0054931640625
-0.0025634765625
-0.0029296875
0.005126953125
0.000732421875
0.0069580078125
0.003662109375
0.0029296875
0.002197265625
0.0025634765625
0.0
0.0040283203125
0.0223388671875
-0.0977783203125
-0.0113525390625
-0.00439453125
-0.0281982421875
0.099609375
0.0157470703125
0.0032958984375
0.0120849609375
-0.0032958984375
0.0025634765625
-0.0047607421875
0.006591796875
-0.0087890625
0.016845703125
-0.0201416015625
0.02197265625
-0.0172119140625
0.003662109375
0.017578125
-0.0289306640625
0.03076171875
-0.0267333984375
0.01171875
-0.0062255859375
0.0018310546875
0.0
-0.0018310546875
0.003662109375
0.0003662109375
0.0032958984375
0.00146484375
0.000732421875
-0.000732421875
-0.00146484375
-0.0029296875
-0.00439453125
0.000732421875
0.0003662109375
0.0069580078125
0.0047607421875
0.0040283203125
0.0025634765625
0.0010986328125
0.00146484375
0.0010986328125
0.0003662109375
-0.0556640625
-0.0003662109375
-0.005126953125
-0.030029296875
0.0589599609375
0.00439453125
0.0106201171875
0.03076171875
0.0
0.0003662109375
-0.0040283203125
0.0062255859375
-0.005126953125
0.0087890625
-0.01318359375
0.016845703125
-0.0230712890625
0.0113525390625
0.00146484375
-0.022705078125
0.0274658203125
-0.0355224609375
0.0120849609375
-0.0179443359375
-0.002197265625
-0.0032958984375
-0.0018310546875
-0.000732421875
-0.0018310546875
-0.0003662109375
0.0018310546875
0.000732421875
0.0018310546875
-0.00439453125
-0.005126953125
-0.01025390625
-0.005126953125
-0.0062255859375
0.0003662109375
0.0010986328125
-0.00146484375
-0.00146484375
-0.0032958984375
-0.000732421875
-0.0018310546875
0.0
-0.0150146484375
0.0377197265625
-0.0362548828125
-0.05126953125
0.0098876953125
-0.03076171875
0.0340576171875
0.0648193359375
-0.000732421875
0.01025390625
-0.0040283203125
0.00732421875
-0.00732421875
0.01171875
-0.013916015625
0.0238037109375
-0.0216064453125
0.024169921875
-0.006591796875
-0.00146484375
0.027099609375
-0.029296875
0.02490234375
-0.0208740234375
0.005126953125
0.0
0.0
0.002197265625
0.0010986328125
0.0029296875
0.0010986328125
0.003662109375
0.00146484375
0.0010986328125
-0.00146484375
-0.0025634765625
-0.0054931640625
-0.0032958984375
0.0029296875
0.002197265625
0.0062255859375
0.005126953125
0.0025634765625
0.000732421875
0.000732421875
-0.0003662109375
0.0032958984375
0.01611328125
-0.099609375
-0.0150146484375
-0.0106201171875
-0.0234375
0.0955810546875
0.0186767578125
0.0047607421875
0.013916015625
0.0010986328125
0.0032958984375
-0.0054931640625
0.0076904296875
-0.009521484375
0.0150146484375
-0.018310546875
0.0216064453125
-0.0194091796875
0.0091552734375
0.013916015625
-0.0274658203125
0.0296630859375
-0.03076171875
0.0113525390625
-0.0091552734375
0.0010986328125
-0.0032958984375
-0.0003662109375
0.0025634765625
-0.0010986328125
0.002197265625
0.0018310546875
-0.0010986328125
0.003662109375
-0.0032958984375
-0.0032958984375
-0.009521484375
-0.00146484375
-0.002197265625
0.0084228515625
0.0003662109375
0.0054931640625
-0.0047607421875
-0.0003662109375
-0.0010986328125
-0.0003662109375
0.0003662109375
-0.0384521484375
-0.00146484375
0.0003662109375
-0.04248046875
0.0362548828125
0.0
-0.003662109375
0.0380859375
-0.000732421875
-0.0029296875
-0.0032958984375
0.002197265625
-0.008056640625
0.00732421875
-0.0146484375
0.0157470703125
-0.018310546875
0.01171875
0.0135498046875
-0.02197265625
0.0362548828125
-0.035888671875
0.0157470703125
-0.012451171875
-0.0003662109375
-0.0003662109375
0.000732421875
0.0003662109375
0.00146484375
0.0003662109375
0.00146484375
0.0025634765625
0.0010986328125
0.003662109375
-0.0062255859375
-0.0029296875
-0.000732421875
-0.00146484375
0.0069580078125
0.0040283203125
0.0003662109375
0.0032958984375
-0.0029296875
0.00146484375
-0.002197265625
-0.0003662109375
-0.03515625
0.003662109375
-0.0069580078125
-0.0406494140625
0.029296875
0.0010986328125
-0.000732421875
0.0501708984375
-0.0029296875
0.003662109375
-0.0040283203125
0.00439453125
-0.0113525390625
0.0142822265625
-0.018310546875
0.02197265625
-0.022705078125
0.017578125
0.0029296875
-0.0146484375
0.0311279296875
-0.0333251953125
0.01904296875
-0.015380859375
0.002197265625
-0.0010986328125
-0.002197265625
0.0029296875
-0.0040283203125
0.0040283203125
0.0
0.0025634765625
0.0018310546875
0.0
-0.006591796875
-0.0025634765625
-0.0040283203125
-0.0018310546875
0.0054931640625
0.0025634765625
0.0040283203125
0.0032958984375
-0.000732421875
0.0032958984375
0.000732421875
-0.0003662109375
-0.0234375
0.003662109375
-0.008056640625
-0.043212890625
0.025634765625
-0.0025634765625
0.00732421875
0.0501708984375
-0.002197265625
0.0025634765625
-0.005859375
0.0029296875
-0.008056640625
0.0106201171875
-0.017578125
0.019775390625
-0.0234375
0.017578125
0.002197265625
-0.0128173828125
0.0281982421875
-0.0318603515625
0.0172119140625
-0.017578125
0.003662109375
-0.0040283203125
0.0010986328125
0.0010986328125
-0.0029296875
0.0025634765625
-0.00146484375
0.0
-0.00146484375
0.000732421875
-0.0029296875
-0.0032958984375
-0.0025634765625
-0.002197265625
0.0047607421875
0.005859375
0.005859375
0.003662109375
0.0003662109375
0.0
0.0
-0.000732421875
-0.009521484375
0.0245361328125
-0.0443115234375
-0.029296875
0.009521484375
-0.022705078125
0.0450439453125
0.0340576171875
0.002197265625
0.0040283203125
-0.003662109375
0.00439453125
-0.0087890625
0.0084228515625
-0.013916015625
0.0164794921875
-0.0205078125
0.016845703125
-0.0029296875
-0.0091552734375
0.0263671875
-0.032958984375
0.0267333984375
-0.0238037109375
0.0087890625
-0.0054931640625
-0.00146484375
0.00146484375
-0.00439453125
0.005126953125
0.000732421875
0.005859375
0.00146484375
0.002197265625
-0.0054931640625
-0.002197265625
-0.00439453125
-0.000732421875
0.003662109375
0.0054931640625
0.00439453125
0.0040283203125
0.0
0.0029296875
0.0
0.0029296875
-0.0087890625
0.0318603515625
-0.04248046875
-0.031494140625
0.0084228515625
-0.0263671875
0.04248046875
0.043212890625
0.000732421875
0.0062255859375
-0.0040283203125
0.0025634765625
-0.008056640625
0.0098876953125
-0.0164794921875
0.0208740234375
-0.0245361328125
0.0223388671875
-0.005859375
-0.0047607421875
0.0281982421875
-0.031494140625
0.0245361328125
-0.0234375
0.0047607421875
-0.0040283203125
0.0010986328125
0.0010986328125
-0.003662109375
0.0029296875
-0.002197265625
0.00439453125
0.00146484375
0.0018310546875
-0.00146484375
-0.0047607421875
-0.0018310546875
-0.00439453125
0.00439453125
0.0025634765625
0.00439453125
0.0025634765625
0.000732421875
-0.000732421875
0.0
-0.00146484375
-0.0047607421875
0.031494140625
-0.0838623046875
-0.008056640625
0.0040283203125
-0.03076171875
0.0867919921875
0.01025390625
0.0029296875
0.002197265625
-0.0025634765625
0.0025634765625
-0.00732421875
0.0069580078125
-0.0164794921875
0.0172119140625
-0.021240234375
0.0186767578125
-0.009521484375
-0.005859375
0.022705078125
-0.0325927734375
0.028564453125
-0.0263671875
0.008056640625
-0.008056640625
-0.0003662109375
0.0
-0.0047607421875
-0.0010986328125
-0.002197265625
-0.003662109375
-0.00146484375
-0.0025634765625
-0.0062255859375
-0.010986328125
-0.005859375
-0.005859375
0.0029296875
0.00439453125
0.0047607421875
0.0010986328125
0.0
0.00146484375
-0.0025634765625
0.0032958984375
-0.0106201171875
0.038818359375
-0.0703125
-0.030029296875
0.0069580078125
-0.037353515625
0.0677490234375
0.037353515625
0.0010986328125
0.00732421875
-0.0025634765625
0.00146484375
-0.0091552734375
0.0084228515625
-0.0128173828125
0.0194091796875
-0.02197265625
0.019775390625
-0.012451171875
-0.002197265625
0.0230712890625
-0.0318603515625
0.028564453125
-0.0267333984375
0.0076904296875
-0.0054931640625
-0.000732421875
0.000732421875
-0.0025634765625
0.0062255859375
-0.00146484375
0.00732421875
0.0003662109375
0.0029296875
-0.003662109375
-0.00439453125
-0.0032958984375
-0.0029296875
0.00439453125
0.006591796875
0.0054931640625
0.0047607421875
0.0032958984375
-0.002197265625
0.0003662109375
0.0010986328125
-0.0047607421875
0.0325927734375
-0.0831298828125
-0.024169921875
0.0032958984375
-0.0369873046875
0.0875244140625
0.0201416015625
0.00146484375
0.0
-0.00439453125
0.0
-0.0069580078125
0.00732421875
-0.0157470703125
0.017578125
-0.0234375
0.01611328125
-0.0135498046875
-0.0047607421875
0.024169921875
-0.03076171875
0.0322265625
-0.030029296875
0.00732421875
-0.005859375
0.0003662109375
0.0010986328125
-0.000732421875
0.0029296875
-0.0032958984375
0.006591796875
-0.0040283203125
0.0076904296875
-0.005126953125
-0.0010986328125
-0.00146484375
0.00146484375
0.003662109375
0.0135498046875
0.0029296875
0.0113525390625
-0.0003662109375
0.00732421875
-0.000732421875
0.009521484375
-0.01318359375
0.0435791015625
-0.0399169921875
-0.0413818359375
0.0087890625
-0.0234375
0.03662109375
0.0626220703125
-0.00146484375
0.0135498046875
-0.0029296875
0.01318359375
-0.005859375
0.0179443359375
-0.01611328125
0.0274658203125
-0.0234375
0.029296875
-0.00732421875
0.0018310546875
0.02783203125
-0.028564453125
0.029296875
-0.01904296875
0.006591796875
-0.002197265625
0.0003662109375
0.00146484375
-0.000732421875
0.00439453125
0.000732421875
-0.0003662109375
0.00146484375
-0.0040283203125
-0.0032958984375
-0.0084228515625
-0.002197265625
-0.0076904296875
0.005859375
0.003662109375
0.006591796875
0.0025634765625
0.0032958984375
-0.0025634765625
0.002197265625
-0.005126953125
-0.0113525390625
0.0267333984375
-0.027099609375
-0.0611572265625
0.0084228515625
-0.03369140625
0.0234375
0.06005859375
-0.00146484375
0.0032958984375
-0.0029296875
0.00439453125
-0.0084228515625
0.01025390625
-0.0164794921875
0.021240234375
-0.022705078125
0.022705078125
-0.008056640625
-0.0010986328125
0.0245361328125
-0.0245361328125
0.0263671875
-0.0172119140625
0.0062255859375
0.0
-0.00146484375
0.00146484375
-0.0025634765625
0.0032958984375
-0.0018310546875
0.00732421875
-0.0003662109375
0.0047607421875
-0.00439453125
-0.0025634765625
-0.0029296875
0.00146484375
0.008056640625
0.0069580078125
0.00439453125
0.002197265625
-0.0018310546875
0.0029296875
0.0
0.0029296875
-0.009521484375
0.025634765625
-0.0234375
-0.043212890625
0.0084228515625
-0.0201416015625
0.0223388671875
0.0501708984375
-0.000732421875
0.0032958984375
-0.0029296875
0.003662109375
-0.0087890625
0.0087890625
-0.0186767578125
0.0216064453125
-0.0223388671875
0.0223388671875
-0.00146484375
-0.0084228515625
0.0296630859375
-0.0322265625
0.025634765625
-0.0223388671875
0.0047607421875
-0.0032958984375
-0.0010986328125
0.0018310546875
-0.002197265625
0.0025634765625
-0.0018310546875
0.0040283203125
-0.000732421875
0.002197265625
-0.0025634765625
-0.00439453125
-0.00439453125
-0.002197265625
0.0062255859375
0.0029296875
0.005859375
0.000732421875
-0.002197265625
0.0029296875
-0.0003662109375
0.0003662109375
-0.005126953125
0.0325927734375
-0.085693359375
-0.006591796875
0.0047607421875
-0.0318603515625
0.087158203125
0.0106201171875
0.0
0.0018310546875
-0.0029296875
0.0025634765625
-0.0069580078125
0.0047607421875
-0.012451171875
0.0146484375
-0.02197265625
0.0201416015625
-0.0128173828125
-0.0047607421875
0.0260009765625
-0.0355224609375
0.0296630859375
-0.029296875
0.0062255859375
-0.0087890625
-0.00146484375
-0.002197265625
0.0
-0.00146484375
0.0029296875
0.0
0.0
-0.0003662109375
-0.0047607421875
-0.005126953125
-0.003662109375
-0.0062255859375
0.0054931640625
-0.0040283203125
0.0062255859375
-0.00439453125
0.0032958984375
-0.0069580078125
0.0003662109375
-0.0025634765625
-0.0003662109375
0.0186767578125
-0.08642578125
-0.0267333984375
-0.0029296875
-0.035888671875
0.087158203125
0.01904296875
0.0010986328125
0.0084228515625
-0.00146484375
-0.003662109375
-0.005859375
0.0010986328125
-0.0120849609375
0.0087890625
-0.024169921875
0.0135498046875
-0.0179443359375
-0.003662109375
0.0223388671875
-0.034423828125
0.0311279296875
-0.0333251953125
0.01025390625
-0.01318359375
0.0
-0.0054931640625
-0.0032958984375
0.0
-0.0018310546875
0.003662109375
-0.0010986328125
0.0025634765625
-0.0025634765625
-0.0047607421875
-0.003662109375
-0.006591796875
0.0025634765625
0.002197265625
0.003662109375
0.00439453125
0.000732421875
0.0025634765625
0.0010986328125
0.0010986328125
-0.0029296875
0.02490234375
-0.076904296875
-0.0318603515625
-0.0047607421875
-0.0318603515625
0.07177734375
0.0355224609375
-0.0010986328125
0.0128173828125
-0.0047607421875
0.0040283203125
-0.006591796875
0.0047607421875
-0.0146484375
0.0164794921875
-0.02197265625
0.0230712890625
-0.016845703125
0.0054931640625
0.01904296875
-0.028564453125
0.0325927734375
-0.0311279296875
0.0087890625
-0.0087890625
-0.000732421875
-0.0025634765625
0.000732421875
0.002197265625
-0.000732421875
0.0032958984375
-0.00146484375
0.0010986328125
0.0003662109375
-0.005126953125
0.0
-0.00732421875
0.00439453125
0.0003662109375
0.0054931640625
0.003662109375
0.0018310546875
0.0029296875
0.0018310546875
0.0029296875
0.0047607421875
0.01318359375
-0.08349609375
-0.0113525390625
-0.005126953125
-0.0208740234375
0.088623046875
0.019775390625
0.0047607421875
0.019775390625
-0.0018310546875
0.00146484375
-0.005859375
0.0054931640625
-0.0128173828125
0.017578125
-0.0205078125
0.0238037109375
-0.019775390625
0.0106201171875
0.0135498046875
-0.0230712890625
0.031494140625
-0.0318603515625
0.0128173828125
-0.0120849609375
0.0029296875
-0.002197265625
0.0010986328125
0.000732421875
-0.00146484375
0.0003662109375
-0.000732421875
0.0003662109375
0.0018310546875
-0.0018310546875
-0.003662109375
-0.00732421875
0.0003662109375
-0.003662109375
0.00732421875
0.0
0.0029296875
-0.00146484375
0.00146484375
-0.002197265625
0.005126953125
-0.002197265625
-0.046875
-0.0010986328125
-0.0029296875
-0.0377197265625
0.052734375
-0.0047607421875
0.005859375
0.0362548828125
0.0018310546875
0.0
-0.002197265625
0.000732421875
-0.0054931640625
0.0087890625
-0.012451171875
0.0146484375
-0.0205078125
0.010986328125
0.0054931640625
-0.0201416015625
0.031494140625
-0.035888671875
0.018310546875
-0.015380859375
0.0003662109375
0.00146484375
-0.0032958984375
0.003662109375
-0.0032958984375
0.005859375
-0.0029296875
0.0054931640625
-0.0029296875
0.0
-0.0098876953125
-0.003662109375
-0.0054931640625
0.0
0.0029296875
0.006591796875
0.0
0.005859375
-0.0003662109375
0.003662109375
0.0032958984375
0.0025634765625
-0.0355224609375
0.006591796875
-0.005859375
-0.0399169921875
0.0391845703125
-0.0032958984375
0.005859375
0.0465087890625
-0.0003662109375
0.0062255859375
-0.002197265625
0.0054931640625
-0.006591796875
0.0120849609375
-0.013916015625
0.0245361328125
-0.0223388671875
0.0194091796875
0.003662109375
-0.0150146484375
0.0318603515625
-0.0322265625
0.0208740234375
-0.0150146484375
0.0040283203125
-0.0018310546875
0.00146484375
0.0018310546875
0.0029296875
0.0029296875
0.0010986328125
0.0029296875
0.00146484375
0.00146484375
-0.0010986328125
-0.005859375
-0.00146484375
-0.0047607421875
0.0062255859375
0.00146484375
0.0076904296875
0.0003662109375
0.003662109375
-0.000732421875
0.0047607421875
-0.000732421875
-0.0047607421875
0.0289306640625
-0.0758056640625
-0.0113525390625
0.0128173828125
-0.0325927734375
0.0816650390625
0.009521484375
0.002197265625
0.00146484375
-0.000732421875
-0.00146484375
-0.0029296875
0.0018310546875
-0.009521484375
0.013916015625
-0.0194091796875
0.0179443359375
-0.0062255859375
-0.008056640625
0.0281982421875
-0.0384521484375
0.030029296875
-0.028564453125
0.0087890625
-0.01171875
0.005126953125
-0.01025390625
0.0025634765625
-0.0032958984375
0.002197265625
-0.0010986328125
0.0040283203125
-0.008056640625
-0.0003662109375
-0.0113525390625
0.000732421875
-0.0076904296875
0.0091552734375
-0.006591796875
0.006591796875
-0.0054931640625
-0.0025634765625
0.00146484375
-0.0062255859375
0.00439453125
-0.016845703125
0.038818359375
-0.06591796875
-0.041748046875
0.00146484375
-0.0333251953125
0.0516357421875
0.0538330078125
-0.003662109375
0.010986328125
-0.0029296875
0.0032958984375
-0.0076904296875
0.0047607421875
-0.015380859375
0.01611328125
-0.0274658203125
0.02197265625
-0.0194091796875
0.0032958984375
0.01904296875
-0.0234375
0.0252685546875
-0.0208740234375
0.0032958984375
-0.000732421875
-0.0047607421875
0.0069580078125
-0.0091552734375
0.009521484375
-0.0098876953125
0.0098876953125
-0.0084228515625
0.005126953125
-0.0087890625
-0.0018310546875
-0.0062255859375
-0.0003662109375
0.00146484375
0.006591796875
0.00146484375
0.0054931640625
-0.0062255859375
0.0047607421875
-0.0047607421875
0.0076904296875
-0.006591796875
0.0369873046875
-0.0772705078125
-0.0267333984375
0.00146484375
-0.031494140625
0.0703125
0.0347900390625
-0.0032958984375
0.0084228515625
-0.0025634765625
0.005126953125
-0.005126953125
0.009521484375
-0.0157470703125
0.017578125
-0.0245361328125
0.02197265625
-0.0135498046875
0.0010986328125
0.019775390625
-0.027099609375
0.025634765625
-0.0234375
0.005859375
-0.003662109375
-0.0018310546875
0.003662109375
-0.0032958984375
0.0032958984375
0.000732421875
0.0010986328125
0.00146484375
-0.002197265625
0.0003662109375
-0.0047607421875
-0.000732421875
-0.0069580078125
0.0047607421875
-0.0032958984375
0.0054931640625
0.0018310546875
-0.0003662109375
0.0003662109375
-0.0003662109375
0.0003662109375
0.003662109375
0.0146484375
-0.0838623046875
-0.025634765625
-0.0091552734375
-0.0230712890625
0.0838623046875
0.0303955078125
0.0062255859375
0.01171875
0.0
-0.0010986328125
-0.005859375
0.0040283203125
-0.01171875
0.0135498046875
-0.0205078125
0.022705078125
-0.0205078125
0.0098876953125
0.0135498046875
-0.019775390625
0.03076171875
-0.027099609375
0.0084228515625
-0.0098876953125
-0.002197265625
0.0
-0.0040283203125
0.0032958984375
-0.005859375
0.0069580078125
-0.0018310546875
0.002197265625
-0.000732421875
-0.005126953125
-0.0062255859375
-0.0069580078125
-0.00146484375
-0.0018310546875
0.006591796875
0.0040283203125
0.0040283203125
0.000732421875
0.0003662109375
-0.0018310546875
-0.0003662109375
-0.0010986328125
-0.02783203125
0.0047607421875
-0.0087890625
-0.0428466796875
0.03076171875
-0.005859375
0.0120849609375
0.0421142578125
-0.0010986328125
0.002197265625
-0.0025634765625
0.0047607421875
-0.005126953125
0.01025390625
-0.0150146484375
0.0216064453125
-0.021240234375
0.016845703125
0.000732421875
-0.013916015625
0.028564453125
-0.032958984375
0.0223388671875
-0.0179443359375
0.00732421875
-0.00439453125
0.002197265625
-0.00146484375
-0.00146484375
0.0029296875
0.0003662109375
0.0029296875
0.00439453125
0.0003662109375
0.000732421875
-0.005859375
0.000732421875
-0.0069580078125
0.0087890625
-0.00146484375
0.0091552734375
0.0
0.0040283203125
0.0003662109375
0.002197265625
0.0003662109375
-0.00146484375
0.0333251953125
-0.08349609375
-0.0186767578125
0.002197265625
-0.03369140625
0.0853271484375
0.025634765625
0.0003662109375
0.01025390625
-0.0040283203125
0.00732421875
-0.005859375
0.009521484375
-0.012451171875
0.015380859375
-0.021240234375
0.0205078125
-0.0142822265625
0.00146484375
0.0208740234375
-0.028564453125
0.0296630859375
-0.0223388671875
0.0062255859375
-0.0025634765625
-0.0029296875
0.0010986328125
-0.00146484375
0.0069580078125
-0.0010986328125
0.008056640625
-0.0018310546875
0.00439453125
-0.0025634765625
0.002197265625
-0.0040283203125
0.0003662109375
0.002197265625
0.0032958984375
0.0047607421875
0.005859375
0.0010986328125
0.005126953125
0.000732421875
0.002197265625
0.003662109375
0.0087890625
-0.07470703125
-0.009521484375
-0.005859375
-0.022705078125
0.076171875
0.018310546875
0.0040283203125
0.025634765625
-0.0032958984375
0.00439453125
-0.0054931640625
0.0098876953125
-0.0084228515625
0.0179443359375
-0.017578125
0.022705078125
-0.0194091796875
0.0157470703125
0.0120849609375
-0.0179443359375
0.03515625
-0.0340576171875
0.0186767578125
-0.0186767578125
0.0025634765625
-0.00439453125
-0.00146484375
0.00146484375
0.000732421875
-0.0025634765625
0.000732421875
-0.003662109375
0.000732421875
-0.0040283203125
-0.002197265625
-0.0113525390625
-0.003662109375
-0.0076904296875
0.0003662109375
-0.002197265625
-0.00146484375
-0.006591796875
-0.0040283203125
-0.0047607421875
-0.003662109375
-0.0025634765625
-0.0238037109375
0.009521484375
-0.0040283203125
-0.054931640625
0.0201416015625
-0.018310546875
0.0018310546875
0.049072265625
-0.000732421875
0.000732421875
-0.0010986328125
0.003662109375
-0.0018310546875
0.012451171875
-0.0084228515625
0.0260009765625
-0.0076904296875
0.0234375
0.0263671875
-0.0025634765625
0.06591796875
-0.021240234375
0.0596923828125
-0.0172119140625
0.0439453125
-0.0018310546875
0.0325927734375
0.00439453125
0.00146484375
0.0029296875
-0.0164794921875
-0.00146484375
-0.02197265625
-0.005859375
-0.0318603515625
-0.0106201171875
-0.0289306640625
-0.0047607421875
-0.0106201171875
0.003662109375
-0.003662109375
0.0029296875
-0.0040283203125
0.003662109375
-0.002197265625
0.0029296875
-0.012451171875
0.03515625
-0.0758056640625
-0.01611328125
0.0025634765625
-0.0289306640625
0.068115234375
0.027099609375
-0.00146484375
0.0098876953125
-0.0076904296875
0.008056640625
-0.008056640625
0.0091552734375
-0.013916015625
0.01904296875
-0.0252685546875
0.0205078125
-0.0150146484375
-0.0029296875
0.018310546875
-0.0281982421875
0.0245361328125
-0.02197265625
0.002197265625
-0.0040283203125
-0.0054931640625
0.0029296875
-0.005859375
0.006591796875
-0.00439453125
0.00439453125
-0.0054931640625
0.0032958984375
-0.0076904296875
0.0
-0.0069580078125
0.006591796875
-0.000732421875
0.0146484375
0.00146484375
0.0113525390625
-0.0025634765625
0.009521484375
-0.006591796875
0.0040283203125
-0.0047607421875
0.0234375
-0.081298828125
-0.029296875
-0.0047607421875
-0.03369140625
0.0772705078125
0.0296630859375
-0.00439453125
0.0113525390625
-0.00732421875
-0.0003662109375
-0.00732421875
0.0032958984375
-0.01611328125
0.0150146484375
-0.0252685546875
0.01611328125
-0.01904296875
-0.000732421875
0.016845703125
-0.0311279296875
0.0296630859375
-0.0318603515625
0.0087890625
-0.01025390625
-0.0003662109375
-0.002197265625
-0.00439453125
0.003662109375
-0.0040283203125
0.006591796875
-0.00146484375
0.0032958984375
0.0
0.0003662109375
-0.0025634765625
-0.0003662109375
0.0003662109375
0.0018310546875
0.005126953125
0.0040283203125
0.000732421875
0.005859375
-0.0018310546875
0.003662109375
0.0003662109375
0.019775390625
-0.0732421875
-0.0318603515625
-0.0032958984375
-0.027099609375
0.0736083984375
0.0391845703125
0.0010986328125
0.016845703125
-0.003662109375
0.005126953125
-0.0047607421875
0.0062255859375
-0.0087890625
0.013916015625
-0.0179443359375
0.0216064453125
-0.0164794921875
0.005126953125
0.016845703125
-0.02783203125
0.0318603515625
-0.030029296875
0.0135498046875
-0.010986328125
0.0029296875
-0.00146484375
-0.0018310546875
0.00146484375
-0.003662109375
0.0040283203125
-0.0025634765625
0.0029296875
-0.00146484375
-0.0018310546875
-0.0025634765625
-0.0087890625
0.0
-0.002197265625
0.0047607421875
0.0076904296875
0.0025634765625
0.0029296875
-0.00146484375
0.000732421875
0.0
-0.000732421875
-0.0655517578125
-0.0164794921875
-0.005859375
-0.027099609375
0.064453125
0.01611328125
0.0047607421875
0.0289306640625
-0.00146484375
0.0
-0.0040283203125
0.0029296875
-0.0087890625
0.012451171875
-0.0194091796875
0.0205078125
-0.0223388671875
0.012451171875
0.005859375
-0.0186767578125
0.0296630859375
-0.029296875
0.0157470703125
-0.0135498046875
0.0003662109375
-0.000732421875
-0.0032958984375
0.0032958984375
-0.0062255859375
0.002197265625
-0.0069580078125
-0.00146484375
-0.002197265625
-0.0069580078125
-0.0047607421875
-0.01025390625
-0.0025634765625
-0.00732421875
0.0054931640625
0.0003662109375
0.0025634765625
-0.0003662109375
0.002197265625
-0.0032958984375
0.002197265625
-0.0018310546875
-0.0201416015625
0.009521484375
0.00439453125
-0.0498046875
0.0230712890625
-0.003662109375
-0.00146484375
0.060791015625
0.0
0.00732421875
0.0
0.0076904296875
-0.0047607421875
0.0128173828125
-0.0164794921875
0.0205078125
-0.022705078125
0.0150146484375
0.000732421875
-0.0179443359375
0.031494140625
-0.035888671875
0.0234375
-0.0208740234375
0.00439453125
-0.00439453125
-0.000732421875
0.0018310546875
-0.0040283203125
0.0010986328125
-0.0040283203125
0.00146484375
0.0
-0.000732421875
-0.0003662109375
-0.0054931640625
0.0003662109375
-0.002197265625
0.00732421875
0.0032958984375
0.0032958984375
0.0025634765625
-0.000732421875
0.000732421875
0.0010986328125
0.0010986328125
-0.0113525390625
0.0223388671875
-0.038818359375
-0.0347900390625
0.0091552734375
-0.019775390625
0.0399169921875
0.0384521484375
0.000732421875
0.0040283203125
-0.00439453125
0.00439453125
-0.00732421875
0.008056640625
-0.0164794921875
0.0179443359375
-0.0216064453125
0.0150146484375
-0.0069580078125
-0.0087890625
0.0274658203125
-0.0303955078125
0.0267333984375
-0.0234375
0.0040283203125
-0.0098876953125
0.0
-0.00146484375
-0.0032958984375
0.005126953125
-0.00146484375
-0.0010986328125
-0.0010986328125
-0.003662109375
-0.00439453125
-0.006591796875
-0.00439453125
-0.008056640625
0.0025634765625
-0.00146484375
0.00732421875
-0.0025634765625
0.0018310546875
-0.002197265625
-0.000732421875
0.0
-0.012451171875
0.0384521484375
-0.0428466796875
-0.052001953125
0.0098876953125
-0.035888671875
0.04248046875
0.0640869140625
0.0003662109375
0.0106201171875
-0.0032958984375
0.0084228515625
-0.005126953125
0.0142822265625
-0.0113525390625
0.0238037109375
-0.0205078125
0.02490234375
-0.01025390625
0.0025634765625
0.02783203125
-0.02490234375
0.0311279296875
-0.0142822265625
0.01318359375
0.0069580078125
0.0128173828125
0.0087890625
0.0091552734375
0.0142822265625
0.003662109375
0.01611328125
-0.01025390625
0.003662109375
-0.0069580078125
-0.002197265625
0.005126953125
0.010986328125
-0.0032958984375
0.034423828125
-0.0157470703125
0.0457763671875
-0.016845703125
0.03076171875
-0.006591796875
0.0098876953125
0.0
0.02197265625
-0.1007080078125
-0.01611328125
-0.0032958984375
-0.0322265625
0.1025390625
0.017578125
0.0186767578125
0.0120849609375
0.0245361328125
0.0069580078125
0.0234375
0.015380859375
0.0047607421875
0.0208740234375
-0.017578125
0.016510009765625
-0.0098876953125
-0.0120849609375
0.022705078125
-0.047637939453125
0.032958984375
-0.0450439453125
0.01171875
-0.0230712890625
-0.00146484375
-0.0172119140625
-0.0062255859375
-0.0120849609375
-0.00439453125
-0.0146484375
-0.0076904296875
-0.01904296875
-0.0150146484375
-0.0186767578125
-0.016845703125
-0.0194091796875
-0.0062255859375
-0.010986328125
0.0054931640625
-0.0113525390625
0.003662109375
-0.0164794921875
-0.0010986328125
-0.016845703125
-0.0179443359375
0.015380859375
-0.0677490234375
-0.068115234375
0.002197265625
-0.0545654296875
0.049072265625
0.0439453125
-0.0047607421875
-0.0010986328125
-0.0047607421875
-0.010986328125
-0.0076904296875
-0.0076904296875
-0.0157470703125
0.0032958984375
-0.024169921875
0.010986328125
-0.01318359375
-0.0032958984375
0.0208740234375
-0.0245361328125
0.0325927734375
-0.0205078125
0.010986328125
-0.003662109375
0.0025634765625
0.0010986328125
-0.0003662109375
0.00732421875
-0.000732421875
0.0025634765625
0.0047607421875
-0.0040283203125
0.0018310546875
0.0
0.0
0.002197265625
0.0054931640625
0.00732421875
0.0087890625
0.009521484375
0.00732421875
0.0098876953125
0.003662109375
0.012451171875
0.0
0.0443115234375
-0.076171875
-0.01904296875
0.006591796875
-0.030029296875
0.0860595703125
0.0296630859375
0.0054931640625
0.0040283203125
-0.0003662109375
-0.0003662109375
0.0025634765625
-0.0029296875
-0.002197265625
0.008056640625
-0.01611328125
0.0252685546875
-0.012451171875
0.018310546875
0.01318359375
-0.01611328125
0.029296875
-0.0205078125
0.019775390625
-0.000732421875
0.0113525390625
0.0018310546875
0.005859375
0.00146484375
0.0047607421875
0.0010986328125
0.0010986328125
-0.0076904296875
-0.0208740234375
-0.022705078125
-0.030029296875
-0.0325927734375
-0.0142822265625
-0.027099609375
-0.0032958984375
-0.025634765625
-0.0091552734375
-0.0223388671875
-0.013916015625
-0.016845703125
-0.008056640625
0.0018310546875
-0.10693359375
-0.0318603515625
-0.008056640625
-0.052734375
0.09375
-0.0047607421875
-0.0120849609375
0.0010986328125
-0.0201416015625
0.0003662109375
-0.02490234375
0.0025634765625
-0.030029296875
0.01171875
-0.037353515625
0.021240234375
-0.0267333984375
0.003662109375
0.017578125
-0.02783203125
0.0384521484375
-0.028961181640625
0.02783203125
-0.014312744140625
0.0172119140625
-0.00732421875
0.003662109375
0.000732421875
-0.00439453125
0.0029296875
-0.0047607421875
0.003662109375
-0.0003662109375
-0.002197265625
0.0047607421875
-0.0029296875
0.005126953125
0.008056640625
0.0010986328125
0.015045166015625
0.0040283203125
0.013946533203125
0.0084228515625
0.01025390625
-0.0018310546875
0.0435791015625
-0.0640869140625
-0.027130126953125
0.0054931640625
-0.0238037109375
0.0615234375
0.053497314453125
0.0
0.0157470703125
0.0018310546875
0.01025390625
-0.0029296875
0.0135498046875
-0.0106201171875
0.0234375
-0.019775390625
0.03076171875
-0.01171875
0.0128173828125
0.0201416015625
-0.0172119140625
0.029296875
-0.0164794921875
0.0084228515625
0.0010986328125
-0.003662109375
0.008056640625
-0.0076904296875
0.010986328125
-0.005859375
0.0128173828125
-0.0040283203125
0.010986328125
-0.00439453125
0.0025634765625
0.0
0.002197265625
0.0076904296875
0.00732421875
0.005859375
0.006591796875
0.00146484375
0.0062255859375
0.002197265625
0.0062255859375
0.002197265625
0.032958984375
-0.10107421875
0.003662109375
0.002197265625
-0.0274658203125
0.1065673828125
0.005859375
0.0010986328125
0.0087890625
-0.0032958984375
0.0054931640625
-0.005859375
0.01171875
-0.01025390625
0.021240234375
-0.0179443359375
0.02783203125
-0.01318359375
0.0025634765625
0.016845703125
-0.0333251953125
0.022705078125
-0.0303955078125
0.0018310546875
-0.0091552734375
-0.0010986328125
-0.0025634765625
-0.0032958984375
0.0003662109375
-0.005126953125
0.0040283203125
-0.002197265625
-0.0025634765625
-0.0032958984375
-0.01025390625
-0.003662109375
-0.0069580078125
0.0029296875
-0.0029296875
0.005126953125
-0.005859375
0.00146484375
-0.00439453125
0.000732421875
-0.00439453125
-0.01025390625
0.031494140625
-0.0450439453125
-0.0509033203125
0.0120849609375
-0.0380859375
0.049072265625
0.052734375
0.0010986328125
0.00732421875
-0.0010986328125
0.00732421875
-0.0029296875
0.0157470703125
-0.0106201171875
0.0281982421875
-0.016845703125
0.0289306640625
-0.0062255859375
0.003662109375
0.0245361328125
-0.0281982421875
0.02490234375
-0.0230712890625
0.00439453125
-0.0047607421875
-0.0003662109375
0.00146484375
-0.0029296875
0.0076904296875
-0.002197265625
0.0076904296875
0.00146484375
0.002197265625
0.00146484375
-0.0062255859375
-0.0003662109375
-0.0029296875
0.0040283203125
0.0029296875
0.00439453125
0.003662109375
0.0010986328125
0.0032958984375
0.0003662109375
0.003662109375
-0.0076904296875
0.0322265625
-0.041015625
-0.0303955078125
0.008056640625
-0.02197265625
0.0421142578125
0.043212890625
0.0
0.0087890625
-0.002197265625
0.0076904296875
-0.005859375
0.0128173828125
-0.0142822265625
0.0252685546875
-0.0194091796875
0.0238037109375
-0.005126953125
-0.003662109375
0.0263671875
-0.0281982421875
0.0260009765625
-0.0205078125
0.0054931640625
-0.003662109375
-0.000732421875
0.0010986328125
-0.0025634765625
0.00439453125
0.0
0.0032958984375
-0.0003662109375
-0.000732421875
-0.003662109375
-0.00732421875
-0.002197265625
-0.005126953125
0.005859375
0.00146484375
0.005126953125
0.00146484375
0.000732421875
0.0018310546875
0.0010986328125
-0.0018310546875
-0.0113525390625
0.0186767578125
-0.037353515625
-0.0311279296875
0.012451171875
-0.0230712890625
0.03955078125
0.0296630859375
-0.0010986328125
-0.000732421875
-0.005126953125
0.0
-0.0054931640625
0.0047607421875
-0.012451171875
0.0120849609375
-0.022705078125
0.01171875
-0.00732421875
-0.0128173828125
0.0245361328125
-0.040283203125
0.0234375
-0.028564453125
0.0062255859375
-0.009521484375
0.00146484375
-0.0054931640625
-0.0025634765625
-0.00146484375
-0.0040283203125
-0.002197265625
-0.0003662109375
-0.00732421875
-0.002197265625
-0.0091552734375
-0.0018310546875
-0.0018310546875
0.00439453125
0.0047607421875
0.00439453125
0.0076904296875
0.00146484375
0.005859375
0.0
0.005859375
-0.02783203125
0.02490234375
-0.005126953125
-0.0303955078125
0.0281982421875
0.002197265625
0.005126953125
0.0582275390625
-0.0032958984375
0.00732421875
-0.0040283203125
0.005126953125
-0.0076904296875
0.012451171875
-0.0164794921875
0.022705078125
-0.0208740234375
0.01904296875
-0.0003662109375
-0.01171875
0.0289306640625
-0.0322265625
0.0216064453125
-0.0194091796875
0.0029296875
-0.005859375
-0.000732421875
-0.0003662109375
-0.0010986328125
-0.0003662109375
-0.002197265625
-0.000732421875
-0.000732421875
-0.0003662109375
-0.00146484375
-0.0069580078125
-0.000732421875
-0.00439453125
0.0047607421875
0.0025634765625
0.00439453125
-0.0047607421875
0.002197265625
-0.0062255859375
0.00146484375
-0.0040283203125
-0.0428466796875
-0.0040283203125
-0.0062255859375
-0.043212890625
0.04541015625
-0.00732421875
0.0069580078125
0.0355224609375
-0.002197265625
0.0
-0.003662109375
0.0018310546875
-0.00732421875
0.008056640625
-0.0135498046875
0.0186767578125
-0.019775390625
0.013916015625
0.002197265625
-0.0179443359375
0.030029296875
-0.0347900390625
0.019775390625
-0.0179443359375
0.003662109375
-0.0029296875
-0.0003662109375
0.000732421875
-0.0010986328125
0.0032958984375
0.0
0.00146484375
0.0003662109375
-0.00146484375
-0.0047607421875
-0.00439453125
-0.0025634765625
0.0003662109375
0.00439453125
0.0069580078125
0.0018310546875
0.002197265625
0.0
-0.0010986328125
0.0003662109375
0.002197265625
-0.054931640625
0.0054931640625
-0.0098876953125
-0.0311279296875
0.0538330078125
0.00146484375
0.008056640625
0.0362548828125
-0.00146484375
0.0
-0.0047607421875
0.003662109375
-0.008056640625
0.01171875
-0.015380859375
0.02197265625
-0.021240234375
0.01611328125
0.0003662109375
-0.01611328125
0.025634765625
-0.0325927734375
0.0194091796875
-0.0157470703125
0.0040283203125
-0.0010986328125
-0.0032958984375
0.002197265625
-0.0032958984375
0.006591796875
0.0003662109375
0.005126953125
0.0003662109375
-0.000732421875
-0.003662109375
-0.006591796875
0.00146484375
-0.00439453125
0.0062255859375
0.0018310546875
0.002197265625
0.000732421875
0.00146484375
-0.0025634765625
0.0003662109375
-0.00439453125
-0.052734375
-0.0010986328125
-0.005859375
-0.032958984375
0.0523681640625
-0.0040283203125
0.00439453125
0.0311279296875
-0.0040283203125
0.0010986328125
-0.005859375
0.00439453125
-0.009521484375
0.0069580078125
-0.0172119140625
0.01318359375
-0.0245361328125
0.0098876953125
0.0018310546875
-0.0194091796875
0.0296630859375
-0.034423828125
0.0164794921875
-0.0205078125
0.003662109375
-0.0062255859375
-0.0010986328125
0.0029296875
-0.00439453125
0.006591796875
-0.0010986328125
0.0029296875
-0.0003662109375
0.0010986328125
-0.003662109375
0.000732421875
0.0010986328125
0.0054931640625
0.0040283203125
0.0084228515625
0.00146484375
0.0062255859375
0.000732421875
0.006591796875
0.0003662109375
0.0098876953125
-0.073974609375
-0.000732421875
-0.0054931640625
-0.0186767578125
0.0743408203125
0.0135498046875
0.00439453125
0.0289306640625
-0.0018310546875
0.006591796875
-0.0047607421875
0.0087890625
-0.0098876953125
0.0164794921875
-0.0186767578125
0.0263671875
-0.021240234375
0.016845703125
0.0087890625
-0.0194091796875
0.03076171875
-0.0303955078125
0.015380859375
-0.0098876953125
0.0025634765625
0.0
-0.00146484375
0.000732421875
-0.0025634765625
0.0047607421875
-0.0018310546875
0.0032958984375
-0.0010986328125
-0.0003662109375
-0.0032958984375
-0.0025634765625
0.0010986328125
-0.0010986328125
0.0062255859375
0.0032958984375
0.0040283203125
0.0025634765625
0.00146484375
-0.000732421875
0.0040283203125
0.006591796875
-0.0966796875
-0.0054931640625
-0.0091552734375
-0.0234375
0.0985107421875
0.00732421875
0.0062255859375
0.0172119140625
-0.0029296875
0.0018310546875
-0.00439453125
0.0054931640625
-0.009521484375
0.0128173828125
-0.0186767578125
0.0186767578125
-0.0205078125
0.0076904296875
0.0098876953125
-0.0245361328125
0.0322265625
-0.03515625
0.01318359375
-0.0164794921875
-0.0003662109375
-0.0062255859375
-0.0025634765625
-0.0032958984375
-0.00146484375
-0.002197265625
-0.0003662109375
-0.003662109375
-0.000732421875
-0.006591796875
-0.0018310546875
-0.009521484375
0.0029296875
-0.0062255859375
0.005859375
0.0003662109375
0.0010986328125
0.000732421875
-0.0003662109375
0.0010986328125
0.00146484375
0.01904296875
-0.084228515625
-0.017578125
-0.00732421875
-0.02490234375
0.0831298828125
0.0263671875
0.002197265625
0.019775390625
-0.0047607421875
0.0087890625
-0.0054931640625
0.0113525390625
-0.010986328125
0.0172119140625
-0.0205078125
0.025634765625
-0.017578125
0.01171875
0.015380859375
-0.0234375
0.0303955078125
-0.0281982421875
0.0106201171875
-0.0076904296875
0.000732421875
0.00146484375
-0.00146484375
0.0040283203125
-0.0029296875
0.005859375
-0.0010986328125
0.003662109375
0.0003662109375
-0.000732421875
-0.0029296875
-0.0047607421875
0.0
-0.0018310546875
0.0047607421875
0.0047607421875
0.0018310546875
0.0025634765625
0.00146484375
0.0062255859375
0.0062255859375
0.01904296875
-0.10107421875
-0.0076904296875
-0.0106201171875
-0.02197265625
0.100341796875
0.0142822265625
0.0047607421875
0.018310546875
-0.002197265625
0.0047607421875
-0.005859375
0.008056640625
-0.0128173828125
0.018310546875
-0.0201416015625
0.027099609375
-0.0186767578125
0.010986328125
0.012451171875
-0.02490234375
0.038818359375
-0.0399169921875
0.0201416015625
-0.0208740234375
0.0018310546875
-0.0047607421875
0.0
0.0010986328125
-0.0018310546875
0.0069580078125
-0.00439453125
0.0029296875
-0.00439453125
-0.00439453125
-0.005126953125
-0.005859375
-0.00146484375
-0.0010986328125
0.0054931640625
0.0
0.0025634765625
-0.0032958984375
0.0018310546875
-0.006591796875
0.005859375
0.0
-0.0673828125
-0.0223388671875
-0.0018310546875
-0.03076171875
0.0736083984375
0.0157470703125
0.0054931640625
0.0205078125
-0.000732421875
0.00146484375
-0.0084228515625
0.0076904296875
-0.0216064453125
0.016845703125
-0.0234375
0.019775390625
-0.0135498046875
0.0069580078125
0.0194091796875
-0.022705078125
0.03369140625
-0.0274658203125
0.0091552734375
-0.005126953125
0.0040283203125
0.0025634765625
0.0040283203125
0.005859375
-0.0018310546875
0.0106201171875
-0.0029296875
0.0069580078125
-0.00439453125
0.003662109375
-0.0062255859375
0.0003662109375
0.0
0.0018310546875
0.002197265625
0.0069580078125
-0.0029296875
0.0054931640625
-0.002197265625
0.0029296875
0.005859375
0.0087890625
-0.08642578125
-0.0040283203125
-0.003662109375
-0.0208740234375
0.0948486328125
0.0091552734375
0.0047607421875
0.019775390625
-0.0003662109375
0.00439453125
0.00146484375
0.0069580078125
-0.0054931640625
0.0135498046875
-0.0208740234375
0.0234375
-0.029296875
0.016845703125
0.00146484375
-0.0186767578125
0.02783203125
-0.032958984375
0.01318359375
-0.0150146484375
0.0018310546875
-0.002197265625
0.0018310546875
-0.000732421875
-0.000732421875
0.00146484375
-0.0032958984375
-0.000732421875
-0.003662109375
-0.005126953125
-0.0054931640625
-0.0076904296875
-0.0010986328125
-0.008056640625
0.0025634765625
-0.000732421875
-0.0025634765625
-0.0040283203125
-0.00146484375
-0.0062255859375
0.0018310546875
0.0010986328125
-0.06591796875
-0.017578125
-0.00732421875
-0.029296875
0.06005859375
0.0157470703125
-0.0010986328125
0.022705078125
-0.0032958984375
-0.0003662109375
-0.003662109375
0.0040283203125
-0.01171875
0.010986328125
-0.0201416015625
0.0201416015625
-0.01904296875
0.01171875
0.0098876953125
-0.0205078125
0.0322265625
-0.0289306640625
0.018310546875
-0.0106201171875
0.003662109375
-0.00146484375
-0.002197265625
0.0032958984375
-0.0003662109375
0.0062255859375
-0.0010986328125
0.0054931640625
-0.00146484375
-0.002197265625
-0.000732421875
-0.005126953125
0.0018310546875
0.0010986328125
0.005126953125
0.0040283203125
0.0032958984375
0.0003662109375
0.0018310546875
-0.000732421875
0.002197265625
0.018310546875
-0.07763671875
-0.0245361328125
-0.0029296875
-0.029296875
0.0794677734375
0.0281982421875
0.000732421875
0.015380859375
-0.0040283203125
0.0018310546875
-0.0062255859375
0.005859375
-0.0091552734375
0.0157470703125
-0.0172119140625
0.0223388671875
-0.01611328125
0.0076904296875
0.016845703125
-0.0238037109375
0.03076171875
-0.029296875
0.0106201171875
-0.01025390625
0.0003662109375
-0.0029296875
-0.0010986328125
0.00146484375
-0.0010986328125
0.00439453125
0.003662109375
0.00146484375
0.0029296875
-0.0025634765625
-0.003662109375
-0.005859375
0.003662109375
-0.0032958984375
0.0087890625
0.00146484375
0.0032958984375
-0.0003662109375
0.00146484375
-0.0010986328125
0.00732421875
0.01171875
-0.0897216796875
-0.0120849609375
-0.0091552734375
-0.0234375
0.0919189453125
0.0146484375
0.005126953125
0.0146484375
-0.0325927734375
0.0230712890625
-0.032958984375
0.0230712890625
