0.253448486328125
0.418975830078125
0.272125244140625
0.373931884765625
0.0318603515625
-0.1102294921875
-0.0047607421875
-0.078369140625
-0.0069580078125
-0.044677734375
0.0164794921875
-0.0560302734375
0.0897216796875
-0.1109619140625
0.14208984375
-0.0875244140625
0.119415283203125
-0.0032958984375
0.075469970703125
0.0977783203125
0.01318359375
-0.113922119140625
0.021240234375
-0.314605712890625
0.0120849609375
-0.1131591796875
0.003662109375
-0.0501708984375
0.021240234375
-0.072540283203125
0.030029296875
-0.075103759765625
0.0245361328125
-0.0574951171875
-0.0106201171875
0.01318359375
-0.0281982421875
0.079132080078125
-0.0216064453125
0.073272705078125
-0.0003662109375
0.0172119140625
0.0333251953125
-0.042510986328125
0.0523681640625
-0.063751220703125
0.031494140625
-0.0318603515625
0.0234375
-0.017578125
0.017578125
-0.016845703125
0.013916015625
-0.012451171875
0.0106201171875
-0.0128173828125
-0.015380859375
0.009521484375
-0.0208740234375
0.02490234375
-0.0179443359375
0.022705078125
0.0003662109375
-0.00146484375
0.0032958984375
-0.022705078125
-0.0029296875
-0.0186767578125
-0.0032958984375
-0.01171875
-0.0054931640625
-0.016845703125
0.012451171875
-0.02490234375
0.072509765625
-0.260406494140625
0.1131591796875
-0.1798095703125
0.086456298828125
-0.269561767578125
0.035186767578125
-0.33807373046875
-0.0003662109375
0.0003662109375
0.0
0.0003662109375
0.0003662109375
0.0
-0.0003662109375
-0.0003662109375
0.0
0.0
0.0003662109375
0.0
0.0
0.0
-0.0003662109375
0.0003662109375
-0.0003662109375
-0.0003662109375
0.0003662109375
0.0
0.0003662109375
0.0003662109375
0.0
0.0
-0.0003662109375
0.0
0.0
0.0
0.0
0.0
0.0
0.0
0.0
0.0
0.0
-0.0003662109375
0.0003662109375
-0.0003662109375
0.0
0.0
0.0
0.0003662109375
0.0
0.0003662109375
0.0
-0.0003662109375
0.0
0.0
-0.0003662109375
0.0003662109375
0.0
-0.0003662109375
0.0003662109375
0.0
0.0
0.0003662109375
-0.0003662109375
-0.0003662109375
0.0
0.0
0.0003662109375
0.0003662109375
0.0
0.0
0.0
-0.0003662109375
0.0
0.0
0.0
0.0003662109375
0.0
-0.0003662109375
0.0
-0.0003662109375
0.0
0.0003662109375
-0.0003662109375
0.0
0.0
-0.0003662109375
0.0003662109375
0.0
0.0
0.0003662109375
0.0
0.0003662109375
0.0
0.0
0.0
0.0
0.0
0.0
0.0
0.0
0.0
0.0
-0.0003662109375
0.0
-0.0003662109375
0.0
0.0003662109375
0.0
0.0003662109375
-0.0003662109375
0.0
-0.0003662109375
0.0
0.0003662109375
0.0
0.0003662109375
0.0
-0.0003662109375
0.0
0.0
0.0
0.000732421875
0.0
-0.0003662109375
-0.0003662109375
-0.0003662109375
0.0
0.0003662109375
0.0003662109375
-0.0003662109375
-0.0003662109375
0.0
-0.0003662109375
0.0003662109375
0.0003662109375
0.0
0.0003662109375
-0.0003662109375
-0.0003662109375
-0.0003662109375
0.0
0.058624267578125
0.0
0.098175048828125
-0.0003662109375
0.0732421875
-0.005126953125
0.056396484375
-0.031890869140625
0.0498046875
-0.041412353515625
0.04541015625
-0.0303955078125
0.0355224609375
-0.0318603515625
0.034423828125
-0.032958984375
0.041015625
-0.0380859375
0.0545654296875
-0.030029296875
1.0
0.101104736328125
1.0
0.125274658203125
-0.161163330078125
0.0157470703125
-0.260406494140625
0.0003662109375
-0.1424560546875
0.0
-0.062652587890625
0.0
0.027099609375
0.0
0.155670166015625
-0.0003662109375
0.276153564453125
0.0
0.167022705078125
-0.275787353515625
0.0
-0.58453369140625
0.0
-0.40545654296875
0.0
0.283843994140625
0.0
0.58636474609375
0.0003662109375
0.300323486328125
-0.287506103515625
0.095245361328125
-0.48785400390625
0.0003662109375
-0.252716064453125
0.0
-0.062255859375
-0.0003662109375
0.018310546875
-0.0003662109375
0.1153564453125
0.0003662109375
0.191162109375
0.0003662109375
0.264434814453125
-0.0003662109375
0.33074951171875
-0.0003662109375
0.170318603515625
0.0003662109375
0.0003662109375
0.0003662109375
0.0
-0.0003662109375
0.0
-0.0003662109375
0.0
0.0
0.0
0.0
0.0
0.0003662109375
0.0
0.0
-0.260040283203125
-0.0003662109375
-0.687103271484375
-0.015380859375
-0.914154052734375
-0.029296875
-0.808685302734375
-0.059722900390625
-0.29522705078125
-0.178375244140625
0.155303955078125
-0.356353759765625
0.31939697265625
-0.342437744140625
0.285675048828125
-0.218658447265625
0.1527099609375
-0.227813720703125
0.1571044921875
-0.305450439453125
0.269195556640625
-0.293731689453125
0.271026611328125
-0.00439453125
-0.066650390625
0.0703125
-0.1732177734375
-0.0673828125
0.013916015625
-0.0604248046875
0.0494384765625
-0.1409912109375
0.190093994140625
-0.43402099609375
0.749359130859375
-0.32781982421875
0.59002685546875
-0.0003662109375
0.0
0.0
0.0
0.0
0.0003662109375
0.0
0.0
0.0
0.0
0.0
0.0
0.0003662109375
0.0
0.0
0.0
-0.0003662109375
-0.0003662109375
0.0
0.0
0.0
0.0003662109375
0.0
0.0
0.0003662109375
0.0
0.0
0.0
-0.0003662109375
-0.0003662109375
0.0
-0.050201416015625
0.0
-0.38421630859375
0.54022216796875
-1.0
0.51531982421875
-1.0
0.01904296875
-0.014678955078125
0.113922119140625
-0.015380859375
-0.02197265625
-0.02783203125
-0.054962158203125
-0.047271728515625
-0.0794677734375
0.0
-0.128173828125
-0.0003662109375
0.0106201171875
0.0
-0.031494140625
0.0
-0.10400390625
0.0
-0.101104736328125
0.049102783203125
-0.054962158203125
0.098175048828125
0.051300048828125
0.03662109375
0.100372314453125
-0.0325927734375
0.0860595703125
-0.0465087890625
0.0487060546875
-0.0201416015625
0.025634765625
-0.0040283203125
0.01025390625
0.005859375
0.003662109375
0.013916015625
0.0172119140625
-0.0010986328125
0.015380859375
0.012451171875
0.003662109375
0.029296875
0.01025390625
0.01904296875
0.031494140625
-0.00439453125
0.01611328125
0.009521484375
0.006591796875
0.0318603515625
0.016845703125
0.021240234375
0.010986328125
0.0142822265625
0.00439453125
0.01904296875
-0.0281982421875
0.063720703125
-0.0853271484375
0.12451171875
0.01171875
-0.0428466796875
0.0325927734375
-0.1212158203125
-0.047607421875
0.119384765625
0.0025634765625
0.1636962890625
0.0380859375
0.0362548828125
0.0296630859375
0.0135498046875
0.009521484375
0.042144775390625
-0.00146484375
0.070343017578125
0.0
0.08056640625
0.0029296875
0.0494384765625
-0.0062255859375
0.0047607421875
0.003662109375
-0.0245361328125
0.0296630859375
-0.0267333984375
0.0029296875
0.0208740234375
-0.0054931640625
0.038818359375
0.032958984375
0.0655517578125
0.0611572265625
0.087158203125
0.054229736328125
0.120147705078125
-0.0303955078125
-0.047607421875
-0.0087890625
-0.231842041015625
0.038116455078125
-0.095947265625
-0.007720947265625
0.0076904296875
-0.026031494140625
0.01611328125
-0.0040283203125
-0.0003662109375
0.0106201171875
0.00732421875
-0.0142822265625
0.060791015625
-0.0135498046875
0.106201171875
0.0
0.093017578125
0.01171875
0.04541015625
0.00439453125
0.029296875
0.000732421875
0.0205078125
0.0091552734375
0.0146484375
-0.0120849609375
0.035919189453125
-0.00732421875
0.029693603515625
0.0157470703125
0.00146484375
0.008056640625
0.0062255859375
0.013580322265625
0.0040283203125
-0.005859375
0.022705078125
-0.017974853515625
0.0325927734375
0.013916015625
0.0032958984375
0.024932861328125
0.0
0.026031494140625
-0.0087890625
0.0208740234375
-0.017578125
0.0087890625
-0.0054931640625
-0.00146484375
0.0142822265625
-0.0223388671875
0.047607421875
0.0582275390625
-0.172515869140625
0.01171875
-0.110626220703125
-0.0853271484375
0.211700439453125
-0.0142822265625
0.141754150390625
0.0087890625
0.0322265625
-0.0054931640625
0.0322265625
-0.00732421875
0.0384521484375
-0.0003662109375
0.0362548828125
0.005859375
0.031494140625
0.01171875
-0.008056640625
0.01025390625
-0.0501708984375
0.01611328125
-0.0552978515625
0.01025390625
-0.02197265625
-0.0032958984375
0.0032958984375
0.0296630859375
-0.01025390625
0.078369140625
0.01171875
0.0816650390625
0.0655517578125
0.0322265625
0.09375
0.0032958984375
-0.1593017578125
0.0322265625
-0.283477783203125
0.0333251953125
-0.089019775390625
-0.000732421875
-0.0150146484375
-0.006591796875
-0.0157470703125
0.0062255859375
-0.0281982421875
0.0135498046875
-0.0135498046875
0.0084228515625
0.024169921875
0.0010986328125
0.076904296875
0.005859375
0.073974609375
-0.00439453125
0.042144775390625
-0.0113525390625
0.016510009765625
-0.003662109375
0.0098876953125
-0.0172119140625
0.0238037109375
-0.025634765625
0.0281982421875
-0.0076904296875
0.0142822265625
-0.002197265625
0.005859375
-0.0076904296875
0.01025390625
0.0010986328125
-0.0003662109375
0.0029296875
-0.0018310546875
-0.0084228515625
0.0113525390625
-0.0098876953125
0.01611328125
-0.005126953125
0.01171875
-0.0018310546875
-0.00439453125
-0.002197265625
-0.0087890625
-0.0106201171875
-0.00146484375
-0.00732421875
-0.0010986328125
-0.0106201171875
0.03662109375
0.059326171875
-0.211334228515625
0.00439453125
-0.124176025390625
-0.07470703125
0.216827392578125
-0.005126953125
0.111724853515625
0.0025634765625
0.0260009765625
-0.0029296875
0.018310546875
-0.0069580078125
0.0281982421875
-0.00439453125
0.0487060546875
-0.00732421875
0.0509033203125
-0.0098876953125
0.003662109375
-0.0025634765625
-0.047607421875
-0.0069580078125
-0.038818359375
-0.008056640625
-0.0018310546875
-0.005126953125
0.01171875
0.00146484375
0.025634765625
0.017578125
0.0791015625
0.034423828125
0.1175537109375
-0.0322265625
0.124908447265625
-0.0465087890625
-0.1259765625
0.0135498046875
-0.238433837890625
-0.002197265625
-0.0391845703125
-0.0091552734375
-0.003662109375
-0.00146484375
-0.0234375
0.005859375
-0.0238037109375
-0.005126953125
0.003662109375
-0.015380859375
0.0457763671875
-0.00439453125
0.0750732421875
0.0040283203125
0.05712890625
0.008056640625
0.0179443359375
-0.0032958984375
0.0084228515625
-0.01171875
0.01171875
-0.0205078125
0.018310546875
-0.012451171875
0.0091552734375
-0.0076904296875
0.008056640625
-0.01171875
0.01025390625
0.005859375
-0.0040283203125
0.01025390625
-0.00732421875
0.009521484375
-0.010986328125
0.01025390625
-0.0150146484375
0.0106201171875
-0.0062255859375
0.008056640625
0.0032958984375
0.01318359375
-0.0128173828125
0.00732421875
-0.0142822265625
-0.0010986328125
-0.0010986328125
0.003662109375
-0.0032958984375
-0.00146484375
0.029296875
0.0703125
-0.220123291015625
0.0150146484375
-0.1043701171875
-0.0604248046875
0.210968017578125
0.0
0.0750732421875
0.0003662109375
0.0205078125
-0.0040283203125
0.0194091796875
-0.0025634765625
0.0234375
0.0010986328125
0.0333251953125
-0.0018310546875
0.0216064453125
0.0040283203125
-0.0281982421875
0.015380859375
-0.068115234375
0.0076904296875
-0.05126953125
0.00146484375
-0.013916015625
0.0025634765625
-0.002197265625
0.01904296875
0.0128173828125
0.0303955078125
0.0706787109375
0.0439453125
0.120849609375
-0.0487060546875
0.076934814453125
-0.03515625
-0.1915283203125
0.0516357421875
-0.233306884765625
0.0146484375
-0.038818359375
0.0113525390625
-0.02490234375
0.0069580078125
-0.0325927734375
0.0062255859375
-0.021240234375
-0.0029296875
0.006591796875
-0.005126953125
0.0413818359375
-0.0025634765625
0.0703125
-0.0040283203125
0.057861328125
-0.002197265625
0.0238037109375
-0.0003662109375
0.0040283203125
0.0025634765625
0.00146484375
0.002197265625
0.0003662109375
0.0003662109375
-0.0025634765625
0.0
0.0025634765625
-0.000732421875
0.0054931640625
-0.00146484375
-0.000732421875
0.0032958984375
-0.00146484375
0.0029296875
0.0032958984375
-0.005126953125
0.0084228515625
-0.002197265625
0.010986328125
0.0025634765625
0.0018310546875
0.0062255859375
-0.01025390625
-0.00439453125
-0.0047607421875
-0.0091552734375
0.006591796875
0.00146484375
0.0047607421875
-0.005126953125
0.0084228515625
0.0428466796875
-0.206939697265625
-0.0025634765625
-0.0399169921875
-0.0545654296875
0.225250244140625
0.0003662109375
0.052734375
0.01171875
-0.0003662109375
0.0113525390625
0.003662109375
0.005859375
0.024169921875
0.0003662109375
0.03955078125
0.002197265625
0.0157470703125
0.0120849609375
-0.037353515625
0.01025390625
-0.069580078125
0.00146484375
-0.0439453125
-0.0025634765625
-0.006591796875
0.0003662109375
-0.0018310546875
0.0062255859375
0.0325927734375
0.018310546875
0.0845947265625
0.03955078125
0.134765625
-0.057861328125
0.037353515625
-0.0413818359375
-0.2325439453125
0.0384521484375
-0.202880859375
0.0
-0.032958984375
0.0047607421875
-0.029327392578125
-0.0018310546875
-0.025299072265625
-0.0157470703125
-0.0029296875
-0.0234375
0.032989501953125
-0.0164794921875
0.067047119140625
-0.0106201171875
0.085693359375
-0.00146484375
0.059326171875
0.0029296875
0.01904296875
0.00439453125
0.0010986328125
0.00439453125
0.0025634765625
0.0
0.0010986328125
-0.00146484375
0.0010986328125
-0.0018310546875
-0.0032958984375
0.0018310546875
-0.0084228515625
-0.0029296875
0.0
0.003662109375
0.0003662109375
0.0098876953125
-0.00146484375
0.002197265625
-0.002197265625
0.0040283203125
0.003662109375
0.0025634765625
-0.000732421875
0.003662109375
-0.0135498046875
0.0
-0.010986328125
-0.0084228515625
0.0032958984375
-0.0032958984375
0.00146484375
0.00439453125
-0.009521484375
0.0457763671875
-0.224884033203125
0.0003662109375
-0.04833984375
-0.04833984375
0.228546142578125
-0.0018310546875
0.06005859375
0.0113525390625
0.0054931640625
0.01025390625
0.029296875
0.0018310546875
0.07177734375
0.0
0.071044921875
0.0062255859375
0.0289306640625
0.016845703125
-0.0340576171875
0.0157470703125
-0.0732421875
0.00146484375
-0.0428466796875
-0.0029296875
-0.005126953125
0.0032958984375
-0.0032958984375
0.009521484375
0.0263671875
0.017578125
0.0849609375
0.03955078125
0.141387939453125
-0.0618896484375
0.0574951171875
-0.0501708984375
-0.209869384765625
0.0391845703125
-0.2017822265625
-0.00146484375
-0.0281982421875
-0.0047607421875
-0.018310546875
-0.0003662109375
-0.0267333984375
0.00439453125
-0.0201416015625
0.0003662109375
0.00439453125
-0.0010986328125
0.047607421875
-0.0047607421875
0.0823974609375
-0.0003662109375
0.0582275390625
0.0018310546875
0.012451171875
0.0025634765625
-0.0025634765625
0.003662109375
0.00146484375
-0.002197265625
0.0069580078125
0.003662109375
0.00439453125
0.0032958984375
-0.000732421875
-0.00146484375
0.0029296875
-0.000732421875
0.005126953125
0.0025634765625
0.00439453125
0.00146484375
-0.0003662109375
0.00439453125
-0.0040283203125
0.003662109375
0.005126953125
-0.00146484375
0.0062255859375
0.0047607421875
-0.008056640625
0.00439453125
-0.0106201171875
-0.0029296875
-0.0029296875
-0.0040283203125
-0.0032958984375
-0.009521484375
0.03515625
0.0560302734375
-0.206573486328125
0.006591796875
-0.104736328125
-0.069580078125
0.216094970703125
-0.0084228515625
0.085693359375
0.0029296875
0.018310546875
0.0029296875
0.009521484375
0.0025634765625
0.0135498046875
-0.0003662109375
0.035888671875
-0.0062255859375
0.038818359375
-0.000732421875
-0.0113525390625
0.01025390625
-0.0640869140625
-0.0054931640625
-0.040283203125
-0.0142822265625
-0.00439453125
-0.00732421875
0.003662109375
0.0032958984375
0.0205078125
0.0223388671875
0.0714111328125
0.03662109375
0.117218017578125
-0.0552978515625
0.109893798828125
-0.0421142578125
-0.170684814453125
0.0172119140625
-0.244659423828125
-0.025634765625
-0.0311279296875
-0.0018310546875
-0.0245361328125
0.008056640625
-0.0380859375
0.0025634765625
-0.0333251953125
0.00146484375
-0.0091552734375
-0.0010986328125
0.035888671875
-0.0010986328125
0.0703125
0.00146484375
0.0582275390625
0.0047607421875
0.0194091796875
0.00439453125
0.000732421875
0.002197265625
-0.0018310546875
0.000732421875
0.0025634765625
0.000732421875
0.005859375
0.002197265625
0.002197265625
0.003662109375
0.0
0.003662109375
-0.006591796875
0.005126953125
-0.0029296875
0.0025634765625
0.0
-0.00146484375
0.0003662109375
0.0018310546875
0.00732421875
0.00146484375
0.00732421875
0.0091552734375
0.0
0.0069580078125
-0.0135498046875
-0.0054931640625
-0.01025390625
-0.0069580078125
-0.000732421875
0.0029296875
0.0
0.0084228515625
-0.0234375
0.0333251953125
-0.202911376953125
-0.00732421875
-0.0098876953125
-0.0399169921875
0.214263916015625
-0.0003662109375
0.0509033203125
0.0047607421875
0.008056640625
0.0032958984375
0.018310546875
0.0003662109375
0.0303955078125
0.00439453125
0.0380859375
0.0047607421875
0.025634765625
0.008056640625
-0.0303955078125
0.005126953125
-0.059326171875
-0.0032958984375
-0.0340576171875
0.0018310546875
-0.0084228515625
0.0018310546875
0.0069580078125
0.0098876953125
0.0516357421875
0.0234375
0.0985107421875
0.0347900390625
0.152374267578125
-0.0633544921875
0.041015625
-0.049072265625
-0.219757080078125
0.0380859375
-0.1812744140625
0.00146484375
-0.0289306640625
0.0047607421875
-0.022705078125
0.002197265625
-0.028564453125
0.0029296875
-0.0179443359375
0.005126953125
0.010986328125
-0.0010986328125
0.0487060546875
-0.005859375
0.0780029296875
-0.005859375
0.0545654296875
0.002197265625
0.0194091796875
0.002197265625
0.008056640625
0.0
0.0054931640625
0.00439453125
0.00439453125
0.002197265625
0.005126953125
0.0003662109375
0.003662109375
-0.0010986328125
0.002197265625
-0.0025634765625
0.0062255859375
0.0
0.0032958984375
-0.002197265625
0.00439453125
-0.0025634765625
0.0087890625
0.00146484375
0.0128173828125
0.0032958984375
0.0142822265625
0.005859375
0.0
-0.0018310546875
-0.015380859375
-0.0047607421875
-0.0135498046875
0.0003662109375
-0.0018310546875
-0.000732421875
0.0029296875
0.03955078125
-0.11865234375
0.0128173828125
-0.141357421875
-0.0457763671875
0.1102294921875
-0.0172119140625
0.158935546875
0.003662109375
0.031494140625
0.0040283203125
0.012451171875
0.0040283203125
0.017578125
0.002197265625
0.03369140625
0.0010986328125
0.03955078125
0.005126953125
0.006591796875
0.010986328125
-0.047607421875
0.005126953125
-0.0626220703125
-0.0010986328125
-0.0281982421875
0.005126953125
-0.005859375
0.009521484375
0.0029296875
0.0208740234375
0.0531005859375
0.0421142578125
0.086456298828125
0.03515625
0.131134033203125
-0.049072265625
-0.032623291015625
-0.0391845703125
-0.234405517578125
0.019775390625
-0.1256103515625
0.0040283203125
-0.0245361328125
0.005859375
-0.0260009765625
0.0040283203125
-0.0274658203125
0.0010986328125
-0.010986328125
0.0025634765625
0.0150146484375
-0.0003662109375
0.06005859375
-0.0040283203125
0.079833984375
0.0
0.0413818359375
0.0
0.0054931640625
-0.002197265625
0.003662109375
-0.002197265625
0.003662109375
0.0
-0.0010986328125
0.002197265625
-0.00146484375
0.0047607421875
0.0010986328125
0.002197265625
-0.0010986328125
-0.0032958984375
-0.000732421875
0.0003662109375
0.00439453125
0.0032958984375
-0.0003662109375
0.000732421875
0.0047607421875
-0.0025634765625
0.0135498046875
-0.00146484375
0.00732421875
0.0010986328125
-0.006591796875
-0.0032958984375
-0.00732421875
-0.003662109375
0.0032958984375
0.0
0.00146484375
-0.0029296875
0.0194091796875
0.0399169921875
-0.2032470703125
0.0032958984375
-0.0618896484375
-0.049072265625
0.2178955078125
-0.0098876953125
0.0648193359375
0.000732421875
0.0120849609375
-0.0003662109375
0.015380859375
-0.0018310546875
0.030029296875
-0.00439453125
0.041015625
-0.000732421875
0.030792236328125
0.005126953125
-0.0216064453125
0.0
-0.056427001953125
-0.01171875
-0.029296875
-0.0135498046875
0.000732421875
-0.005126953125
0.0087890625
0.0025634765625
0.038818359375
0.018310546875
0.092315673828125
0.03662109375
0.139923095703125
-0.063720703125
0.06298828125
-0.0501708984375
-0.202545166015625
0.0384521484375
-0.204010009765625
0.0018310546875
-0.0289306640625
0.0
-0.0238037109375
0.0032958984375
-0.0347900390625
0.002197265625
-0.02490234375
-0.0029296875
0.010986328125
-0.00439453125
0.0457763671875
-0.0003662109375
0.071044921875
-0.0032958984375
0.0560302734375
-0.0029296875
0.015380859375
0.005859375
0.00146484375
0.0010986328125
-0.005859375
0.000732421875
-0.003662109375
-0.0010986328125
0.0047607421875
-0.0040283203125
0.003662109375
-0.0003662109375
-0.00146484375
0.0003662109375
-0.000732421875
-0.003662109375
0.0003662109375
-0.0018310546875
-0.005859375
0.0040283203125
-0.0040283203125
0.0
0.0047607421875
-0.0018310546875
0.010986328125
-0.0003662109375
-0.0054931640625
0.0
-0.0186767578125
-0.00439453125
-0.0091552734375
-0.0040283203125
-0.0032958984375
-0.00146484375
0.008056640625
0.052001953125
-0.1483154296875
0.0135498046875
-0.1314697265625
-0.0611572265625
0.14501953125
-0.0150146484375
0.144287109375
0.0069580078125
0.0281982421875
0.005126953125
0.005126953125
0.000732421875
0.0172119140625
-0.005126953125
0.034454345703125
0.0029296875
0.037384033203125
0.009521484375
-0.000732421875
0.009521484375
-0.054962158203125
-0.000732421875
-0.054962158203125
-0.009521484375
-0.0179443359375
-0.005126953125
0.0
-0.0018310546875
0.0120849609375
0.0142822265625
0.057525634765625
0.0267333984375
0.096343994140625
0.0135498046875
0.1446533203125
-0.0450439453125
-0.064117431640625
-0.0333251953125
-0.247222900390625
0.010986328125
-0.1029052734375
0.0
-0.0223388671875
0.0029296875
-0.025634765625
0.0
-0.0303955078125
0.0029296875
-0.0120849609375
-0.0018310546875
0.0260009765625
-0.0003662109375
0.0670166015625
-0.0029296875
0.079833984375
-0.0062255859375
0.04833984375
0.00146484375
0.0113525390625
-0.00146484375
0.00439453125
0.000732421875
0.0069580078125
0.00439453125
0.0
0.002197265625
0.0047607421875
0.0032958984375
-0.0010986328125
0.005859375
-0.0113525390625
0.0025634765625
-0.00439453125
0.0142822265625
-0.0120849609375
0.0186767578125
-0.0113525390625
-0.0010986328125
0.00732421875
-0.00439453125
0.016845703125
-0.0003662109375
0.005859375
-0.00146484375
-0.0069580078125
-0.0025634765625
-0.0040283203125
-0.00732421875
0.003662109375
-0.00439453125
0.005126953125
0.022705078125
-0.071044921875
0.0142822265625
-0.15087890625
-0.025634765625
0.05419921875
-0.01904296875
0.17138671875
-0.0010986328125
0.03955078125
0.0003662109375
0.011749267578125
0.0018310546875
0.020538330078125
0.002197265625
0.0281982421875
0.0003662109375
0.0369873046875
0.0069580078125
0.0040283203125
0.0098876953125
-0.047607421875
-0.0069580078125
-0.054962158203125
-0.00732421875
-0.027862548828125
-0.002197265625
-0.00439453125
0.0032958984375
0.0010986328125
0.018310546875
0.046539306640625
0.0252685546875
0.088653564453125
0.0303955078125
0.1314697265625
-0.0487060546875
-0.02197265625
-0.03955078125
-0.231109619140625
0.0194091796875
-0.130767822265625
-0.0003662109375
-0.0208740234375
0.005859375
-0.02783203125
0.00146484375
-0.03076171875
0.0069580078125
-0.01611328125
0.006591796875
0.012451171875
-0.0010986328125
0.0596923828125
-0.005126953125
0.0714111328125
-0.000732421875
0.0384521484375
0.0
0.0098876953125
-0.002197265625
0.00146484375
-0.0003662109375
0.0003662109375
-0.0025634765625
-0.0032958984375
-0.0010986328125
0.002197265625
-0.000732421875
-0.0003662109375
-0.003662109375
-0.000732421875
-0.00439453125
0.002197265625
-0.003662109375
-0.0010986328125
-0.0047607421875
0.0029296875
-0.00732421875
0.0106201171875
-0.00732421875
0.0205078125
0.0025634765625
0.00439453125
0.0029296875
-0.0128173828125
-0.0032958984375
-0.0084228515625
-0.00439453125
0.0010986328125
-0.005859375
0.0029296875
0.0069580078125
-0.02490234375
0.032958984375
-0.1820068359375
-0.0084228515625
-0.0029296875
-0.035888671875
0.2017822265625
-0.0179443359375
0.061920166015625
-0.0289306640625
0.037750244140625
-0.025634765625
0.0450439453125
-0.0194091796875
0.047607421875
-0.013916015625
0.04833984375
-0.00439453125
0.01904296875
0.0087890625
-0.041748046875
0.0
-0.0589599609375
-0.0091552734375
-0.0252685546875
-0.005126953125
-0.0029296875
-0.002197265625
0.0003662109375
0.01025390625
0.0391845703125
0.0205078125
0.087890625
0.032958984375
0.1387939453125
-0.04833984375
-0.0040283203125
-0.0377197265625
-0.230377197265625
0.0333251953125
-0.152008056640625
0.0010986328125
-0.0281982421875
0.0018310546875
-0.0303955078125
0.0062255859375
-0.031494140625
0.0025634765625
-0.0172119140625
-0.00146484375
0.0120849609375
0.00146484375
0.05419921875
0.0003662109375
0.075836181640625
-0.00439453125
0.045440673828125
-0.00146484375
0.0062255859375
0.008056640625
-0.0040283203125
0.003662109375
0.000732421875
0.0032958984375
0.0018310546875
0.003662109375
-0.005126953125
0.00146484375
-0.005859375
0.006591796875
-0.0047607421875
-0.00146484375
-0.0054931640625
0.00146484375
-0.002197265625
0.000732421875
0.00146484375
-0.002197265625
0.0040283203125
0.0054931640625
0.0040283203125
0.0062255859375
-0.00439453125
0.0054931640625
-0.012451171875
0.0018310546875
-0.010284423828125
-0.002197265625
-0.00146484375
-0.00439453125
0.000762939453125
0.0
-0.002227783203125
0.049072265625
-0.214263916015625
0.0062255859375
-0.0406494140625
-0.041015625
0.224151611328125
0.002197265625
0.058258056640625
0.0032958984375
0.012451171875
0.0003662109375
0.0113525390625
0.0010986328125
0.025634765625
0.003662109375
0.0399169921875
0.005859375
0.02490234375
0.0106201171875
-0.03369140625
0.005126953125
-0.0648193359375
-0.005126953125
-0.0333251953125
-0.0029296875
-0.006591796875
0.0018310546875
0.0018310546875
0.009521484375
0.0263671875
0.021240234375
0.078369140625
0.038818359375
0.138427734375
-0.05859375
0.0677490234375
-0.0465087890625
-0.208404541015625
0.038818359375
-0.212066650390625
0.0
-0.0296630859375
-0.0010986328125
-0.0267333984375
0.0091552734375
-0.0333251953125
0.0062255859375
-0.0252685546875
-0.0062255859375
0.003662109375
-0.0003662109375
0.0457763671875
0.0025634765625
0.075439453125
-0.0025634765625
0.060791015625
0.000732421875
0.016845703125
0.0003662109375
0.0029296875
-0.0003662109375
-0.000732421875
0.0040283203125
-0.0003662109375
0.0032958984375
-0.0003662109375
0.003662109375
-0.0054931640625
0.0040283203125
0.0010986328125
0.00146484375
0.0018310546875
0.002197265625
-0.0029296875
0.0003662109375
-0.00439453125
0.0047607421875
-0.00439453125
0.013916015625
-0.003662109375
0.0172119140625
-0.0076904296875
0.0157470703125
-0.0179443359375
0.003662109375
-0.0135498046875
-0.00439453125
-0.0010986328125
-0.00146484375
-0.0029296875
-0.00439453125
0.028564453125
0.0596923828125
-0.2091064453125
0.0032958984375
-0.116455078125
-0.0692138671875
0.213134765625
-0.005126953125
0.1116943359375
-0.003662109375
0.034423828125
0.0025634765625
0.0084228515625
0.00732421875
0.013580322265625
-0.0040283203125
0.031890869140625
-0.002197265625
0.030029296875
0.01318359375
-0.0205078125
0.016845703125
-0.071441650390625
-0.0003662109375
-0.045806884765625
-0.005126953125
-0.0135498046875
0.000732421875
-0.005859375
0.00439453125
0.0150146484375
0.01025390625
0.076202392578125
0.028564453125
0.098541259765625
-0.01904296875
0.112060546875
-0.0369873046875
-0.114654541015625
0.0142822265625
-0.245391845703125
0.01025390625
-0.072509765625
0.0025634765625
-0.0274658203125
0.008056640625
-0.0296630859375
0.008056640625
-0.034423828125
0.005126953125
-0.015380859375
0.003662109375
0.025634765625
0.003662109375
0.0662841796875
0.000732421875
0.0703125
-0.005859375
0.0362548828125
-0.000732421875
0.0047607421875
0.003662109375
-0.00439453125
-0.005859375
0.0
-0.005859375
0.002197265625
-0.0018310546875
0.00439453125
-0.005859375
0.0113525390625
-0.0106201171875
0.01025390625
-0.002197265625
-0.0003662109375
-0.0003662109375
0.0003662109375
-0.00732421875
0.0062255859375
-0.0018310546875
0.006591796875
-0.0040283203125
0.0128173828125
-0.0040283203125
0.0076904296875
0.000732421875
-0.00732421875
-0.0087890625
-0.0018310546875
-0.0091552734375
0.0029296875
-0.0003662109375
0.00146484375
0.005859375
-0.04248046875
0.0142822265625
-0.15966796875
-0.016845703125
0.0245361328125
-0.0274658203125
0.1812744140625
-0.0040283203125
0.046142578125
0.0003662109375
0.0120849609375
0.002197265625
0.018341064453125
-0.0018310546875
0.029693603515625
-0.002197265625
0.0380859375
0.0025634765625
0.008056640625
0.0087890625
-0.050567626953125
0.0018310546875
-0.061553955078125
-0.008056640625
-0.0263671875
-0.0047607421875
-0.0069580078125
0.0010986328125
-0.0040283203125
0.0135498046875
0.041412353515625
0.02490234375
0.083160400390625
0.0263671875
0.145751953125
-0.04833984375
-0.0179443359375
-0.0377197265625
-0.247222900390625
0.01904296875
-0.138458251953125
-0.0018310546875
-0.030029296875
0.0047607421875
-0.0311279296875
0.0003662109375
-0.0318603515625
0.0025634765625
-0.019775390625
0.0010986328125
0.01025390625
-0.0029296875
0.0465087890625
0.0029296875
0.06591796875
0.0047607421875
0.0406494140625
0.0003662109375
0.0091552734375
-0.0029296875
0.00146484375
0.0003662109375
-0.0069580078125
0.0029296875
-0.0091552734375
-0.000732421875
-0.00146484375
0.0
-0.0032958984375
0.005126953125
-0.005859375
0.003662109375
-0.0018310546875
-0.003662109375
0.0003662109375
-0.003662109375
-0.002197265625
-0.00146484375
-0.003662109375
-0.0040283203125
0.0047607421875
-0.003662109375
0.0069580078125
0.0
0.0010986328125
-0.003662109375
-0.009521484375
-0.0062255859375
-0.008056640625
0.0
-0.0003662109375
-0.0010986328125
0.00732421875
0.0538330078125
-0.15380859375
0.009521484375
-0.1380615234375
-0.0626220703125
0.1446533203125
-0.01318359375
0.147216796875
0.0263671875
0.0120849609375
0.057861328125
-0.0443115234375
0.0428466796875
-0.029296875
0.019775390625
0.0091552734375
0.0146484375
0.0205078125
0.0087890625
-0.0054931640625
0.0113525390625
-0.0582275390625
0.00146484375
-0.0552978515625
-0.00732421875
-0.010986328125
-0.006591796875
0.0054931640625
-0.0029296875
0.0087890625
0.0091552734375
0.0556640625
0.0208740234375
0.100341796875
0.0135498046875
0.150177001953125
-0.0501708984375
-0.046875
-0.03662109375
-0.246490478515625
0.012451171875
-0.1142578125
-0.003662109375
-0.0216064453125
0.0010986328125
-0.0230712890625
-0.0040283203125
-0.02490234375
-0.010986328125
-0.009521484375
-0.0084228515625
0.025634765625
-0.0098876953125
0.065185546875
-0.00439453125
0.0772705078125
-0.0062255859375
0.044677734375
-0.0062255859375
0.0098876953125
-0.002197265625
0.0029296875
-0.005859375
-0.0032958984375
-0.0054931640625
0.0
-0.0029296875
0.0054931640625
-0.002197265625
0.0084228515625
-0.0084228515625
0.0098876953125
-0.002197265625
0.005126953125
-0.000732421875
0.0091552734375
-0.005126953125
0.012451171875
-0.0032958984375
0.01611328125
-0.0076904296875
0.0230712890625
-0.0010986328125
0.017578125
0.0018310546875
0.008056640625
-0.0069580078125
0.00732421875
-0.005859375
0.0106201171875
0.0
0.005859375
0.0
0.0040283203125
0.0311279296875
-0.2003173828125
-0.0062255859375
-0.0391845703125
-0.0435791015625
0.2193603515625
-0.000732421875
0.0582275390625
0.005859375
0.00732421875
0.0032958984375
0.0135498046875
0.00439453125
0.029296875
0.0018310546875
0.038848876953125
0.005859375
0.012115478515625
0.0208740234375
-0.050933837890625
0.0303955078125
-0.089752197265625
0.246124267578125
-0.284576416015625
0.340240478515625
-0.335479736328125
0.164093017578125
-0.1435546875
0.085357666015625
-0.0340576171875
0.0552978515625
0.0399169921875
0.063720703125
0.087158203125
-0.0296630859375
0.0245361328125
-0.034423828125
-0.211334228515625
0.030029296875
-0.189727783203125
-0.017578125
-0.005126953125
-0.02490234375
0.01171875
-0.0230712890625
-0.006591796875
-0.0216064453125
-0.0054931640625
-0.027099609375
0.025665283203125
-0.0274658203125
0.066680908203125
-0.00439453125
0.079833984375
0.079833984375
-0.025634765625
0.08642578125
-0.0677490234375
0.009521484375
-0.0091552734375
-0.010986328125
0.0032958984375
-0.01904296875
0.015380859375
-0.0238037109375
0.0205078125
-0.0274658203125
0.02197265625
-0.0267333984375
0.018310546875
-0.0186767578125
0.01904296875
-0.0205078125
0.018310546875
-0.0245361328125
0.01611328125
-0.023468017578125
0.021240234375
-0.028228759765625
0.029296875
-0.0267333984375
0.030029296875
-0.02197265625
0.0179443359375
-0.0223388671875
0.01171875
-0.019775390625
0.0150146484375
-0.0216064453125
0.02490234375
-0.022705078125
0.0355224609375
0.0406494140625
-0.1497802734375
-0.01904296875
-0.0948486328125
-0.0911865234375
0.1875
-0.0274658203125
0.15234375
-0.013916015625
0.0545654296875
-0.015380859375
0.0322265625
-0.0216064453125
0.040679931640625
-0.02490234375
0.053497314453125
-0.0216064453125
0.0531005859375
-0.013916015625
0.009521484375
-0.003662109375
-0.040283203125
-0.0164794921875
-0.041748046875
-0.0234375
-0.0032958984375
-0.017578125
0.0205078125
-0.01171875
0.021240234375
0.0003662109375
0.075439453125
0.0032958984375
0.1259765625
-0.032958984375
0.157470703125
-0.0406494140625
-0.1080322265625
0.0018310546875
-0.268096923828125
0.0025634765625
-0.068145751953125
-0.0098876953125
-0.005126953125
-0.01025390625
-0.006591796875
-0.0113525390625
0.00146484375
-0.0087890625
0.016510009765625
-0.0069580078125
0.036651611328125
-0.008056640625
0.0714111328125
-0.011016845703125
0.0780029296875
-0.012481689453125
0.0479736328125
-0.0128173828125
0.0157470703125
-0.0150146484375
0.0040283203125
-0.0135498046875
0.00439453125
-0.0087890625
0.00439453125
-0.00732421875
0.0040283203125
-0.00732421875
-0.000732421875
-0.0062255859375
-0.0003662109375
-0.008056640625
0.0018310546875
-0.0047607421875
0.002197265625
-0.0047607421875
0.0018310546875
-0.0128173828125
0.01025390625
-0.0076904296875
0.008056640625
-0.0040283203125
-0.00439453125
-0.00146484375
-0.0087890625
0.0018310546875
-0.0087890625
-0.0018310546875
0.002197265625
-0.0106201171875
0.02783203125
0.0556640625
-0.205108642578125
-0.0032958984375
-0.122314453125
-0.0780029296875
0.207305908203125
-0.0062255859375
0.126708984375
0.0
0.0281982421875
0.0003662109375
0.01025390625
-0.000732421875
0.0311279296875
-0.00732421875
0.049072265625
-0.0106201171875
0.046142578125
-0.0040283203125
0.005126953125
-0.0010986328125
-0.0509033203125
-0.0098876953125
-0.04248046875
-0.005859375
-0.009521484375
-0.0029296875
-0.00146484375
-0.00439453125
0.0150146484375
0.0062255859375
0.073974609375
0.018310546875
0.106231689453125
-0.0201416015625
0.134063720703125
-0.04248046875
-0.100006103515625
0.00146484375
-0.257843017578125
0.0135498046875
-0.0849609375
0.0018310546875
-0.0260009765625
0.0010986328125
-0.0296630859375
-0.0062255859375
-0.022705078125
-0.0106201171875
-0.005859375
-0.009521484375
0.0234375
-0.003662109375
0.064453125
-0.0018310546875
0.0670166015625
-0.00146484375
0.0322265625
-0.000732421875
0.005126953125
-0.0003662109375
0.0029296875
0.0010986328125
0.000732421875
-0.0025634765625
-0.0003662109375
-0.0047607421875
0.0029296875
-0.0025634765625
0.0040283203125
-0.002197265625
-0.0025634765625
0.0
-0.00439453125
0.0018310546875
0.0003662109375
0.0
-0.0029296875
-0.003662109375
0.0076904296875
0.0
0.0010986328125
0.0040283203125
-0.013916015625
-0.005859375
-0.0087890625
0.000732421875
-0.0087890625
0.006591796875
-0.005859375
-0.009521484375
0.031494140625
0.057861328125
-0.205474853515625
0.010986328125
-0.107666015625
-0.0615234375
0.202911376953125
-0.0018310546875
0.084228515625
0.0135498046875
0.00732421875
0.0098876953125
0.0040283203125
-0.000732421875
0.02197265625
0.0003662109375
0.0384521484375
-0.003662109375
0.0322265625
0.0025634765625
-0.0205078125
0.0084228515625
-0.063720703125
0.0010986328125
-0.0494384765625
0.0018310546875
-0.01611328125
0.0018310546875
-0.0047607421875
0.0054931640625
0.02197265625
0.0113525390625
0.082763671875
0.018310546875
0.133697509765625
-0.0538330078125
0.130035400390625
-0.030029296875
-0.175811767578125
0.0428466796875
-0.268096923828125
0.0084228515625
-0.0450439453125
0.0
-0.021240234375
0.00146484375
-0.02783203125
0.0
-0.0186767578125
-0.006591796875
-0.000732421875
-0.005126953125
0.03662109375
-0.0018310546875
0.0714111328125
-0.00439453125
0.0648193359375
-0.0054931640625
0.034423828125
-0.0010986328125
0.0069580078125
-0.00146484375
0.0018310546875
-0.0003662109375
0.0010986328125
-0.0010986328125
0.0003662109375
-0.0025634765625
-0.0010986328125
-0.005126953125
0.002197265625
0.0
0.005126953125
0.003662109375
-0.002197265625
-0.0032958984375
0.002197265625
-0.006591796875
0.003662109375
-0.00439453125
0.010986328125
-0.0062255859375
0.0135498046875
-0.0069580078125
0.00439453125
-0.005126953125
0.0
-0.0098876953125
0.0025634765625
-0.005859375
0.002197265625
-0.0087890625
0.0333251953125
0.0714111328125
-0.212066650390625
0.003662109375
-0.1219482421875
-0.0831298828125
0.220855712890625
-0.008056640625
0.1160888671875
-0.0010986328125
0.029296875
0.00146484375
0.0128173828125
0.000732421875
0.01904296875
-0.002197265625
0.041748046875
-0.0047607421875
0.040283203125
0.003662109375
-0.0120849609375
0.009521484375
-0.066650390625
0.00146484375
-0.0596923828125
0.00439453125
-0.02490234375
0.00439453125
-0.005126953125
0.0047607421875
0.01318359375
0.0150146484375
0.06884765625
0.024169921875
0.113189697265625
-0.0205078125
0.149078369140625
-0.0303955078125
-0.117950439453125
0.01171875
-0.275787353515625
0.0087890625
-0.0791015625
0.0087890625
-0.0281982421875
0.009521484375
-0.0311279296875
0.0047607421875
-0.0289306640625
0.0032958984375
-0.01171875
-0.000732421875
0.030029296875
-0.0010986328125
0.064453125
0.0025634765625
0.065185546875
0.00146484375
0.035888671875
-0.0003662109375
0.00732421875
0.0025634765625
0.0120849609375
0.000732421875
0.0098876953125
-0.0025634765625
0.003662109375
-0.00732421875
0.0010986328125
0.0
0.0018310546875
0.0029296875
0.0084228515625
-0.006591796875
0.005126953125
-0.0003662109375
0.0
0.0025634765625
0.0029296875
-0.0010986328125
0.0087890625
0.0029296875
0.0029296875
0.009521484375
-0.0029296875
0.0018310546875
-0.01025390625
-0.0047607421875
-0.010986328125
-0.000732421875
-0.0010986328125
0.00146484375
0.0018310546875
0.0479736328125
-0.1278076171875
0.0032958984375
-0.1226806640625
-0.0516357421875
0.1146240234375
-0.0025634765625
0.134765625
0.0076904296875
0.025634765625
0.0025634765625
0.00732421875
0.0
0.0172119140625
-0.0040283203125
0.0325927734375
-0.008056640625
0.0465087890625
0.000732421875
-0.000732421875
0.0098876953125
-0.0611572265625
0.000732421875
-0.0574951171875
-0.005126953125
-0.025634765625
-0.00439453125
-0.002197265625
0.000732421875
0.008056640625
0.01318359375
0.0633544921875
0.021240234375
0.106231689453125
-0.0091552734375
0.136993408203125
-0.030029296875
-0.091583251953125
0.0062255859375
-0.264801025390625
0.0157470703125
-0.097412109375
0.00732421875
-0.0274658203125
0.010986328125
-0.0311279296875
0.009521484375
-0.0333251953125
0.00439453125
-0.0106201171875
0.000732421875
0.0303955078125
-0.0018310546875
0.0552978515625
-0.00439453125
0.0589599609375
-0.0010986328125
0.032958984375
0.00146484375
0.002197265625
0.0018310546875
0.0
-0.0003662109375
0.0040283203125
-0.0010986328125
0.00146484375
0.0
-0.0025634765625
0.0
0.000732421875
0.0029296875
-0.0025634765625
0.00146484375
-0.0025634765625
-0.005859375
0.0054931640625
0.000732421875
0.0018310546875
0.0062255859375
0.0047607421875
-0.000732421875
0.0076904296875
0.0032958984375
-0.00146484375
0.0084228515625
-0.013916015625
-0.00439453125
-0.0062255859375
-0.0069580078125
0.002197265625
0.003662109375
-0.00146484375
0.0029296875
-0.000732421875
0.0322265625
-0.200347900390625
-0.0084228515625
-0.0322265625
-0.0457763671875
0.225616455078125
-0.0018310546875
0.0677490234375
0.0018310546875
0.0150146484375
0.00146484375
0.0128173828125
0.0003662109375
0.0274658203125
-0.00146484375
0.0439453125
0.0025634765625
0.0263671875
0.01025390625
-0.0322265625
0.005859375
-0.0633544921875
-0.006591796875
-0.0325927734375
-0.0040283203125
-0.0010986328125
-0.0018310546875
0.0018310546875
0.0054931640625
0.03369140625
0.0150146484375
0.0911865234375
0.02197265625
0.160064697265625
-0.0560302734375
0.054595947265625
-0.0274658203125
-0.238800048828125
0.041748046875
-0.205108642578125
-0.0003662109375
-0.0267333984375
0.0010986328125
-0.027099609375
0.00146484375
-0.0318603515625
0.0025634765625
-0.022705078125
-0.0029296875
0.0047607421875
-0.0047607421875
0.040283203125
-0.0047607421875
0.0802001953125
-0.0087890625
0.069580078125
0.0018310546875
0.0216064453125
0.0010986328125
0.005859375
-0.0018310546875
0.0010986328125
0.0018310546875
-0.002197265625
-0.0040283203125
-0.000732421875
0.0
0.0
0.002197265625
0.000732421875
-0.0003662109375
0.0010986328125
0.0010986328125
0.0047607421875
0.0018310546875
0.005859375
0.0003662109375
0.00439453125
-0.005126953125
0.0135498046875
-0.000732421875
0.01025390625
0.00732421875
-0.0062255859375
-0.0010986328125
-0.0087890625
-0.008056640625
-0.0025634765625
-0.00439453125
0.00146484375
-0.00732421875
0.03662109375
0.05859375
-0.225616455078125
0.000732421875
-0.098876953125
-0.0648193359375
0.236968994140625
0.0025634765625
0.0926513671875
0.0032958984375
0.0164794921875
0.002197265625
0.0076904296875
0.0047607421875
0.0216064453125
0.00146484375
0.0380859375
-0.0032958984375
0.0362548828125
0.0032958984375
-0.018310546875
0.0062255859375
-0.054931640625
-0.000732421875
-0.0413818359375
-0.0040283203125
-0.01171875
-0.003662109375
0.0076904296875
0.003662109375
0.0380859375
0.0091552734375
0.097076416015625
0.0205078125
0.122711181640625
-0.052734375
0.123046875
-0.02783203125
-0.149810791015625
0.0421142578125
-0.252349853515625
0.0003662109375
-0.049072265625
0.0069580078125
-0.027099609375
0.0029296875
-0.03515625
-0.0025634765625
-0.0281982421875
0.002197265625
-0.010986328125
-0.0032958984375
0.0303955078125
0.0029296875
0.06591796875
-0.0010986328125
0.056396484375
-0.005859375
0.0252685546875
0.00146484375
0.0010986328125
0.00146484375
-0.0047607421875
0.000732421875
0.005859375
0.0029296875
0.005126953125
0.0
-0.0003662109375
-0.0054931640625
0.000732421875
0.0047607421875
0.002197265625
-0.0010986328125
0.000732421875
-0.0054931640625
-0.0040283203125
-0.0032958984375
0.0029296875
-0.0010986328125
0.0062255859375
0.0032958984375
0.0076904296875
0.0018310546875
0.00146484375
-0.000732421875
-0.0091552734375
-0.0029296875
-0.0047607421875
-0.0032958984375
0.003662109375
-0.006591796875
0.013916015625
0.0677490234375
-0.175048828125
0.0076904296875
-0.1094970703125
-0.0673828125
0.1717529296875
-0.0018310546875
0.111328125
0.000732421875
0.019775390625
-0.002197265625
0.01025390625
-0.0018310546875
0.0157470703125
-0.000732421875
0.028564453125
0.0018310546875
0.0289306640625
0.0029296875
-0.00732421875
0.0069580078125
-0.057861328125
-0.002197265625
-0.05712890625
-0.0040283203125
-0.02197265625
0.0025634765625
-0.005859375
0.005126953125
0.0106201171875
0.0128173828125
0.07177734375
0.017578125
0.122711181640625
-0.0377197265625
0.145782470703125
-0.029296875
-0.136627197265625
0.0296630859375
-0.282379150390625
0.0106201171875
-0.0750732421875
-0.0018310546875
-0.025634765625
0.003662109375
-0.0281982421875
0.0091552734375
-0.0263671875
-0.003662109375
-0.0047607421875
-0.008056640625
0.0311279296875
-0.0003662109375
0.0611572265625
-0.0025634765625
0.0648193359375
-0.00439453125
0.0325927734375
-0.00439453125
0.0062255859375
-0.0047607421875
0.0018310546875
0.0010986328125
-0.0040283203125
0.0047607421875
-0.005859375
-0.0003662109375
0.0032958984375
-0.00439453125
0.00146484375
0.005126953125
-0.0047607421875
0.0029296875
-0.000732421875
-0.0032958984375
-0.003662109375
0.0
-0.0040283203125
-0.0018310546875
0.0076904296875
0.00146484375
0.0076904296875
0.0040283203125
-0.0032958984375
-0.0032958984375
-0.0087890625
-0.003662109375
-0.01025390625
-0.0025634765625
0.00146484375
-0.00439453125
0.0087890625
0.059326171875
-0.1669921875
0.005859375
-0.125244140625
-0.0699462890625
0.1614990234375
-0.0098876953125
0.1453857421875
0.008056640625
0.0340576171875
0.000732421875
0.0098876953125
0.000732421875
0.01611328125
0.000732421875
0.0311279296875
0.00146484375
0.0322265625
0.00146484375
-0.0003662109375
0.0076904296875
-0.056396484375
0.0032958984375
-0.057861328125
-0.01025390625
-0.0172119140625
-0.0003662109375
-0.005126953125
0.0069580078125
0.0025634765625
0.0084228515625
0.0604248046875
0.0172119140625
0.115020751953125
-0.0120849609375
0.161529541015625
-0.034423828125
-0.098541259765625
0.0040283203125
-0.283477783203125
0.01611328125
-0.0941162109375
0.00146484375
-0.0252685546875
0.003662109375
-0.032958984375
0.002197265625
-0.028564453125
-0.002197265625
-0.01171875
0.000732421875
0.022705078125
0.0
0.0648193359375
-0.0062255859375
0.0758056640625
-0.0040283203125
0.0450439453125
0.002197265625
0.00439453125
0.0003662109375
-0.002197265625
-0.0032958984375
0.0
-0.002197265625
-0.0010986328125
-0.0003662109375
-0.0003662109375
0.0029296875
-0.0018310546875
-0.0010986328125
0.0003662109375
-0.0003662109375
-0.002197265625
0.005126953125
-0.0047607421875
0.00146484375
-0.0029296875
-0.005126953125
0.00732421875
0.0018310546875
0.00439453125
0.0091552734375
-0.0106201171875
-0.00439453125
-0.0087890625
-0.0076904296875
-0.002197265625
-0.003662109375
-0.002197265625
-0.009521484375
0.0333251953125
0.05859375
-0.197052001953125
0.0032958984375
-0.10546875
-0.064453125
0.202545166015625
0.003662109375
0.0889892578125
0.0106201171875
0.0135498046875
0.0010986328125
0.0062255859375
-0.0010986328125
0.0205078125
0.00146484375
0.0355224609375
0.005859375
0.0281982421875
0.0128173828125
-0.0186767578125
0.01025390625
-0.0556640625
0.0018310546875
-0.041748046875
-0.0076904296875
-0.0091552734375
-0.0032958984375
0.0047607421875
0.006591796875
0.0252685546875
0.00439453125
0.0867919921875
0.017578125
0.129302978515625
-0.0531005859375
0.117584228515625
-0.02197265625
-0.171417236328125
0.0487060546875
-0.255279541015625
0.0010986328125
-0.041015625
-0.0003662109375
-0.0194091796875
0.0
-0.028564453125
0.003662109375
-0.022705078125
-0.000732421875
-0.005126953125
-0.0047607421875
0.031494140625
-0.005126953125
0.06884765625
-0.0062255859375
0.060791015625
0.0
0.021240234375
0.0029296875
-0.000732421875
-0.0029296875
0.003662109375
-0.002197265625
-0.0003662109375
0.0003662109375
-0.00146484375
0.005859375
-0.005859375
0.01025390625
-0.006591796875
0.00439453125
0.0003662109375
-0.0010986328125
0.0
-0.003662109375
0.000732421875
0.002197265625
-0.00146484375
0.0003662109375
0.0047607421875
-0.0025634765625
0.0054931640625
0.0040283203125
-0.0113525390625
0.0018310546875
-0.013916015625
-0.00439453125
-0.002197265625
-0.0032958984375
0.0047607421875
-0.00439453125
0.0281982421875
0.0662841796875
-0.222320556640625
-0.0029296875
-0.112060546875
-0.0794677734375
0.215728759765625
0.003662109375
0.0919189453125
0.0135498046875
0.01611328125
-0.0029296875
0.01025390625
-0.008056640625
0.027099609375
0.002197265625
0.0362548828125
0.00146484375
0.02490234375
0.003662109375
-0.0157470703125
0.0087890625
-0.0618896484375
-0.000732421875
-0.0516357421875
-0.00439453125
-0.0179443359375
-0.0010986328125
-0.006591796875
0.0032958984375
0.017578125
0.008056640625
0.0897216796875
0.0146484375
0.136993408203125
-0.0487060546875
0.134796142578125
-0.0150146484375
-0.166290283203125
0.041748046875
-0.273590087890625
-0.0025634765625
-0.046875
-0.0003662109375
-0.0172119140625
0.003662109375
-0.02783203125
0.003662109375
-0.0260009765625
-0.0025634765625
-0.002197265625
-0.003662109375
0.03515625
-0.003662109375
0.065185546875
-0.002197265625
0.0732421875
0.0003662109375
0.041748046875
0.0040283203125
0.0091552734375
-0.0010986328125
0.003662109375
-0.00732421875
-0.0003662109375
-0.0040283203125
-0.00146484375
-0.003662109375
-0.0047607421875
-0.0025634765625
-0.003662109375
-0.0010986328125
-0.0076904296875
0.0010986328125
-0.0018310546875
0.0003662109375
0.0146484375
0.000732421875
0.00732421875
-0.0003662109375
0.0106201171875
-0.0040283203125
0.0098876953125
0.0018310546875
-0.0069580078125
-0.00146484375
-0.0040283203125
-0.005859375
-0.0003662109375
-0.0003662109375
0.0018310546875
-0.0010986328125
0.021240234375
0.069580078125
-0.192657470703125
0.00439453125
-0.1219482421875
-0.076171875
0.202545166015625
-0.00439453125
0.1417236328125
0.0087890625
0.0362548828125
0.0084228515625
0.0172119140625
0.0084228515625
0.0263671875
-0.0069580078125
0.052734375
-0.0025634765625
0.0498046875
0.009521484375
-0.0098876953125
0.006591796875
-0.0626220703125
0.0084228515625
-0.0391845703125
-0.0054931640625
0.00732421875
-0.01025390625
0.022705078125
0.00146484375
0.0281982421875
0.008056640625
0.078399658203125
0.01025390625
0.136260986328125
-0.0194091796875
0.1842041015625
-0.0322265625
-0.085693359375
0.003662109375
-0.279083251953125
0.010986328125
-0.095977783203125
0.0025634765625
-0.0391845703125
0.0029296875
-0.0377197265625
-0.000732421875
-0.029296875
-0.005126953125
-0.006591796875
-0.005859375
0.027099609375
-0.00439453125
0.043212890625
-0.005126953125
0.0333251953125
-0.0076904296875
-0.0047607421875
0.0025634765625
0.0025634765625
0.010986328125
0.015380859375
0.0003662109375
0.002197265625
-0.0087890625
-0.00146484375
-0.0054931640625
-0.0032958984375
0.0
0.017578125
0.008056640625
0.025634765625
0.0054931640625
0.02197265625
-0.00439453125
0.042144775390625
0.008056640625
0.076202392578125
0.01611328125
0.05419921875
0.0128173828125
0.0113525390625
0.0120849609375
-0.0120849609375
-0.0032958984375
-0.0098876953125
-0.013916015625
0.0142822265625
0.0076904296875
-0.003662109375
0.018310546875
-0.016845703125
0.005126953125
-0.02783203125
0.0120849609375
-0.173614501953125
-0.0120849609375
-0.0003662109375
-0.016845703125
0.188995361328125
0.006591796875
0.0435791015625
-0.0142822265625
0.02490234375
-0.009521484375
0.0303955078125
0.0
0.0369873046875
-0.0029296875
0.052001953125
-0.0025634765625
0.0223388671875
-0.003662109375
-0.0380859375
-0.0040283203125
-0.06005859375
-0.002197265625
-0.040283203125
0.006591796875
-0.0208740234375
0.003662109375
-0.009521484375
0.0069580078125
0.0406494140625
0.00439453125
0.0933837890625
-0.0142822265625
0.1658935546875
-0.052001953125
-0.016845703125
0.0029296875
-0.285308837890625
0.057861328125
-0.190826416015625
0.018310546875
-0.060791015625
0.0062255859375
-0.0355224609375
-0.01611328125
-0.0238037109375
-0.0355224609375
0.006591796875
-0.0692138671875
0.076171875
-0.03955078125
0.0750732421875
0.0146484375
0.047637939453125
0.0263671875
0.021636962890625
0.0494384765625
-0.028228759765625
0.0439453125
-0.025665283203125
0.0501708984375
-0.0186767578125
0.032958984375
0.017242431640625
-0.0333251953125
0.080963134765625
-0.0758056640625
0.0780029296875
-0.157501220703125
0.1102294921875
-0.272125244140625
0.206573486328125
-0.2464599609375
0.190460205078125
-0.06884765625
0.0296630859375
0.0333251953125
-0.0655517578125
0.08935546875
-0.108428955078125
0.0750732421875
-0.093048095703125
0.0128173828125
-0.0439453125
0.008056640625
-0.0318603515625
-0.0157470703125
0.0
-0.005859375
-0.0018310546875
-0.052734375
0.06591796875
0.0263671875
-0.167022705078125
-0.0025634765625
-0.123046875
-0.0765380859375
0.197418212890625
0.0355224609375
0.0736083984375
0.068115234375
-0.0465087890625
0.0750732421875
-0.0574951171875
-0.0142822265625
0.0399169921875
-0.03076171875
0.0772705078125
0.017578125
0.022705078125
0.0318603515625
-0.03076171875
0.0626220703125
-0.1109619140625
0.084228515625
-0.139892578125
0.118682861328125
-0.140655517578125
0.108062744140625
-0.119781494140625
0.10107421875
-0.0845947265625
0.0765380859375
0.00146484375
0.064453125
0.103271484375
0.0128173828125
0.169586181640625
0.0355224609375
-0.1732177734375
0.098175048828125
-0.363677978515625
0.0179443359375
-0.090484619140625
-0.002593994140625
-0.027862548828125
-0.000732421875
-0.04833984375
-0.0091552734375
-0.0377197265625
-0.019775390625
-0.0010986328125
-0.0010986328125
0.0201416015625
0.065948486328125
-0.00439453125
0.101104736328125
-0.0560302734375
0.041015625
-0.0369873046875
-0.041015625
0.0164794921875
-0.034423828125
0.015380859375
-0.0201416015625
0.0054931640625
0.0054931640625
-0.0113525390625
0.0406494140625
-0.0377197265625
0.0216064453125
-0.018310546875
-0.010986328125
0.018310546875
-0.0377197265625
0.0252685546875
-0.0369873046875
0.0245361328125
-0.0252685546875
0.0084228515625
-0.0087890625
0.0010986328125
-0.015777587890625
0.012451171875
-0.029327392578125
0.0205078125
-0.016845703125
0.0069580078125
-0.0157470703125
0.0010986328125
-0.0098876953125
0.016845703125
-0.0135498046875
0.0281982421875
-0.018310546875
0.048370361328125
0.0347900390625
-0.2149658203125
-0.01025390625
-0.069244384765625
-0.056396484375
0.244293212890625
-0.006591796875
0.084259033203125
-0.008056640625
0.0318603515625
0.0047607421875
0.0146484375
0.0087890625
0.0281982421875
-0.0205078125
0.078369140625
0.0025634765625
0.0684814453125
0.0194091796875
-0.01171875
-0.005859375
-0.0703125
-0.010986328125
-0.0633544921875
-0.0164794921875
-0.013916015625
-0.0098876953125
0.006591796875
-0.009521484375
0.027099609375
-0.005859375
0.101806640625
0.002197265625
0.16845703125
-0.06884765625
0.0955810546875
-0.018310546875
-0.2244873046875
0.0450439453125
-0.1512451171875
-0.01025390625
0.0816650390625
-0.0142822265625
0.0186767578125
-0.000732421875
-0.0084228515625
0.000732421875
-0.0252685546875
-0.005859375
0.0018310546875
-0.0091552734375
0.0413818359375
-0.009521484375
0.0728759765625
0.005126953125
0.0501708984375
-0.0029296875
0.0135498046875
-0.0010986328125
-0.0018310546875
0.0
-0.006591796875
0.0003662109375
0.0018310546875
0.000732421875
-0.002197265625
-0.00439453125
0.0018310546875
-0.0062255859375
0.0018310546875
-0.0113525390625
-0.0029296875
-0.0164794921875
-0.0003662109375
0.0032958984375
-0.01611328125
0.02490234375
-0.0069580078125
0.022705078125
0.041015625
0.1014404296875
0.06591796875
0.57537841796875
-0.813079833984375
-0.854095458984375
-0.844207763671875
-1.0
0.0
0.0
0.0
0.0
1.0
-0.0003662109375
1.0
0.0003662109375
0.0
0.0003662109375
0.0003662109375
-0.0003662109375
0.0003662109375
0.0
0.0
0.0
0.0
0.0
0.0
0.0
-0.0003662109375
0.0
-0.0003662109375
1.0
-1.0
0.0
-1.0
-1.0
0.0
0.0
0.0
0.0
0.0
0.0
0.0
0.0
0.0
0.0003662109375
0.0
0.0
0.0
-0.0003662109375
0.0
0.0
0.0
0.0
0.0
0.0
0.0
0.0
0.0
0.0
1.0
0.0
1.0
0.0
0.000732421875
0.0
0.0003662109375
0.0
0.0
0.0
0.0
0.0
0.0003662109375
0.0
0.0
0.0
-0.0003662109375
0.0
0.0
0.002197265625
-1.0
1.0
-1.0
1.0
0.0
0.0003662109375
0.0
0.0
0.0
0.0003662109375
0.0
0.0
0.0003662109375
-0.0003662109375
0.0
0.0
0.0
0.0003662109375
0.0
0.0
0.0
-1.0
0.727020263671875
-1.0
1.0
-0.32635498046875
0.767303466796875
0.251983642578125
-1.0
1.0
-1.0
1.0
-0.37469482421875
-1.0
0.864349365234375
-1.0
1.0
-0.164825439453125
0.629974365234375
0.0
0.0003662109375
0.0
0.0003662109375
0.0
-0.0003662109375
0.0
-0.0003662109375
0.0
0.0003662109375
0.0
0.0003662109375
0.0
0.0
0.0
0.0
0.0
0.0
0.0
0.0
0.0003662109375
0.0
0.0
0.0
-0.0003662109375
-1.0
0.0
-1.0
0.0
-0.038116455078125
1.0
0.0003662109375
1.0
0.0003662109375
0.0003662109375
0.0
0.0
0.0
0.0
0.0
0.0
0.0
0.0
0.0
0.0
0.0
0.0003662109375
-0.0003662109375
0.0003662109375
-0.0003662109375
-0.0003662109375
0.0003662109375
-0.0003662109375
0.0003662109375
0.0003662109375
0.0
0.0
0.0
-1.0
-0.0003662109375
-1.0
1.0
0.0003662109375
1.0
0.0003662109375
-0.00439453125
-0.0003662109375
0.0
-0.0003662109375
0.0
0.0
0.0
0.0
-0.0003662109375
0.0
0.0003662109375
0.0
0.0003662109375
0.0003662109375
0.0
0.0
-0.0003662109375
-0.0003662109375
0.0
0.0
0.0003662109375
0.0003662109375
0.0
0.0
0.0
-0.0003662109375
0.0
0.0
-0.0003662109375
0.0
0.0
0.0
0.0003662109375
0.0
0.0
0.0
0.0
0.0
0.0
0.0
0.0
0.0
0.0
0.0
0.0
0.0
0.0
0.0
0.0
0.0
0.0
0.0
-0.0003662109375
0.0
0.0
0.0
0.0003662109375
0.0003662109375
0.0
0.0
0.0
-0.0003662109375
0.0
0.0
0.0
1.0
0.000732421875
1.0
0.000732421875
0.0003662109375
0.0
0.0
0.0
0.0
0.0
0.0
0.0
-1.0
-0.000732421875
-1.0
-1.0
0.000732421875
-1.0
0.0
0.133331298828125
-0.0003662109375
0.187896728515625
1.0
-0.135894775390625
1.0
-0.187530517578125
0.0
0.0
0.0
-0.0003662109375
0.0003662109375
-0.0003662109375
0.0003662109375
0.0003662109375
-1.0
0.0
-1.0
1.0
0.0003662109375
1.0
-0.0003662109375
0.238433837890625
0.0003662109375
0.0
0.0
0.0
-0.0003662109375
0.0003662109375
0.0
-0.0003662109375
0.0
0.0
1.0
-1.0
1.0
-1.0
0.000732421875
0.0003662109375
0.0
0.0
0.0
0.0
-1.0
1.0
-1.0
1.0
0.0
0.000732421875
0.0
0.0
1.0
0.000732421875
0.192291259765625
-0.194122314453125
-1.0
-1.0
-0.192291259765625
-1.0
1.0
1.0
1.0
1.0
-0.0032958984375
-0.00439453125
0.0
0.0
-1.0
-0.0003662109375
-1.0
-0.000732421875
0.0
0.0
0.0
0.0
0.0
-0.0003662109375
0.0
0.0003662109375
0.0
0.0003662109375
0.0
0.0
1.0
-1.0
1.0
-1.0
0.0003662109375
0.0
0.0
-0.0003662109375
0.0
0.0
0.0003662109375
0.0
0.0
0.0
0.0
0.0003662109375
0.0
0.0
0.0
-0.0003662109375
0.0
-0.0003662109375
0.0
0.0003662109375
0.0003662109375
0.0003662109375
-0.0003662109375
0.0
0.0
-0.0003662109375
0.0003662109375
0.0
0.0
0.0003662109375
-0.0003662109375
0.0
0.0
0.0
0.0003662109375
0.0
-0.0003662109375
0.0
-0.0003662109375
-0.0003662109375
0.0
0.0
0.0
0.0003662109375
0.0
0.0
0.0
-0.0003662109375
0.0
-0.0003662109375
0.0003662109375
0.0003662109375
0.0
0.0003662109375
0.0
0.0
0.0
0.0
0.0
0.0
0.0
0.0
0.0
-0.0003662109375
0.0
0.0
-0.0003662109375
0.0
0.0
-0.0003662109375
0.0003662109375
0.0
0.0003662109375
0.0
-0.0003662109375
0.0003662109375
-0.0003662109375
0.0003662109375
0.0003662109375
0.0
0.0003662109375
0.0
0.0
0.0
0.0
-0.0003662109375
-0.0003662109375
-0.0003662109375
-0.0003662109375
0.0003662109375
0.0
0.0
0.0003662109375
-0.0003662109375
0.0003662109375
0.0003662109375
0.0
0.0003662109375
0.0
0.0
0.0
0.0
0.0
-0.0003662109375
0.0
0.0
0.0
0.0003662109375
0.0
-0.0003662109375
0.0
0.0
-0.0003662109375
0.0003662109375
-0.0003662109375
-0.0003662109375
0.0
-0.0003662109375
0.0003662109375
0.0
0.0
0.0003662109375
0.0
0.0
0.0003662109375
-0.0003662109375
0.0
0.0003662109375
0.0
0.0003662109375
-0.0003662109375
-0.0003662109375
-0.0003662109375
0.0
0.0
0.0
0.0
0.0
0.0
0.0
0.0
0.0
-0.0252685546875
0.0003662109375
-0.067047119140625
0.0
-0.060821533203125
0.053497314453125
-0.0933837890625
0.143218994140625
-0.0501708984375
0.072509765625
-0.123046875
0.1343994140625
-0.194122314453125
0.194091796875
-0.154205322265625
0.106597900390625
-0.100341796875
-0.000732421875
0.010986328125
-0.096343994140625
-0.087158203125
0.269561767578125
-0.0413818359375
0.295196533203125
0.065185546875
-0.012451171875
0.107666015625
-0.08203125
0.0325927734375
0.0
0.0296630859375
0.0040283203125
0.126739501953125
-0.10546875
0.035552978515625
-0.05859375
-0.0054931640625
-0.0640869140625
-0.031524658203125
-0.03662109375
0.053466796875
-0.084228515625
0.034088134765625
-0.041015625
0.047607421875
-0.047637939453125
0.157470703125
-0.162261962890625
0.0765380859375
-0.087890625
-0.035888671875
0.0230712890625
-0.0897216796875
0.075439453125
0.0113525390625
-0.017578125
-0.0025634765625
-0.0029296875
-0.0029296875
-0.00146484375
0.021240234375
-0.0245361328125
0.024169921875
-0.03515625
0.0435791015625
-0.054931640625
0.00146484375
-0.01318359375
0.03662109375
-0.03955078125
-0.0172119140625
0.0164794921875
-0.0281982421875
0.0230712890625
-0.082763671875
0.0732421875
-0.0963134765625
0.0919189453125
-0.109893798828125
0.244659423828125
-0.0765380859375
0.077301025390625
0.038116455078125
-0.205108642578125
-0.023834228515625
-0.022735595703125
-0.008056640625
0.0010986328125
-0.05419921875
0.042144775390625
-0.041412353515625
0.0091552734375
-0.029296875
-0.0069580078125
-0.0450439453125
0.023834228515625
-0.0106201171875
0.034423828125
-0.0355224609375
0.0882568359375
0.017578125
0.018310546875
-0.021240234375
0.0252685546875
-0.01611328125
0.0120849609375
-0.05126953125
0.005859375
-0.060791015625
-0.0333251953125
-0.0494384765625
-0.1007080078125
-0.0399169921875
0.022705078125
0.002197265625
0.2354736328125
-0.0567626953125
0.221588134765625
-0.010986328125
0.035552978515625
-0.064483642578125
0.0860595703125
-0.050567626953125
0.0743408203125
-0.0281982421875
0.046875
-0.04541015625
0.0435791015625
-0.0267333984375
-0.01025390625
-0.0750732421875
-0.0018310546875
-0.018310546875
-0.040283203125
-0.0333251953125
0.0164794921875
-0.0018310546875
0.0025634765625
-0.032958984375
0.0369873046875
-0.084228515625
0.0831298828125
-0.078369140625
0.0802001953125
-0.083892822265625
0.0845947265625
-0.024932861328125
0.025634765625
-0.0721435546875
0.069976806640625
-0.0523681640625
0.053131103515625
-0.091552734375
0.093017578125
-0.0604248046875
0.0604248046875
-0.02197265625
0.017578125
-0.0267333984375
0.0128173828125
0.0281982421875
-0.03369140625
0.005859375
0.0032958984375
0.0487060546875
-0.0413818359375
0.0029296875
-0.0076904296875
0.034423828125
-0.046875
-0.01611328125
0.132568359375
-0.016845703125
0.10400390625
0.0765380859375
-0.20068359375
0.027099609375
-0.1343994140625
0.0362548828125
-0.060089111328125
-0.024169921875
0.01171875
0.005126953125
-0.025634765625
-0.0003662109375
-0.033721923828125
0.0318603515625
-0.0677490234375
0.0428466796875
-0.0472412109375
-0.0091552734375
0.04833984375
0.013916015625
0.0369873046875
-0.0245361328125
0.04541015625
0.025634765625
-0.0245361328125
-0.0047607421875
-0.0091552734375
0.019073486328125
-0.0882568359375
0.02783203125
-0.1409912109375
0.0362548828125
-0.189727783203125
0.063018798828125
0.030029296875
-0.010986328125
0.277252197265625
0.01611328125
0.0721435546875
-0.0062255859375
0.0216064453125
0.0377197265625
-0.015380859375
0.02783203125
-0.0018310546875
0.0322265625
-0.016845703125
0.037353515625
-0.0479736328125
0.0018310546875
-0.0574951171875
0.0340576171875
-0.1058349609375
-0.005859375
-0.0325927734375
0.0362548828125
-0.038818359375
0.0135498046875
-0.013916015625
0.0560302734375
-0.0552978515625
0.0794677734375
-0.075439453125
0.067779541015625
-0.062286376953125
0.0758056640625
-0.065948486328125
0.0106201171875
-0.006591796875
0.035552978515625
-0.0340576171875
0.003662109375
-0.0040283203125
0.043212890625
-0.0391845703125
0.0201416015625
-0.01904296875
0.00146484375
-0.009521484375
-0.005126953125
0.0010986328125
-0.0318603515625
0.041015625
0.0216064453125
-0.00732421875
-0.010986328125
0.01611328125
0.025634765625
-0.019775390625
-0.010986328125
0.0406494140625
-0.008056640625
0.131500244140625
0.0377197265625
-0.0472412109375
0.035888671875
-0.168487548828125
0.0164794921875
-0.043212890625
-0.0362548828125
0.0311279296875
0.008056640625
-0.015380859375
-0.01025390625
-0.015380859375
0.0179443359375
-0.052734375
-0.01025390625
-0.00439453125
-0.03662109375
0.064453125
-0.02490234375
0.0791015625
-0.0421142578125
0.0703125
-0.0025634765625
0.0047607421875
-0.042877197265625
0.038818359375
-0.0201416015625
-0.03076171875
-0.0443115234375
-0.052001953125
-0.025299072265625
-0.1292724609375
0.0128173828125
-0.008056640625
-0.0120849609375
0.256744384765625
-0.028564453125
0.162628173828125
-0.0787353515625
0.0816650390625
-0.062255859375
0.0743408203125
-0.101806640625
0.1182861328125
-0.0380859375
0.052734375
-0.0150146484375
0.006591796875
-0.0120849609375
-0.03369140625
-0.0135498046875
-0.0574951171875
-0.0721435546875
0.0172119140625
-0.0062255859375
-0.0069580078125
-0.0146484375
0.0142822265625
0.02783203125
-0.0260009765625
-0.00732421875
0.0084228515625
-0.01171875
0.012451171875
-0.026031494140625
0.024169921875
-0.144683837890625
0.140289306640625
-0.1549072265625
0.141387939453125
-0.1358642578125
0.1116943359375
-0.0589599609375
0.04541015625
-0.090118408203125
0.082763671875
-0.0325927734375
0.0234375
-0.0234375
0.0120849609375
-0.019439697265625
0.02197265625
0.021240234375
-0.0062255859375
-0.0274658203125
0.035888671875
0.015380859375
-0.0113525390625
-0.025634765625
-0.0084228515625
-0.005859375
0.183868408203125
0.0281982421875
0.0498046875
0.045440673828125
-0.231475830078125
-0.082763671875
0.022003173828125
-0.183135986328125
0.171417236328125
-0.204376220703125
0.1915283203125
-0.154937744140625
0.259674072265625
-0.0062255859375
0.122344970703125
0.0
0.0
-0.0003662109375
-0.0003662109375
0.0
0.0
0.0
0.0003662109375
0.0
0.0
0.0
-0.0003662109375
0.0
-0.0003662109375
0.0003662109375
0.0
0.0
-0.045440673828125
-0.0003662109375
-0.0106201171875
0.0
0.045440673828125
0.0
0.0106201171875
0.0
0.0003662109375
0.0
0.0003662109375
0.0
0.0
0.0
-0.0003662109375
0.0
-0.0003662109375
0.0
0.0003662109375
0.0
0.0003662109375
0.0
0.0
0.0
0.0
0.0003662109375
-0.0003662109375
0.0
-0.0003662109375
-0.0003662109375
-0.034454345703125
0.065948486328125
-0.135894775390625
-0.0003662109375
-0.0325927734375
0.0113525390625
-0.012451171875
0.0245361328125
-0.0289306640625
0.00732421875
-0.01025390625
0.089752197265625
-0.093017578125
0.050537109375
-0.0538330078125
0.145751953125
-0.148345947265625
0.1182861328125
-0.124176025390625
0.173614501953125
-0.1768798828125
0.199249267578125
-0.193359375
0.12158203125
-0.110260009765625
0.1175537109375
-0.108062744140625
0.056427001953125
-0.0523681640625
0.075469970703125
-0.0523681640625
-0.069244384765625
0.206207275390625
-0.00439453125
-0.0047607421875
0.0582275390625
-0.220489501953125
0.0772705078125
-0.119384765625
0.155670166015625
-0.16552734375
0.147216796875
-0.159698486328125
0.258575439453125
-0.279083251953125
0.241729736328125
-0.271759033203125
0.209136962890625
-0.221588134765625
0.090484619140625
-0.0552978515625
0.1087646484375
-0.0516357421875
0.1329345703125
-0.0948486328125
0.0194091796875
-0.0025634765625
-0.056396484375
0.0662841796875
-0.14208984375
0.1072998046875
-0.103668212890625
0.018310546875
-0.160797119140625
0.0087890625
-0.0498046875
0.0205078125
-0.0706787109375
0.312042236328125
-0.1644287109375
0.347198486328125
-0.108795166015625
0.133331298828125
-0.03076171875
0.046875
0.139923095703125
-0.113922119140625
0.10546875
-0.078369140625
0.0970458984375
-0.0882568359375
0.0054931640625
-0.038818359375
-0.0010986328125
-0.0728759765625
0.013916015625
-0.0758056640625
-0.0128173828125
-0.008056640625
0.0216064453125
-0.02197265625
-0.0369873046875
0.0355224609375
0.01171875
-0.0076904296875
-0.0263671875
0.03076171875
0.0311279296875
-0.0322265625
0.0589599609375
-0.0604248046875
0.06298828125
-0.066314697265625
0.0574951171875
-0.055694580078125
-0.0234375
0.0238037109375
0.0223388671875
-0.0245361328125
-0.0091552734375
0.00146484375
0.036651611328125
-0.0450439453125
-0.012451171875
0.0040283203125
0.0047607421875
-0.0029296875
0.041748046875
-0.0318603515625
0.00146484375
-0.0018310546875
0.028594970703125
-0.0303955078125
-0.019775390625
0.05859375
0.0289306640625
0.084625244140625
0.0516357421875
-0.08642578125
0.1241455078125
-0.257843017578125
0.0780029296875
-0.10986328125
0.0318603515625
-0.040313720703125
0.0604248046875
-0.069244384765625
0.041015625
-0.0296630859375
0.096343994140625
-0.030029296875
0.063385009765625
-0.0003662109375
0.0186767578125
0.0
0.0032958984375
0.0003662109375
0.0
0.0
0.0
-0.0003662109375
0.0
-0.0003662109375
0.0003662109375
0.0
0.0
0.0003662109375
-0.0003662109375
0.0003662109375
0.0
0.0
0.0
-0.0003662109375
0.0
0.0
0.0
0.0003662109375
0.0
-0.0003662109375
-0.015380859375
0.050933837890625
-0.053863525390625
0.094512939453125
-0.108795166015625
0.0963134765625
-0.025634765625
-0.021240234375
-0.0245361328125
-0.046142578125
-0.041748046875
-0.005859375
-0.0516357421875
0.0406494140625
-0.0791015625
0.076171875
-0.0706787109375
0.0728759765625
-0.201446533203125
0.202178955078125
-0.215728759765625
0.218658447265625
-0.256744384765625
0.257080078125
-0.183868408203125
0.177642822265625
-0.157470703125
0.150543212890625
-0.1417236328125
0.1395263671875
-0.052001953125
0.0523681640625
-0.0523681640625
0.052001953125
0.032958984375
-0.0333251953125
-0.035919189453125
0.027099609375
-0.0325927734375
0.0263671875
-0.0889892578125
0.101104736328125
-0.096710205078125
0.113922119140625
-0.046875
0.062255859375
-0.0245361328125
0.029296875
0.0732421875
-0.04541015625
-0.0267333984375
0.1600341796875
0.03369140625
-0.0494384765625
0.0303955078125
-0.1783447265625
0.019775390625
-0.049468994140625
0.0076904296875
-0.01171875
0.01904296875
-0.03369140625
0.0875244140625
-0.110260009765625
0.001861572265625
-0.02197265625
0.009185791015625
-0.0098876953125
-0.071807861328125
0.106231689453125
0.038818359375
0.015380859375
0.168853759765625
-0.135894775390625
0.183837890625
-0.177978515625
0.0926513671875
-0.0926513671875
-0.0531005859375
0.0087890625
-0.0501708984375
-0.0465087890625
-0.08203125
-0.082061767578125
0.0556640625
-0.059356689453125
-0.0018310546875
0.253448486328125
-0.029296875
0.186431884765625
-0.0084228515625
0.027099609375
-0.076171875
0.090087890625
-0.0831298828125
0.105865478515625
-0.136260986328125
0.151641845703125
-0.063385009765625
0.05859375
-0.0941162109375
0.0545654296875
-0.08203125
0.0076904296875
-0.183868408203125
0.126708984375
-0.389678955078125
0.372833251953125
-0.282745361328125
0.32012939453125
-0.074371337890625
0.113189697265625
0.0
0.0003662109375
0.0
0.0003662109375
0.0
0.0
0.0
0.0
0.0
-0.0003662109375
0.0
0.0
0.0
0.0003662109375
0.0
0.0
0.0
0.0
0.0
0.0
0.0
0.0
0.0003662109375
0.0
0.0
0.0
-0.0003662109375
0.0
0.0
-0.0003662109375
0.0
0.0
0.0
0.0
0.0
0.0
0.0
0.0003662109375
0.0
0.0
0.0
0.0
0.0
0.0
0.0
0.0
0.0
0.0
0.0
0.0
0.0
0.0
0.0
0.0
0.02783203125
-0.054595947265625
0.0289306640625
-0.055328369140625
0.136627197265625
-0.1373291015625
0.126739501953125
-0.1636962890625
0.0318603515625
-0.1190185546875
0.03955078125
-0.167755126953125
-0.03515625
-0.026763916015625
-0.01904296875
0.216461181640625
-0.1226806640625
0.32012939453125
-0.095947265625
0.1175537109375
0.0791015625
-0.060821533203125
0.251251220703125
-0.223388671875
0.436187744140625
-0.408355712890625
0.261474609375
-0.253082275390625
0.0494384765625
-0.07763671875
-0.11279296875
0.0428466796875
-0.099609375
0.0355224609375
-0.110595703125
0.0897216796875
-0.087890625
0.0743408203125
0.1142578125
-0.1666259765625
0.181640625
-0.247222900390625
0.226715087890625
-0.274688720703125
0.239532470703125
-0.284210205078125
0.757415771484375
-0.654144287109375
0.659271240234375
-0.50909423828125
0.0281982421875
-0.0025634765625
0.0
0.0
0.0
-0.0003662109375
0.0
0.0003662109375
0.0003662109375
0.0003662109375
0.0
-0.0003662109375
-0.0003662109375
0.0
0.0
0.0
0.0
0.0
0.0
0.0003662109375
0.0
0.0
0.0
0.0
0.0
0.0
0.0
0.0
0.0003662109375
-0.0003662109375
-0.119781494140625
0.0
-0.255279541015625
0.0
-0.326324462890625
0.143585205078125
-0.271392822265625
0.204010009765625
-0.173614501953125
0.15087890625
-0.211700439453125
0.230010986328125
-0.1351318359375
0.187530517578125
-0.153839111328125
0.194122314453125
-0.145416259765625
0.154937744140625
-0.1556396484375
0.157470703125
-0.169921875
0.14208984375
-0.091552734375
0.0054931640625
-0.1051025390625
-0.0318603515625
-0.0025634765625
-0.0640869140625
-0.065948486328125
0.273590087890625
-0.056060791015625
0.276519775390625
-0.0809326171875
0.116455078125
-0.298492431640625
0.365142822265625
-0.173980712890625
0.35748291015625
0.0003662109375
0.126007080078125
0.0
0.0
-0.0003662109375
0.0003662109375
0.0
0.0
0.0
-0.0003662109375
0.0
-0.0003662109375
0.0
0.0003662109375
0.0003662109375
0.0003662109375
0.0
-0.0003662109375
-0.0003662109375
0.0
0.0
0.0003662109375
0.0
0.0
0.0
0.0
0.0
0.0
0.0
0.0
0.0
0.0
0.0003662109375
0.0
0.0
0.0
-0.0003662109375
0.0
0.0
0.0
0.0
0.0
0.0
0.0
0.0
0.0
0.0
0.0
0.0
0.0
0.0
0.0
0.0
0.0
0.0
0.0
0.0
0.0
0.0
0.0
0.0
0.0
0.0
0.0
0.0
0.0
0.0
0.0
0.0
0.0
0.0
0.0
0.0
0.0
0.0
0.0
0.0
0.0
0.0
0.0
0.0
0.0
0.0003662109375
0.0
0.0
0.0
-0.0003662109375
0.0
0.0003662109375
0.0
0.0
0.0
-0.0003662109375
0.0
0.0
-0.0003662109375
0.0003662109375
0.0
0.0
0.0003662109375
-0.0003662109375
0.0
0.0
0.0
0.0
0.0
0.0
0.0
0.0
-0.0003662109375
0.0
0.0
0.0
0.0003662109375
0.0
0.0
0.0
0.0
0.0
0.0
0.0
0.0
0.0003662109375
-0.0003662109375
0.0
-0.0003662109375
-0.0003662109375
0.0
0.0
0.0003662109375
0.0
0.0003662109375
0.0
0.0
0.0
0.0
0.0
0.0
0.0
0.0
0.0
0.0
0.0
0.0
0.0
-0.0003662109375
0.0
0.0
0.0
0.0003662109375
0.0003662109375
-0.0003662109375
0.0
0.0
-0.0003662109375
0.0003662109375
0.0
0.0
0.0
-0.000732421875
0.0010986328125
-0.133331298828125
0.183135986328125
-0.289337158203125
0.225250244140625
-0.167724609375
0.225250244140625
-0.180938720703125
0.160064697265625
-0.145782470703125
0.07177734375
-0.0699462890625
0.00439453125
-0.041748046875
-0.13623046875
0.0684814453125
-0.139190673828125
0.0194091796875
-0.190093994140625
0.1241455078125
-0.1688232421875
0.372467041015625
-0.153839111328125
0.34832763671875
-0.082794189453125
0.096343994140625
0.0003662109375
-0.0003662109375
0.0
0.0003662109375
-0.0003662109375
0.0
0.0
0.0
0.0
0.0
0.0
0.0
0.0
0.0003662109375
0.0
0.0
0.0
-0.0003662109375
0.0
0.0
0.0
0.0003662109375
0.0
-0.0003662109375
0.0
0.0
0.040679931640625
-0.084259033203125
0.048370361328125
-0.085357666015625
0.1376953125
-0.13330078125
0.0596923828125
-0.0618896484375
-0.0380859375
0.041015625
0.022705078125
-0.017578125
0.0
0.000732421875
0.0721435546875
-0.078369140625
-0.05859375
0.046875
-0.093017578125
0.094482421875
-0.080230712890625
0.123443603515625
-0.098175048828125
0.099609375
-0.00146484375
0.005126953125
0.0054931640625
-0.030029296875
0.134429931640625
-0.0098876953125
0.250518798828125
-0.1951904296875
0.336212158203125
-0.51165771484375
0.178741455078125
-0.230377197265625
0.154571533203125
-0.166290283203125
0.224884033203125
-0.235137939453125
0.186767578125
-0.202545166015625
0.179443359375
-0.208404541015625
0.01171875
-0.040283203125
-0.029296875
0.0413818359375
-0.135498046875
0.186431884765625
-0.091552734375
0.132598876953125
-0.120880126953125
0.1365966796875
-0.149444580078125
0.150146484375
-0.0655517578125
0.039215087890625
-0.01171875
-0.069580078125
0.204010009765625
-0.32818603515625
0.167755126953125
-0.265899658203125
0.1219482421875
0.048370361328125
0.0142822265625
0.225250244140625
-0.0208740234375
0.066650390625
-0.0831298828125
0.1021728515625
-0.1431884765625
0.166259765625
-0.0498046875
0.073638916015625
-0.121978759765625
0.132965087890625
0.0029296875
-0.0252685546875
-0.0670166015625
0.0040283203125
-0.083892822265625
0.0164794921875
-0.0509033203125
0.022705078125
-0.0216064453125
0.0186767578125
0.14208984375
-0.1409912109375
0.0853271484375
-0.082794189453125
0.010986328125
-0.012115478515625
-0.16552734375
0.162994384765625
-0.0926513671875
0.090850830078125
-0.0450439453125
0.046875
0.0706787109375
-0.0699462890625
0.232208251953125
-0.229644775390625
0.189361572265625
-0.187530517578125
0.1962890625
-0.1959228515625
0.0838623046875
-0.087890625
0.118682861328125
-0.129302978515625
0.0450439453125
-0.047637939453125
0.0531005859375
-0.041748046875
0.050567626953125
-0.0384521484375
0.030029296875
-0.02783203125
0.0966796875
-0.087158203125
0.0029296875
0.1036376953125
0.0574951171875
0.049072265625
0.02783203125
-0.1146240234375
0.0845947265625
-0.200714111328125
0.057861328125
-0.0823974609375
0.084259033203125
-0.093017578125
0.122344970703125
-0.137725830078125
0.0267333984375
-0.0556640625
0.100341796875
-0.134765625
0.1270751953125
-0.142120361328125
0.165191650390625
-0.082794189453125
0.094512939453125
-0.015380859375
-0.0003662109375
0.0
0.0010986328125
0.0003662109375
-0.0003662109375
-0.0003662109375
0.0003662109375
-0.0003662109375
0.0
0.0
-0.0003662109375
0.0003662109375
0.0003662109375
0.0003662109375
0.0
-0.0003662109375
-0.0003662109375
0.0
0.0
0.0003662109375
0.0003662109375
0.0
0.0003662109375
0.0
-0.0003662109375
-0.0003662109375
0.0
-0.0003662109375
0.0003662109375
0.0
0.0
0.0003662109375
-0.0003662109375
0.0003662109375
0.0
-0.0003662109375
0.0003662109375
0.0
0.0
0.0003662109375
-0.0003662109375
0.0
0.0
0.0
0.0003662109375
-0.0003662109375
0.0
0.0
0.0
0.0003662109375
-0.0003662109375
-0.0003662109375
0.0
0.0
0.0003662109375
0.0003662109375
-0.0003662109375
0.0
0.0
0.0
0.0003662109375
-0.0003662109375
-0.0003662109375
-0.0003662109375
-0.0003662109375
0.0003662109375
0.0003662109375
0.0003662109375
0.0003662109375
0.0
0.0
-0.0003662109375
0.0
0.0113525390625
0.0
0.0003662109375
-0.0003662109375
-0.0113525390625
-0.0003662109375
-0.0003662109375
0.0
0.0
0.0
0.0003662109375
0.0
-0.0003662109375
-0.008056640625
0.0
-0.0179443359375
0.0003662109375
-0.131866455078125
0.111358642578125
-0.110260009765625
0.131134033203125
-0.1307373046875
0.1710205078125
-0.123046875
0.1307373046875
-0.0362548828125
0.03515625
0.0018310546875
-0.0355224609375
0.1263427734375
-0.21240234375
0.0750732421875
-0.220855712890625
0.14208984375
-0.105133056640625
0.157501220703125
0.068878173828125
0.038482666015625
0.0
0.016845703125
-0.074371337890625
0.0003662109375
0.0
0.0
0.0
0.0
0.0
0.0
0.0
-0.0003662109375
0.0
0.0003662109375
0.0
0.0003662109375
-0.0003662109375
0.0
-0.0003662109375
0.0
0.0003662109375
0.0
0.0003662109375
0.0
-0.0003662109375
-0.0003662109375
0.0
0.0
0.0
0.0
0.0
-0.0003662109375
0.055694580078125
-0.106964111328125
0.239898681640625
-0.068145751953125
0.1435546875
0.04833984375
-0.0479736328125
-0.0245361328125
0.02783203125
0.0146484375
-0.0142822265625
0.034423828125
-0.053466796875
0.042144775390625
-0.046142578125
-0.12890625
0.159332275390625
-0.31756591796875
0.345367431640625
-0.46331787109375
0.484527587890625
-0.66290283203125
0.66693115234375
-0.73870849609375
0.677215576171875
-0.51385498046875
0.35089111328125
-0.106964111328125
0.0
0.0
0.0
0.0
0.0003662109375
0.0003662109375
0.0
0.0
-0.0003662109375
-0.000732421875
0.0
0.0
0.0003662109375
0.0003662109375
0.0
0.0
0.0
0.0
0.0
0.0
0.0
0.0
0.0
0.0
0.0
0.0
0.0
0.0003662109375
0.0
0.0
0.0
-0.0003662109375
0.0
0.0
0.0
0.0003662109375
-0.0003662109375
0.0
0.0
-0.0003662109375
0.0003662109375
0.0
0.0
0.0
0.0
0.0
0.0
0.0
0.0
0.0003662109375
0.0
0.0
0.0
-0.0003662109375
0.0
0.0
0.0
0.0
-0.0003662109375
1.0
-1.0
1.0
-1.0
-0.0032958984375
-0.0084228515625
0.0
0.0
0.0
0.0
0.0
-0.0003662109375
0.0
-0.0003662109375
0.0
0.0003662109375
0.0
0.0
0.0003662109375
-0.0003662109375
0.0003662109375
0.0
-0.0003662109375
0.0003662109375
-0.0003662109375
0.0
0.0003662109375
0.0
0.0
0.0003662109375
-0.0003662109375
-0.0003662109375
0.0003662109375
0.0
0.0
0.0
-0.679046630859375
0.624847412109375
-1.0
1.0
-0.817474365234375
0.869476318359375
0.0
0.0
0.0
0.0
0.0
0.0003662109375
0.0
0.0003662109375
0.0
0.0
0.0
0.0
0.0
0.0
0.0
0.0
0.0
0.0
0.0
0.0
0.0
0.0
0.0
-0.0003662109375
0.0
0.0
0.0
0.0003662109375
0.0
0.0
0.0
-0.0003662109375
0.0
0.0
0.0003662109375
0.0003662109375
0.0
0.0
-0.0003662109375
0.0
0.0
0.0
0.0
0.0
0.0
-0.0003662109375
0.0
0.0
0.0
0.0003662109375
0.0
0.0
0.0
0.0
0.0
0.0
0.0
0.0
0.0
0.0
0.0
0.0
0.0003662109375
0.0
0.0
-0.0003662109375
-0.0003662109375
-0.0003662109375
0.0
0.0003662109375
0.0
0.0003662109375
0.0
0.0
0.0
0.0
0.0
0.0
0.0
-0.0003662109375
0.0
0.0
0.0
0.0003662109375
0.0
0.0
0.0
0.0
0.0
0.0
0.0
0.0
0.0
0.0
0.0
0.0
0.0
0.0
0.0
0.0
0.0
0.0
0.0
0.0
0.0
0.0
0.0
0.0
0.0
0.0
0.0
0.0
0.0
0.0
0.0
0.0
0.0
0.0
0.0
0.0
0.0
0.0
0.0
0.0
0.0
0.0
0.0
0.0
0.0
-0.0003662109375
0.0
0.0
0.0
0.0
0.0
0.0
0.0
0.0003662109375
0.0
0.0
0.0
0.0
0.0
0.0
0.0
0.0
0.0
0.0
0.0
0.0
0.0
0.0
0.0
0.0
0.0
0.0
0.0
0.0
0.0003662109375
0.0
0.937255859375
-0.605804443359375
1.0
-0.866180419921875
-0.069976806640625
0.148345947265625
-0.9599609375
0.868011474609375
-0.335845947265625
0.362213134765625
0.108428955078125
-0.0040283203125
0.134063720703125
-0.084228515625
-0.109893798828125
0.002197265625
-0.45928955078125
0.179473876953125
-0.07470703125
0.0
-0.018310546875
0.0
0.0274658203125
0.0
0.052001953125
0.0
0.130401611328125
0.0
0.127471923828125
0.0
0.1417236328125
-0.100006103515625
0.336212158203125
-0.302154541015625
0.332550048828125
-0.418975830078125
0.792572021484375
-1.0
0.634002685546875
-0.9757080078125
0.0
0.0003662109375
0.0
0.0
0.0
-0.0003662109375
0.0003662109375
0.0
0.0
0.0003662109375
-0.0003662109375
0.0
0.0
0.0
0.0
0.0
0.0
0.0
0.0
0.0
0.0003662109375
0.0
0.0003662109375
0.0
0.0
0.0
-0.0003662109375
0.0
-0.0003662109375
-0.0003662109375
0.0
-0.0003662109375
0.0
0.0
0.0003662109375
0.0003662109375
0.0003662109375
0.0003662109375
-0.0003662109375
0.0
0.0
-0.0003662109375
0.0003662109375
-0.0003662109375
0.0
0.0003662109375
0.0
0.0
-0.0003662109375
0.0
0.0
0.0003662109375
0.0
0.0
-0.0003662109375
0.0
0.0
0.0
0.0
0.0
0.0
-0.0003662109375
0.0
0.0
0.0
0.0003662109375
0.0
0.0
0.0003662109375
0.0
0.0
-0.0003662109375
0.0029296875
0.006591796875
0.0
0.0003662109375
-0.0032958984375
-0.006591796875
0.0003662109375
-0.0003662109375
0.0003662109375
0.0
0.0
0.0
-0.0003662109375
0.0
-0.0003662109375
0.0
0.0
0.0
0.0003662109375
0.0
0.0
-0.0003662109375
0.0
0.0
0.0003662109375
0.0003662109375
0.0
0.0003662109375
-0.0003662109375
0.0
0.0
0.0
0.0003662109375
0.0
0.0
0.0
0.0
0.0
0.0
0.0
-0.0003662109375
0.0
0.0
0.0
0.0
0.0
0.0
0.0
0.0003662109375
0.0
0.0
0.0
0.0
-0.0003662109375
0.0
0.0
-0.0003662109375
0.0003662109375
-0.0003662109375
0.0
0.0003662109375
0.0
0.0003662109375
0.0
0.0
-0.0003662109375
-0.0003662109375
0.0
0.0
0.0003662109375
0.0
0.0
0.0
0.0
0.0
0.0
-0.0003662109375
-0.0003662109375
0.0003662109375
0.0
0.0
0.0003662109375
0.0
0.0
0.0003662109375
-0.0003662109375
-0.0003662109375
0.0
-0.0003662109375
0.0003662109375
0.0003662109375
-0.0003662109375
0.0003662109375
0.0
-0.0003662109375
0.0
-0.0003662109375
-0.0003662109375
0.0
0.0003662109375
0.0003662109375
0.0003662109375
0.0003662109375
0.0
0.0
-0.0003662109375
-0.0003662109375
0.0
0.0
0.0003662109375
0.0003662109375
-0.0003662109375
-0.0003662109375
0.0
-0.0003662109375
0.0
0.0
-0.0003662109375
0.0003662109375
0.0003662109375
0.0
0.0003662109375
-0.0003662109375
0.0
0.0
0.0
0.0003662109375
-0.0003662109375
0.0003662109375
0.0
0.0
0.0003662109375
0.0
0.0
0.0
0.0
-0.0003662109375
-0.0003662109375
-0.0003662109375
-0.0003662109375
0.0
0.0003662109375
0.0
0.024169921875
0.0
0.046539306640625
0.0
0.036651611328125
0.0
-0.019073486328125
-0.0025634765625
-0.01318359375
-0.0142822265625
0.026397705078125
-0.058624267578125
0.054931640625
-0.070343017578125
0.0703125
-0.0523681640625
0.057861328125
-0.0670166015625
0.0732421875
-0.054931640625
0.054931640625
-0.0618896484375
0.064453125
-0.052001953125
0.0516357421875
-0.052001953125
0.0509033203125
-0.05419921875
0.0531005859375
-0.0355224609375
0.035919189453125
-0.044708251953125
0.044342041015625
-0.034088134765625
0.0245361328125
-0.0487060546875
0.03662109375
-0.0245361328125
0.0252685546875
-0.0208740234375
0.0333251953125
-0.03076171875
0.0333251953125
-0.029296875
0.02490234375
-0.0230712890625
-0.00732421875
-0.0633544921875
0.186431884765625
-0.0523681640625
0.1417236328125
0.034423828125
-0.162628173828125
-0.01171875
-0.068115234375
-0.02783203125
0.0054931640625
-0.095947265625
0.0150146484375
-0.1080322265625
0.01025390625
-0.0234375
-0.0142822265625
-0.022369384765625
0.000732421875
-0.014678955078125
0.019775390625
-0.0325927734375
0.07470703125
-0.0146484375
0.0611572265625
-0.015380859375
0.039215087890625
-0.017578125
0.0260009765625
-0.0128173828125
0.005859375
-0.0311279296875
-0.0413818359375
-0.0230712890625
-0.101837158203125
-0.0113525390625
-0.13037109375
0.006591796875
0.124908447265625
-0.0260009765625
0.307281494140625
-0.024169921875
0.101806640625
-0.0245361328125
0.0450439453125
-0.029296875
0.0552978515625
-0.0128173828125
0.0399169921875
-0.018310546875
0.034423828125
0.0010986328125
-0.01025390625
-0.012451171875
-0.0399169921875
0.002197265625
-0.0765380859375
0.00146484375
-0.0399169921875
-0.00439453125
0.0
-0.0018310546875
0.0062255859375
-0.015380859375
0.01904296875
0.0062255859375
-0.0010986328125
-0.0018310546875
0.0098876953125
0.0069580078125
-0.0032958984375
-0.0040283203125
0.0069580078125
0.0
0.0025634765625
0.000732421875
0.002197265625
-0.0054931640625
0.008056640625
0.0062255859375
-0.00439453125
-0.005126953125
0.0040283203125
0.0047607421875
-0.01318359375
-0.008056640625
0.0106201171875
0.008056640625
0.0054931640625
0.005126953125
0.005126953125
0.0032958984375
0.0018310546875
0.015380859375
-0.0362548828125
-0.0552978515625
0.195220947265625
-0.01171875
0.1025390625
0.057861328125
-0.193023681640625
0.0355224609375
-0.11572265625
0.0010986328125
-0.016845703125
-0.002197265625
-0.006591796875
-0.0047607421875
-0.01318359375
-0.010986328125
-0.01904296875
0.003662109375
-0.03515625
-0.0106201171875
0.012451171875
0.0
0.0439453125
-0.00732421875
0.056396484375
0.00439453125
0.015380859375
-0.0010986328125
0.0040283203125
-0.006591796875
-0.00732421875
-0.005859375
-0.0706787109375
-0.017578125
-0.1025390625
0.0223388671875
-0.161895751953125
0.019775390625
0.1138916015625
0.0128173828125
0.262237548828125
-0.0025634765625
0.0743408203125
0.0010986328125
0.018310546875
0.0062255859375
0.015380859375
-0.0010986328125
0.02490234375
0.01171875
0.005126953125
-0.0018310546875
-0.009521484375
0.0054931640625
-0.0673828125
-0.0054931640625
-0.073974609375
0.0084228515625
-0.050537109375
0.0087890625
-0.0150146484375
0.009521484375
-0.01025390625
0.013916015625
-0.0164794921875
-0.005126953125
0.005859375
0.0062255859375
-0.00439453125
-0.0054931640625
0.005859375
0.01025390625
-0.010986328125
0.0054931640625
-0.005126953125
0.000732421875
-0.0029296875
-0.0029296875
0.0010986328125
-0.008056640625
0.0087890625
0.0084228515625
-0.0146484375
-0.0029296875
-0.0069580078125
0.009521484375
-0.0106201171875
0.0047607421875
0.0069580078125
0.0128173828125
-0.005859375
0.00732421875
-0.0054931640625
0.01171875
-0.0413818359375
-0.0428466796875
0.195953369140625
-0.0234375
0.100341796875
0.072509765625
-0.234405517578125
0.01904296875
-0.084228515625
0.003662109375
-0.0205078125
-0.006591796875
-0.0047607421875
-0.0025634765625
-0.017578125
0.00439453125
-0.03515625
-0.0054931640625
-0.02197265625
0.0003662109375
0.0047607421875
-0.0146484375
0.0604248046875
0.00439453125
0.0406494140625
-0.0032958984375
0.0216064453125
0.000732421875
0.0029296875
-0.0069580078125
-0.0146484375
-0.0157470703125
-0.0673828125
-0.00439453125
-0.123809814453125
0.0205078125
-0.132965087890625
0.02490234375
0.136993408203125
-0.0205078125
0.273956298828125
0.0
0.053466796875
-0.0084228515625
0.027099609375
-0.0069580078125
0.02783203125
0.000732421875
0.0223388671875
-0.0032958984375
0.0194091796875
0.0146484375
-0.0322265625
0.0062255859375
-0.0743408203125
0.0230712890625
-0.1007080078125
0.009521484375
-0.0435791015625
0.00732421875
-0.012451171875
-0.0018310546875
0.0029296875
-0.01025390625
0.0106201171875
0.000732421875
-0.0032958984375
-0.01171875
0.0098876953125
0.000732421875
0.0
-0.010986328125
0.0113525390625
0.00146484375
-0.0032958984375
-0.002197265625
0.0029296875
0.0
-0.002197265625
0.00439453125
-0.0062255859375
-0.0047607421875
0.000732421875
0.0018310546875
-0.01318359375
-0.0128173828125
0.015380859375
0.01171875
-0.00146484375
0.005859375
-0.0025634765625
0.0087890625
-0.008056640625
0.0091552734375
-0.024169921875
-0.0494384765625
0.1973876953125
-0.012451171875
0.0556640625
0.0384521484375
-0.201416015625
0.0186767578125
-0.0673828125
-0.0040283203125
-0.0032958984375
0.00439453125
-0.01611328125
0.0003662109375
-0.01904296875
0.002197265625
-0.0347900390625
0.0032958984375
-0.0296630859375
-0.01171875
0.02490234375
0.0
0.0465087890625
-0.00439453125
0.046875
0.0098876953125
0.0018310546875
-0.0032958984375
0.00439453125
-0.005126953125
-0.0267333984375
-0.002197265625
-0.090850830078125
-0.0062255859375
-0.142120361328125
0.04541015625
-0.1043701171875
0.018310546875
0.200347900390625
-0.0091552734375
0.221221923828125
-0.0025634765625
0.032958984375
0.0047607421875
0.012451171875
0.003662109375
0.0205078125
0.0047607421875
0.019775390625
0.0120849609375
-0.00146484375
-0.00146484375
-0.025634765625
0.002197265625
-0.076904296875
-0.01318359375
-0.060791015625
-0.0029296875
-0.0296630859375
-0.01171875
0.00732421875
-0.003662109375
0.0032958984375
-0.0018310546875
0.0018310546875
-0.0098876953125
0.0091552734375
-0.0025634765625
0.002197265625
-0.0157470703125
0.01904296875
-0.002197265625
0.0018310546875
-0.0091552734375
0.008056640625
0.0069580078125
-0.0084228515625
0.0054931640625
-0.0040283203125
0.002197265625
-0.0040283203125
0.0087890625
-0.0179443359375
-0.0040283203125
-0.00439453125
0.00732421875
-0.0018310546875
0.00146484375
0.010986328125
0.0135498046875
-0.0091552734375
0.0018310546875
0.0003662109375
0.0098876953125
-0.01904296875
-0.0413818359375
0.1922607421875
-0.0150146484375
0.04833984375
0.060791015625
-0.22412109375
0.0113525390625
-0.0545654296875
0.0146484375
-0.027099609375
0.006591796875
-0.018310546875
0.024566650390625
-0.046905517578125
0.0208740234375
-0.052398681640625
0.003662109375
-0.0274658203125
0.0003662109375
0.01318359375
-0.009185791015625
0.0589599609375
0.011016845703125
0.03076171875
-0.0018310546875
0.015411376953125
0.0054931640625
-0.0054931640625
-0.01025390625
-0.020172119140625
-0.009918212890625
-0.0794677734375
-0.009521484375
-0.134033203125
0.030426025390625
-0.0970458984375
0.026397705078125
0.180206298828125
-0.0263671875
0.240997314453125
0.0062255859375
0.0260009765625
-0.009918212890625
0.0281982421875
-0.0040283203125
0.0281982421875
-0.0047607421875
0.0296630859375
-0.002197265625
0.012451171875
0.0106201171875
-0.0369873046875
0.0029296875
-0.0758056640625
0.012847900390625
-0.085357666015625
0.0003662109375
-0.027496337890625
0.008056640625
-0.0113525390625
-0.0029296875
0.005126953125
0.0003662109375
0.00146484375
0.0032958984375
0.0
-0.00439453125
0.0047607421875
0.0062255859375
-0.008056640625
-0.0069580078125
0.0076904296875
0.0062255859375
-0.0062255859375
-0.002197265625
0.0040283203125
0.00439453125
-0.003662109375
-0.0010986328125
-0.002197265625
-0.00146484375
-0.005126953125
0.0069580078125
-0.01318359375
-0.0025634765625
0.0069580078125
0.0150146484375
-0.00439453125
-0.000732421875
0.005859375
0.003662109375
-0.0025634765625
0.0003662109375
-0.018310546875
-0.046539306640625
0.189727783203125
-0.0157470703125
0.064117431640625
0.038116455078125
-0.193023681640625
0.019775390625
-0.064117431640625
-0.0062255859375
-0.0018310546875
0.002197265625
-0.016845703125
-0.005859375
-0.0172119140625
0.0010986328125
-0.03515625
-0.00146484375
-0.0230712890625
-0.01318359375
0.0274658203125
-0.009918212890625
0.057861328125
-0.013214111328125
0.054931640625
-0.0032958984375
0.017242431640625
-0.018310546875
0.016143798828125
-0.0087890625
-0.024200439453125
-0.0157470703125
-0.076202392578125
-0.017578125
-0.1285400390625
0.0234375
-0.093017578125
0.00439453125
0.203277587890625
-0.0208740234375
0.242095947265625
-0.0142822265625
0.04833984375
-0.0040283203125
0.021240234375
-0.0194091796875
0.0443115234375
-0.0128173828125
0.0355224609375
-0.0069580078125
0.0164794921875
-0.0047607421875
-0.0201416015625
0.0047607421875
-0.0758056640625
-0.00732421875
-0.062255859375
-0.0003662109375
-0.0289306640625
-0.0120849609375
0.0091552734375
0.0010986328125
0.0010986328125
-0.0047607421875
0.0062255859375
-0.005126953125
0.0040283203125
-0.0029296875
0.0025634765625
-0.010986328125
0.012451171875
-0.000732421875
0.000732421875
-0.0087890625
0.0091552734375
0.0018310546875
-0.002197265625
-0.0084228515625
0.0098876953125
-0.000732421875
-0.0018310546875
0.0003662109375
-0.0087890625
-0.0018310546875
-0.003662109375
0.0040283203125
0.0018310546875
-0.003662109375
0.013916015625
0.0069580078125
-0.0018310546875
-0.005126953125
0.005126953125
0.0098876953125
-0.0333251953125
-0.049072265625
0.205474853515625
-0.0201416015625
0.0743408203125
0.0531005859375
-0.217559814453125
0.0113525390625
-0.0596923828125
0.0003662109375
-0.012451171875
-0.0120849609375
0.000732421875
0.002197265625
-0.022705078125
-0.0029296875
-0.027099609375
0.003662109375
-0.0296630859375
-0.0029296875
0.01318359375
-0.010986328125
0.0582275390625
0.0062255859375
0.03515625
-0.0018310546875
0.017578125
0.0062255859375
-0.0029296875
-0.0084228515625
-0.0172119140625
-0.00439453125
-0.088287353515625
-0.0084228515625
-0.125274658203125
0.030029296875
-0.1175537109375
0.0208740234375
0.161163330078125
-0.021240234375
0.257476806640625
0.0047607421875
0.0380859375
-0.009521484375
0.027099609375
-0.0003662109375
0.0230712890625
-0.0091552734375
0.037353515625
-0.0029296875
0.0179443359375
-0.002197265625
-0.017578125
-0.008056640625
-0.0574951171875
0.002197265625
-0.0780029296875
-0.01025390625
-0.0201416015625
0.0
-0.0025634765625
-0.00439453125
0.0047607421875
0.01025390625
-0.010986328125
0.01025390625
-0.0091552734375
0.006591796875
-0.0054931640625
0.0084228515625
-0.0098876953125
-0.000732421875
0.0018310546875
0.0062255859375
-0.006591796875
-0.0047607421875
0.0040283203125
0.00732421875
-0.01025390625
-0.0003662109375
-0.0010986328125
0.0029296875
-0.0069580078125
-0.0040283203125
-0.0029296875
-0.0069580078125
0.012451171875
0.0106201171875
0.00146484375
-0.0003662109375
0.0054931640625
0.0062255859375
-0.006591796875
-0.0194091796875
0.0501708984375
-0.0362548828125
0.1527099609375
0.0084228515625
-0.0263671875
0.0406494140625
-0.1724853515625
0.01171875
-0.0457763671875
-0.005126953125
-0.0029296875
0.005126953125
-0.0179443359375
-0.0025634765625
-0.022705078125
0.0098876953125
-0.0443115234375
-0.0018310546875
-0.01318359375
-0.008056640625
0.03369140625
-0.0054931640625
0.056396484375
-0.00146484375
0.035888671875
0.0084228515625
-0.0003662109375
-0.0047607421875
0.005859375
-0.0029296875
-0.041748046875
-0.016845703125
-0.079833984375
-0.0047607421875
-0.153839111328125
0.0362548828125
-0.049835205078125
0.0179443359375
0.226715087890625
-0.0142822265625
0.186065673828125
-0.0029296875
0.02783203125
0.0029296875
0.01611328125
-0.0084228515625
0.035888671875
0.0032958984375
0.021240234375
0.00146484375
0.0062255859375
0.0106201171875
-0.0443115234375
0.009521484375
-0.0904541015625
0.003662109375
-0.0692138671875
0.0087890625
-0.030029296875
-0.0069580078125
0.0018310546875
0.0084228515625
-0.0062255859375
-0.0025634765625
0.0054931640625
0.0018310546875
-0.0025634765625
0.0010986328125
-0.0010986328125
-0.0032958984375
0.005859375
0.0025634765625
-0.0032958984375
-0.0062255859375
0.0029296875
0.00439453125
-0.005859375
-0.003662109375
0.0032958984375
0.0076904296875
-0.01171875
-0.0018310546875
-0.0084228515625
-0.0018310546875
-0.00146484375
0.009521484375
0.003662109375
0.00439453125
0.005859375
0.0091552734375
-0.00732421875
-0.000732421875
-0.006591796875
-0.037353515625
0.1336669921875
-0.0263671875
0.11279296875
0.0487060546875
-0.1424560546875
0.02783203125
-0.1226806640625
-0.000732421875
-0.024169921875
0.0047607421875
-0.0157470703125
-0.0003662109375
-0.015380859375
0.0084228515625
-0.037750244140625
-0.0032958984375
-0.027862548828125
0.002197265625
-0.0062255859375
-0.0084228515625
0.049102783203125
0.0029296875
0.046173095703125
0.0146484375
0.00732421875
0.005126953125
-0.00146484375
0.012451171875
-0.017578125
-0.0084228515625
-0.056427001953125
0.0
-0.115020751953125
0.0047607421875
-0.17138671875
0.032623291015625
0.031494140625
0.025634765625
0.258209228515625
-0.00146484375
0.117584228515625
0.005157470703125
0.0146484375
-0.008056640625
0.0289306640625
-0.000732421875
0.02490234375
-0.005889892578125
0.0260009765625
0.0054931640625
-0.01171875
-0.000732421875
-0.049072265625
0.0
-0.078369140625
0.003662109375
-0.0538330078125
-0.005859375
-0.005523681640625
0.003326416015625
-0.005157470703125
-0.006988525390625
0.009552001953125
0.0032958984375
-0.0032958984375
-0.0069580078125
0.005859375
-0.003662109375
0.0032958984375
-0.0029296875
0.00439453125
-0.010650634765625
0.009918212890625
-0.0040283203125
0.000732421875
-0.0113525390625
0.01025390625
-0.000732421875
-0.0003662109375
-0.0087890625
0.005126953125
-0.0032958984375
-0.0084228515625
-0.003662109375
0.0018310546875
0.003662109375
0.0084228515625
0.0040283203125
0.0062255859375
-0.0087890625
0.01171875
0.003662109375
-0.0201416015625
-0.0560302734375
0.177978515625
-0.0260009765625
0.1142578125
0.0413818359375
-0.1611328125
0.02490234375
-0.114990234375
0.000732421875
-0.0230712890625
-0.0054931640625
-0.00146484375
0.0025634765625
-0.018310546875
-0.0040283203125
-0.027496337890625
0.0054931640625
-0.038116455078125
-0.0113525390625
0.0098876953125
-0.0087890625
0.049835205078125
-0.0062255859375
0.054962158203125
0.0003662109375
0.0238037109375
0.0032958984375
0.0025634765625
-0.009521484375
0.0054931640625
-0.0062255859375
-0.058990478515625
-0.01318359375
-0.101104736328125
0.0029296875
-0.17724609375
0.01318359375
0.0509033203125
0.01171875
0.278717041015625
-0.0062255859375
0.123809814453125
-0.010986328125
0.03076171875
-0.003662109375
0.0260009765625
-0.0106201171875
0.037353515625
0.0029296875
0.01611328125
-0.002197265625
-0.0018310546875
0.0032958984375
-0.05419921875
-0.000732421875
-0.081298828125
-0.0010986328125
-0.0523681640625
0.003662109375
-0.0146484375
-0.0040283203125
0.00439453125
0.003662109375
-0.003662109375
-0.0069580078125
0.005126953125
0.0032958984375
-0.0029296875
-0.0047607421875
0.00732421875
-0.0029296875
0.002197265625
0.0
0.000732421875
-0.006591796875
0.005859375
0.00146484375
-0.0018310546875
-0.0084228515625
0.0087890625
0.0025634765625
-0.00732421875
-0.0091552734375
0.0
-0.0032958984375
0.0010986328125
0.0032958984375
0.0084228515625
0.0032958984375
0.005859375
0.0054931640625
-0.003662109375
0.0032958984375
-0.0322265625
-0.0582275390625
0.204345703125
-0.03076171875
0.1102294921875
0.0699462890625
-0.2222900390625
0.0234375
-0.08935546875
0.008056640625
-0.024169921875
0.012451171875
-0.0230712890625
0.0076904296875
-0.0223388671875
0.0150146484375
-0.043975830078125
0.0003662109375
-0.029693603515625
-0.0003662109375
0.0062255859375
-0.0113525390625
0.060455322265625
0.0025634765625
0.043243408203125
0.005859375
0.010986328125
0.0054931640625
-0.00146484375
0.006591796875
-0.0208740234375
-0.0135498046875
-0.065582275390625
-0.0003662109375
-0.121978759765625
0.0164794921875
-0.1435546875
0.024169921875
0.105133056640625
-0.00146484375
0.262603759765625
-0.0018310546875
0.0703125
0.0010986328125
0.017578125
-0.0054931640625
0.029296875
0.0054931640625
0.0205078125
0.000732421875
0.0164794921875
0.01171875
-0.0252685546875
0.003662109375
-0.0626220703125
0.0098876953125
-0.0882568359375
0.008056640625
-0.047607421875
0.00146484375
-0.00732421875
0.0054931640625
-0.00732421875
-0.0029296875
0.00146484375
0.00732421875
-0.0087890625
-0.0018310546875
0.000732421875
0.008087158203125
-0.008819580078125
-0.000732421875
0.00146484375
-0.004791259765625
0.0025634765625
0.0003662109375
-0.0003662109375
-0.008056640625
0.008087158203125
0.0003662109375
-0.0032958984375
-0.0084228515625
0.00146484375
-0.00439453125
-0.0069580078125
-0.0128173828125
0.0146484375
-0.0010986328125
0.0106201171875
-0.00146484375
0.0062255859375
-0.01171875
0.013916015625
0.0010986328125
-0.032989501953125
-0.0633544921875
0.2054443359375
-0.025634765625
0.102569580078125
0.04248046875
-0.1907958984375
0.01611328125
-0.0809326171875
-0.009521484375
-0.0084228515625
-0.0098876953125
-0.00146484375
-0.0018310546875
-0.0172119140625
-0.0084228515625
-0.023101806640625
-0.0018310546875
-0.025299072265625
-0.0164794921875
0.026397705078125
-0.0087890625
0.054595947265625
-0.005126953125
0.050537109375
0.00146484375
0.017578125
-0.00146484375
0.0040283203125
-0.0091552734375
-0.00732421875
-0.0062255859375
-0.073974609375
-0.010986328125
-0.120147705078125
0.0238037109375
-0.161529541015625
0.0120849609375
0.138458251953125
-0.002197265625
0.280548095703125
-0.0040283203125
0.0714111328125
-0.0054931640625
0.0234375
-0.0010986328125
0.0234375
-0.0091552734375
0.0340576171875
0.0047607421875
0.0076904296875
0.003662109375
-0.01611328125
0.012451171875
-0.06884765625
0.005859375
-0.08349609375
0.0084228515625
-0.050537109375
0.005126953125
-0.0113525390625
-0.00146484375
0.002197265625
0.005859375
-0.0047607421875
-0.0010986328125
0.00146484375
0.0076904296875
-0.0069580078125
-0.002197265625
0.0032958984375
0.0054931640625
-0.0047607421875
0.0040283203125
-0.0029296875
0.0
0.0
0.0047607421875
-0.003662109375
-0.0029296875
0.0040283203125
0.0054931640625
-0.009521484375
-0.0091552734375
-0.00146484375
-0.003662109375
0.0010986328125
0.0003662109375
0.01171875
0.00439453125
0.0047607421875
0.0010986328125
0.0010986328125
-0.00439453125
-0.0135498046875
-0.0494384765625
0.1724853515625
-0.035888671875
0.12890625
0.0472412109375
-0.172119140625
0.017578125
-0.1102294921875
0.0025634765625
-0.0234375
-0.00146484375
-0.0076904296875
-0.0018310546875
-0.017578125
0.0076904296875
-0.0384521484375
-0.0018310546875
-0.029327392578125
-0.0040283203125
0.0003662109375
-0.0194091796875
0.060089111328125
0.003662109375
0.0435791015625
0.0062255859375
0.018310546875
0.0029296875
0.00146484375
0.0003662109375
-0.006591796875
-0.0157470703125
-0.05126953125
-0.002197265625
-0.111358642578125
-0.0003662109375
-0.170318603515625
0.0230712890625
0.0435791015625
0.0062255859375
0.284210205078125
-0.0062255859375
0.118682861328125
0.0003662109375
0.018310546875
-0.0010986328125
0.0234375
-0.000732421875
0.028564453125
-0.0076904296875
0.0267333984375
0.0076904296875
-0.0150146484375
0.0054931640625
-0.0552978515625
0.015380859375
-0.09521484375
0.0
-0.0516357421875
-0.0003662109375
-0.0098876953125
0.002197265625
-0.002197265625
-0.01025390625
0.0106201171875
0.0018310546875
-0.00146484375
-0.0029296875
0.0025634765625
0.005859375
-0.005859375
-0.002197265625
0.0032958984375
-0.000732421875
0.0
-0.00146484375
0.000732421875
-0.0032958984375
0.002197265625
0.0029296875
-0.00439453125
-0.0029296875
-0.0010986328125
0.005126953125
-0.0150146484375
-0.003662109375
0.00146484375
0.0120849609375
-0.0010986328125
0.01025390625
0.0003662109375
0.0047607421875
-0.0025634765625
0.008056640625
-0.0267333984375
-0.0479736328125
0.158203125
-0.0164794921875
0.1014404296875
0.0450439453125
-0.1552734375
0.0296630859375
-0.112060546875
0.0
-0.021240234375
0.002197265625
-0.0146484375
0.0047607421875
-0.0216064453125
0.000732421875
-0.029327392578125
0.0047607421875
-0.034454345703125
-0.012451171875
0.0106201171875
-0.009521484375
0.049102783203125
-0.0084228515625
0.056427001953125
0.0029296875
0.0164794921875
-0.0032958984375
0.0062255859375
-0.0047607421875
-0.002197265625
-0.008056640625
-0.063751220703125
-0.0172119140625
-0.109161376953125
0.0069580078125
-0.172119140625
0.006591796875
0.100738525390625
0.0040283203125
0.288238525390625
-0.0098876953125
0.1021728515625
-0.0062255859375
0.024169921875
-0.005126953125
0.0267333984375
-0.0113525390625
0.0369873046875
-0.0018310546875
0.0186767578125
-0.00439453125
-0.005126953125
0.005126953125
-0.0567626953125
-0.0040283203125
-0.069580078125
0.0025634765625
-0.04833984375
0.0
-0.0076904296875
-0.0025634765625
0.0032958984375
0.0091552734375
-0.0091552734375
0.005859375
-0.0047607421875
0.0069580078125
-0.0062255859375
-0.0029296875
0.002197265625
0.0047607421875
-0.0062255859375
-0.002197265625
0.003662109375
0.0003662109375
0.0003662109375
0.000732421875
0.0003662109375
-0.0032958984375
0.0047607421875
0.0029296875
-0.0069580078125
-0.008056640625
-0.0018310546875
-0.0029296875
-0.005859375
-0.0047607421875
0.0135498046875
0.0040283203125
0.0087890625
-0.0010986328125
0.0032958984375
0.0
-0.0003662109375
-0.021240234375
0.0823974609375
-0.0391845703125
0.14501953125
0.0230712890625
-0.0721435546875
0.0289306640625
-0.147216796875
0.0084228515625
-0.041015625
-0.0029296875
-0.0076904296875
-0.00146484375
-0.0146484375
0.00146484375
-0.0274658203125
-0.0054931640625
-0.0234375
-0.00146484375
-0.01025390625
-0.0157470703125
0.046142578125
-0.0029296875
0.0538330078125
-0.0025634765625
0.0340576171875
0.00146484375
0.003662109375
-0.0003662109375
-0.000732421875
-0.0106201171875
-0.0333251953125
-0.00732421875
-0.092681884765625
-0.01171875
-0.162261962890625
0.03076171875
-0.0263671875
0.0098876953125
0.256744384765625
-0.0172119140625
0.172882080078125
-0.006591796875
0.030029296875
-0.0062255859375
0.0274658203125
-0.00439453125
0.029296875
-0.0069580078125
0.03076171875
0.005126953125
-0.0029296875
-0.0032958984375
-0.0340576171875
0.0062255859375
-0.08203125
0.000732421875
-0.064453125
0.0032958984375
-0.0216064453125
0.00146484375
-0.000732421875
-0.0040283203125
0.0025634765625
0.0010986328125
-0.0032958984375
-0.0032958984375
0.0029296875
0.0032958984375
-0.005126953125
-0.0062255859375
0.0076904296875
0.00146484375
-0.000732421875
-0.0040283203125
0.0025634765625
-0.0010986328125
0.0
0.0032958984375
-0.003662109375
-0.0047607421875
0.000732421875
0.000732421875
-0.010986328125
-0.0098876953125
0.0040283203125
0.0054931640625
0.0040283203125
0.0040283203125
0.0098876953125
0.003662109375
-0.0010986328125
0.0010986328125
-0.005859375
-0.034423828125
0.1007080078125
-0.0289306640625
0.1318359375
0.0245361328125
-0.08203125
0.03955078125
-0.156005859375
0.003662109375
-0.031494140625
0.0040283203125
-0.0135498046875
-0.0010986328125
-0.01611328125
0.002197265625
-0.0303955078125
0.0076904296875
-0.0384521484375
-0.0047607421875
-0.003662109375
-0.005126953125
0.0377197265625
-0.0069580078125
0.0596923828125
0.01025390625
0.0179443359375
0.0025634765625
0.0032958984375
0.0029296875
-0.006591796875
-0.0029296875
-0.0479736328125
-0.008056640625
-0.092681884765625
0.0010986328125
-0.163726806640625
0.030029296875
-0.018310546875
0.0263671875
0.229278564453125
-0.017578125
0.167388916015625
0.0040283203125
0.016845703125
0.00146484375
0.0179443359375
-0.00146484375
0.027099609375
0.0047607421875
0.0201416015625
0.0010986328125
0.002197265625
0.0087890625
-0.0498046875
0.0032958984375
-0.08056640625
0.013916015625
-0.0721435546875
0.0062255859375
-0.018310546875
0.005126953125
-0.0054931640625
0.00439453125
-0.005859375
0.0003662109375
0.0
0.0076904296875
-0.006591796875
-0.003662109375
0.0029296875
0.002197265625
-0.005126953125
-0.005126953125
0.0040283203125
0.0010986328125
0.0
0.0
0.002197265625
-0.005859375
0.0047607421875
-0.00146484375
-0.005859375
-0.0087890625
-0.0003662109375
-0.003662109375
0.0069580078125
-0.0047607421875
0.017578125
0.0032958984375
0.00146484375
-0.00439453125
0.0062255859375
-0.0003662109375
-0.0146484375
-0.050537109375
0.17138671875
-0.032958984375
0.11865234375
0.0450439453125
-0.166259765625
0.01611328125
-0.101806640625
0.0010986328125
-0.022705078125
-0.0087890625
-0.002197265625
-0.0032958984375
-0.01611328125
-0.005126953125
-0.0205078125
-0.0091552734375
-0.021240234375
-0.01171875
0.0076904296875
-0.01904296875
0.0604248046875
-0.0018310546875
0.04833984375
-0.003662109375
0.02783203125
0.0018310546875
0.0010986328125
-0.00732421875
0.0029296875
-0.0128173828125
-0.050537109375
-0.0087890625
-0.105133056640625
-0.0054931640625
-0.170684814453125
0.0194091796875
0.040679931640625
0.0069580078125
0.281280517578125
-0.0029296875
0.117919921875
-0.0069580078125
0.028564453125
-0.0029296875
0.025634765625
-0.00439453125
0.030029296875
-0.0018310546875
0.0216064453125
0.006591796875
-0.009521484375
-0.0029296875
-0.0457763671875
0.006591796875
-0.0889892578125
0.000732421875
-0.05419921875
0.00439453125
-0.017578125
-0.0029296875
0.00146484375
-0.0421142578125
0.05126953125
-0.0303955078125
0.0384521484375
