0.428863525390625
0.0721435546875
0.418975830078125
0.090087890625
-0.006591796875
0.018310546875
0.00146484375
-0.0142822265625
-0.000732421875
-0.022705078125
-0.0032958984375
-0.013916015625
-0.0545654296875
-0.006591796875
-0.0560302734375
-0.0029296875
-0.0194091796875
-0.009521484375
-0.0087890625
-0.0128173828125
-0.0029296875
-0.008056640625
0.0018310546875
-0.00146484375
0.0087890625
0.00146484375
0.0076904296875
0.0010986328125
0.02197265625
0.0
-0.0087890625
0.00732421875
-0.003662109375
0.006591796875
0.0128173828125
-0.0157470703125
0.005126953125
-0.01318359375
0.019775390625
0.0003662109375
0.0135498046875
-0.0025634765625
-0.025634765625
-0.000732421875
-0.0164794921875
-0.0032958984375
0.052001953125
-0.009521484375
0.061920166015625
-0.0084228515625
-0.017578125
-0.0047607421875
-0.122711181640625
-0.00439453125
-0.069580078125
-0.0054931640625
0.03662109375
-0.0098876953125
0.027099609375
-0.0069580078125
0.01611328125
-0.00732421875
0.0150146484375
-0.009521484375
0.0018310546875
-0.0054931640625
-0.0128173828125
-0.005126953125
0.0029296875
-0.00439453125
0.022705078125
-0.0062255859375
0.0025634765625
-0.0113525390625
0.003662109375
-0.01025390625
0.009521484375
-0.0062255859375
0.0098876953125
0.0018310546875
0.0018310546875
0.0135498046875
0.0018310546875
0.01318359375
0.005126953125
0.002197265625
0.0087890625
-0.005126953125
0.0260009765625
-0.002197265625
0.030426025390625
-0.0018310546875
0.035919189453125
-0.00439453125
0.02783203125
-0.0029296875
0.0377197265625
0.0003662109375
0.0673828125
0.0091552734375
0.0552978515625
-0.0010986328125
0.0252685546875
-0.005859375
0.06591796875
0.01171875
0.182037353515625
0.02490234375
0.139190673828125
0.0322265625
0.0157470703125
0.02490234375
-0.070709228515625
0.017578125
-0.119415283203125
0.0157470703125
-0.199951171875
0.0172119140625
-0.147216796875
0.01318359375
0.0003662109375
0.0062255859375
-0.052734375
0.0029296875
-0.0362548828125
0.0029296875
0.0347900390625
0.0032958984375
0.0457763671875
0.0010986328125
-0.041046142578125
-0.0003662109375
-0.081695556640625
-0.0018310546875
-0.0289306640625
-0.00439453125
-0.030029296875
-0.005126953125
-0.0120849609375
-0.003662109375
-0.010986328125
-0.0032958984375
0.0098876953125
-0.0040283203125
0.01025390625
-0.0032958984375
-0.005126953125
-0.0040283203125
0.01611328125
-0.0032958984375
0.0003662109375
-0.0029296875
0.0098876953125
-0.0029296875
0.0003662109375
-0.0025634765625
-0.0029296875
-0.0054931640625
-0.0010986328125
-0.0032958984375
0.0010986328125
0.005859375
0.0098876953125
-0.009521484375
-0.005859375
-0.017578125
0.0003662109375
-0.005126953125
-0.0054931640625
-0.0025634765625
0.01025390625
-0.00146484375
0.0274658203125
-0.0047607421875
0.022369384765625
-0.005859375
0.01025390625
0.000732421875
-0.003692626953125
0.005126953125
-0.000732421875
0.00146484375
0.0
-0.00146484375
0.008453369140625
0.0
0.034088134765625
0.0091552734375
0.1644287109375
0.0186767578125
0.2193603515625
0.0142822265625
0.149810791015625
0.0
0.066680908203125
-0.00732421875
0.000732421875
-0.0062255859375
-0.003662109375
-0.003662109375
0.0
-0.005126953125
0.006591796875
-0.00439453125
0.0
0.0
0.0
0.0029296875
-0.041778564453125
0.0047607421875
-0.077667236328125
0.0018310546875
-0.10986328125
-0.0010986328125
-0.1029052734375
-0.0025634765625
-0.0875244140625
-0.000732421875
-0.13037109375
0.0025634765625
-0.0626220703125
0.000732421875
0.0084228515625
-0.0003662109375
0.024169921875
-0.0025634765625
0.02490234375
-0.002197265625
0.0311279296875
0.0025634765625
0.0245361328125
0.005126953125
-0.0303955078125
0.005859375
-0.0238037109375
0.002197265625
-0.112823486328125
0.002197265625
-0.128936767578125
0.0113525390625
-0.0849609375
0.0289306640625
-0.069580078125
0.0047607421875
-0.010986328125
-0.0157470703125
-0.046875
-0.00146484375
-0.0574951171875
-0.0025634765625
-0.0640869140625
-0.0003662109375
-0.0296630859375
0.0018310546875
-0.0018310546875
0.000732421875
-0.0142822265625
-0.0098876953125
-0.050201416015625
-0.010986328125
-0.076934814453125
0.0010986328125
-0.0179443359375
0.003662109375
0.056396484375
0.0003662109375
0.074737548828125
0.00146484375
0.007354736328125
0.0040283203125
-0.0120849609375
0.0018310546875
0.0186767578125
0.0
0.0380859375
0.00146484375
0.0556640625
0.00146484375
0.0487060546875
0.0010986328125
0.028564453125
0.02490234375
0.027099609375
-0.0018310546875
0.03515625
-0.0281982421875
0.030029296875
-0.002197265625
0.0399169921875
-0.0003662109375
0.03076171875
-0.0010986328125
0.030029296875
0.0010986328125
0.0406494140625
0.0025634765625
0.0384521484375
0.000732421875
0.0333251953125
-0.0018310546875
0.0084228515625
-0.0025634765625
0.0238037109375
-0.0018310546875
0.025665283203125
-0.00146484375
0.042510986328125
0.000732421875
0.0245361328125
0.0
-0.0399169921875
-0.0029296875
-0.022705078125
-0.005859375
0.016845703125
-0.008056640625
0.0516357421875
-0.0018310546875
0.0098876953125
0.002197265625
-0.0362548828125
0.005126953125
0.238037109375
0.0062255859375
0.288970947265625
0.0010986328125
0.046539306640625
0.0010986328125
-0.086090087890625
0.0040283203125
-0.35821533203125
0.0062255859375
0.035888671875
0.0076904296875
0.36553955078125
0.00439453125
0.063018798828125
0.0
0.0
0.00146484375
0.000732421875
0.0047607421875
0.0
0.0054931640625
0.0
0.0040283203125
0.0
0.0047607421875
0.0
-0.0113525390625
-0.0003662109375
-0.0150146484375
-0.00439453125
-0.000732421875
-0.0003662109375
0.005859375
0.00439453125
0.0084228515625
0.000732421875
0.005859375
0.0
0.0084228515625
0.0
0.006591796875
0.0
0.003662109375
0.0
0.00146484375
0.0
0.0018310546875
0.0
0.016845703125
0.0
0.0216064453125
0.0
0.012451171875
0.0
0.0106201171875
0.0003662109375
0.0062255859375
0.0
0.0
-0.0003662109375
-0.0032958984375
0.0
-0.00439453125
0.0
-0.005126953125
0.0
-0.0069580078125
0.0
-0.0076904296875
0.0
-0.00732421875
0.0
-0.0076904296875
0.0
-0.0084228515625
0.0
-0.0069580078125
0.0
-0.0062255859375
0.0
-0.00732421875
0.0
-0.005859375
0.0
-0.0040283203125
0.0
-0.0040283203125
0.0
-0.0040283203125
0.0
-0.002197265625
0.0
-0.00146484375
0.0
-0.0003662109375
0.0
-0.0003662109375
0.0
-0.0032958984375
0.0
-0.002197265625
-0.0040283203125
-0.0003662109375
-0.000732421875
-0.000732421875
0.0029296875
-0.0025634765625
0.0003662109375
-0.0029296875
-0.015380859375
0.017578125
-0.0135498046875
0.0
-0.000732421875
-0.0238037109375
0.0047607421875
-0.0076904296875
0.0172119140625
-0.000732421875
0.0054931640625
0.0025634765625
-0.0040283203125
0.0010986328125
-0.0194091796875
0.002197265625
0.003662109375
0.00439453125
0.0201416015625
0.005859375
-0.50286865234375
0.006591796875
-0.50030517578125
0.0062255859375
0.146484375
0.003662109375
-0.0010986328125
0.0029296875
-0.142822265625
0.005126953125
-0.0853271484375
0.00439453125
-0.118316650390625
0.0040283203125
-0.046905517578125
0.005126953125
0.113922119140625
0.0047607421875
0.083892822265625
0.006591796875
0.027099609375
0.0087890625
0.1365966796875
0.0047607421875
0.091552734375
0.0029296875
0.071044921875
0.0032958984375
0.084625244140625
0.0
0.051666259765625
-0.0040283203125
0.02197265625
-0.0040283203125
0.00439453125
-0.0018310546875
0.005859375
-0.0029296875
0.0479736328125
-0.0047607421875
0.0234375
-0.00439453125
0.0567626953125
-0.0040283203125
0.0465087890625
-0.0054931640625
-0.01171875
0.015380859375
0.1563720703125
-0.0029296875
0.0897216796875
-0.0296630859375
-0.126708984375
-0.0084228515625
-0.1065673828125
-0.0003662109375
0.0567626953125
-0.0018310546875
0.1051025390625
-0.003662109375
0.110260009765625
-0.00732421875
-0.0223388671875
-0.00732421875
-0.136260986328125
-0.0032958984375
-0.021240234375
-0.0029296875
0.0018310546875
-0.0040283203125
0.0772705078125
-0.0018310546875
0.0369873046875
0.00439453125
0.0146484375
0.0047607421875
0.0322265625
0.000732421875
0.053863525390625
-0.0018310546875
0.071441650390625
-0.0029296875
0.0054931640625
-0.0029296875
0.0
-0.0029296875
-0.0032958984375
-0.002197265625
0.0
-0.00146484375
-0.0069580078125
-0.00146484375
-0.0084228515625
-0.000732421875
-0.027130126953125
0.000732421875
-0.051300048828125
0.021240234375
-0.021240234375
0.00146484375
-0.030029296875
-0.022705078125
-0.0443115234375
-0.0054931640625
-0.060791015625
-0.0018310546875
-0.034423828125
-0.00146484375
-0.0032958984375
-0.0032958984375
-0.0025634765625
-0.002197265625
0.06884765625
0.0
0.0399169921875
0.000732421875
-0.0205078125
-0.0040283203125
0.0208740234375
-0.0087890625
0.105499267578125
-0.0062255859375
0.079132080078125
-0.00439453125
0.0
-0.0029296875
0.0
0.0
0.0
0.0018310546875
0.0
0.000732421875
0.0
0.0128173828125
0.0
0.0029296875
0.0
-0.0120849609375
0.0
-0.0040283203125
-0.37286376953125
-0.0047607421875
-0.52777099609375
-0.00732421875
0.067413330078125
-0.0062255859375
0.52777099609375
-0.005126953125
0.0941162109375
-0.0010986328125
0.0
0.005126953125
0.211334228515625
0.003662109375
-0.832855224609375
0.003662109375
-0.89697265625
0.0018310546875
-0.47576904296875
-0.0003662109375
-0.60247802734375
0.0010986328125
0.0128173828125
-0.000732421875
1.0
-0.0029296875
0.744598388671875
-0.0029296875
-0.49371337890625
-0.0018310546875
-0.9482421875
0.0018310546875
-0.728851318359375
0.003662109375
0.0
0.0018310546875
0.0
0.0010986328125
0.0
0.00146484375
0.0
0.0018310546875
0.0
0.003662109375
0.0
0.00439453125
0.0
0.0047607421875
0.0
0.0047607421875
0.0
0.005859375
0.0
0.005126953125
0.0
0.003662109375
0.0
0.006591796875
0.0
0.0069580078125
0.0
0.003662109375
0.0
0.0054931640625
0.0
0.029296875
0.0
0.0087890625
0.0
-0.0172119140625
0.0
0.0018310546875
0.0
0.0040283203125
0.0
0.000732421875
0.00439453125
-0.0029296875
0.0098876953125
-0.003662109375
0.046905517578125
0.00146484375
0.089019775390625
0.0054931640625
0.0985107421875
-0.0010986328125
0.088623046875
-0.006591796875
0.0435791015625
-0.003662109375
0.0296630859375
-0.002197265625
0.0655517578125
-0.003662109375
0.134429931640625
-0.002197265625
0.110260009765625
-0.0003662109375
0.029296875
0.00146484375
-0.0087890625
0.006591796875
0.029296875
0.008056640625
0.08203125
0.008056640625
0.0472412109375
0.0087890625
0.044677734375
0.0164794921875
0.009521484375
0.0234375
0.04248046875
0.0157470703125
-0.46697998046875
0.00732421875
-0.52960205078125
0.0018310546875
0.0
0.0003662109375
0.0
0.00146484375
0.0
-0.0018310546875
0.0146484375
-0.0032958984375
0.096710205078125
-0.0025634765625
0.087188720703125
-0.0029296875
0.06884765625
-0.0040283203125
0.13037109375
-0.0025634765625
0.10986328125
0.0010986328125
0.109161376953125
0.0025634765625
0.0439453125
0.0003662109375
0.037353515625
0.00146484375
0.052398681640625
0.002197265625
0.06298828125
-0.000732421875
0.0948486328125
0.024169921875
0.0194091796875
0.00439453125
0.027099609375
-0.0274658203125
-0.0216064453125
-0.008056640625
-0.0040283203125
0.0
0.0457763671875
0.0003662109375
-0.01025390625
-0.0018310546875
-0.0391845703125
-0.0003662109375
-0.053466796875
0.002197265625
0.0238037109375
0.002197265625
0.079833984375
-0.0003662109375
0.1087646484375
-0.0025634765625
0.0802001953125
-0.0029296875
0.058990478515625
0.000732421875
0.239166259765625
0.000732421875
0.65264892578125
-0.0032958984375
0.39813232421875
-0.00439453125
-0.132965087890625
-0.0029296875
-0.097808837890625
-0.0003662109375
-0.040283203125
-0.0025634765625
0.000732421875
-0.003662109375
0.00732421875
0.0025634765625
-0.012451171875
0.012451171875
-0.0406494140625
-0.0054931640625
-0.00732421875
-0.012451171875
0.03369140625
0.002197265625
0.0311279296875
-0.0018310546875
-0.0142822265625
-0.0025634765625
-0.085693359375
0.0003662109375
-0.06298828125
0.0018310546875
-0.0281982421875
0.000732421875
0.0406494140625
0.0010986328125
0.0263671875
-0.00146484375
-0.0230712890625
-0.0047607421875
0.0296630859375
-0.0018310546875
0.256378173828125
-0.0010986328125
0.174713134765625
-0.00146484375
-0.1256103515625
-0.000732421875
-0.156768798828125
0.000732421875
-1.0
0.01318359375
-0.948211669921875
0.01318359375
-0.0205078125
-0.01025390625
0.029296875
-0.0113525390625
0.0556640625
-0.0010986328125
0.0498046875
-0.0003662109375
0.0849609375
0.002197265625
0.100738525390625
0.002197265625
0.083160400390625
0.000732421875
0.0728759765625
0.0003662109375
0.0230712890625
0.0
0.0816650390625
-0.002197265625
0.07470703125
-0.0040283203125
0.0615234375
-0.00439453125
0.0406494140625
-0.0018310546875
0.0087890625
0.0018310546875
0.0523681640625
0.002197265625
0.057159423828125
0.000732421875
0.092315673828125
0.0003662109375
0.0648193359375
0.0
0.269561767578125
-0.000732421875
0.69110107421875
-0.002197265625
0.480133056640625
-0.0029296875
0.07470703125
0.00439453125
0.064117431640625
0.005859375
0.044342041015625
-0.0106201171875
-0.0003662109375
-0.01171875
0.01318359375
0.0025634765625
0.0120849609375
0.0032958984375
0.0
-0.000732421875
0.0
-0.00146484375
0.0
-0.003662109375
0.0
-0.0054931640625
0.0
-0.0047607421875
0.0
-0.00439453125
0.0
-0.00146484375
0.0
0.0003662109375
0.0
-0.002197265625
0.0
-0.00146484375
0.0
-0.000732421875
0.0
-0.0025634765625
0.0
0.005126953125
0.0
0.00146484375
0.0
-0.013916015625
0.0
-0.0098876953125
0.0
-0.00146484375
0.0
-0.00146484375
0.0
-0.0018310546875
0.0
-0.0003662109375
0.0
-0.0010986328125
0.0
-0.00146484375
-0.00146484375
-0.002197265625
-0.0003662109375
0.0
-0.070709228515625
0.0010986328125
-0.049468994140625
-0.00146484375
-0.0238037109375
-0.0010986328125
-0.61163330078125
-0.0010986328125
-0.74127197265625
0.0
-0.15087890625
-0.0003662109375
0.140625
-0.00146484375
0.0948486328125
-0.000732421875
0.249786376953125
0.0010986328125
0.273223876953125
0.025634765625
-0.349029541015625
0.005126953125
-0.432525634765625
-0.025634765625
-0.105865478515625
-0.0076904296875
-0.016143798828125
0.0
-0.0040283203125
0.00146484375
0.056060791015625
0.0010986328125
0.077667236328125
0.0018310546875
0.0479736328125
0.0040283203125
0.0205078125
0.0018310546875
-0.005859375
-0.00146484375
0.0487060546875
-0.00146484375
0.0673828125
-0.0018310546875
0.0626220703125
-0.0010986328125
0.0421142578125
-0.000732421875
0.0582275390625
-0.0003662109375
0.0655517578125
-0.002197265625
0.055694580078125
-0.0029296875
0.040313720703125
-0.0010986328125
0.00146484375
0.022705078125
-0.063751220703125
0.0
-0.045074462890625
-0.027099609375
0.049468994140625
-0.0040283203125
0.058624267578125
-0.000732421875
0.06298828125
-0.0047607421875
0.0003662109375
-0.003662109375
0.010986328125
-0.00146484375
0.068115234375
-0.0018310546875
-0.147613525390625
-0.00146484375
-0.0406494140625
-0.0040283203125
-0.226348876953125
-0.003662109375
-0.44354248046875
0.0
-0.1439208984375
0.002197265625
-0.0662841796875
0.0010986328125
-0.0545654296875
0.00146484375
0.0362548828125
0.0062255859375
0.1087646484375
0.005859375
0.060791015625
0.0076904296875
0.132232666015625
0.0062255859375
0.156036376953125
-0.0003662109375
0.0
-0.0018310546875
-0.056396484375
0.0010986328125
0.134033203125
0.003662109375
0.1922607421875
0.0025634765625
0.0926513671875
0.0010986328125
0.066314697265625
0.0040283203125
-0.0205078125
0.0223388671875
0.0399169921875
0.0
0.140289306640625
-0.0208740234375
0.1142578125
-0.0040283203125
0.0736083984375
-0.0010986328125
-0.0501708984375
-0.000732421875
0.02783203125
-0.00146484375
0.064453125
-0.0029296875
0.187530517578125
-0.005126953125
-0.034423828125
-0.0069580078125
-0.120147705078125
-0.00732421875
0.05126953125
-0.005859375
-0.413116455078125
-0.006591796875
-0.15234375
-0.0106201171875
0.346832275390625
-0.0087890625
0.186767578125
-0.00439453125
-0.08935546875
-0.00439453125
-0.06591796875
-0.00146484375
0.243560791015625
0.0010986328125
0.42340087890625
-0.002197265625
0.1285400390625
-0.0010986328125
0.0106201171875
0.005126953125
0.095977783203125
0.005126953125
-0.073638916015625
0.0029296875
-0.119781494140625
0.0018310546875
-0.1175537109375
0.017578125
-0.0703125
-0.0003662109375
-0.0205078125
-0.0205078125
0.0582275390625
0.0
0.0120849609375
0.00439453125
-0.0596923828125
0.0018310546875
-0.0205078125
-0.0003662109375
-0.0010986328125
-0.0003662109375
0.0567626953125
0.0025634765625
0.006591796875
0.005126953125
-0.00146484375
-0.0029296875
0.209503173828125
-0.009521484375
0.150543212890625
-0.00439453125
-0.072174072265625
-0.0010986328125
-0.076568603515625
-0.0010986328125
0.072174072265625
-0.0032958984375
0.035888671875
-0.0025634765625
-0.123077392578125
-0.000732421875
-0.14501953125
-0.00146484375
-0.0699462890625
-0.0010986328125
-0.265899658203125
0.0
-0.45343017578125
0.0003662109375
-0.199981689453125
0.0018310546875
0.275787353515625
0.002197265625
0.302154541015625
0.0
-0.1505126953125
-0.0018310546875
-0.11865234375
-0.0025634765625
0.401031494140625
0.0234375
0.334381103515625
0.0040283203125
-0.1541748046875
-0.0267333984375
-0.206207275390625
-0.0062255859375
-0.046539306640625
0.0010986328125
0.010986328125
0.002197265625
0.049468994140625
0.0010986328125
0.104400634765625
-0.0040283203125
0.271392822265625
-0.002197265625
0.245025634765625
0.0029296875
0.0
0.0029296875
0.0
0.0018310546875
0.0
0.0029296875
0.0
0.003662109375
0.0
0.0029296875
0.0
0.0040283203125
0.0
0.006591796875
0.0
0.005859375
0.0
0.00146484375
0.0
0.0047607421875
-0.008056640625
0.006591796875
0.0
0.000732421875
0.008056640625
-0.0029296875
0.0
0.0003662109375
0.0
0.0029296875
-0.0234375
0.0010986328125
-0.00439453125
0.0
0.0205078125
-0.0010986328125
-0.003662109375
-0.0029296875
0.0018310546875
0.0018310546875
-0.029693603515625
0.0087890625
-0.0040283203125
0.006591796875
0.024932861328125
0.0018310546875
0.00439453125
-0.0003662109375
0.000732421875
-0.000732421875
-0.043609619140625
0.0003662109375
-0.0062255859375
0.000732421875
0.044342041015625
0.000732421875
0.018310546875
0.0003662109375
0.0
-0.0003662109375
0.0
-0.000732421875
0.0
0.018310546875
-0.167388916015625
0.0032958984375
-0.166656494140625
-0.0216064453125
-0.1051025390625
-0.006591796875
-0.0985107421875
0.00146484375
-0.053497314453125
0.002197265625
0.0179443359375
0.0010986328125
0.069244384765625
0.000732421875
-0.043212890625
-0.0010986328125
-0.0347900390625
-0.000732421875
-0.039947509765625
0.0
0.0421142578125
-0.0029296875
0.049835205078125
-0.002197265625
-0.01171875
0.00146484375
-0.0322265625
0.0029296875
-0.093780517578125
0.0029296875
-0.016876220703125
0.0025634765625
0.022705078125
0.00146484375
0.063018798828125
0.0025634765625
0.069610595703125
0.0040283203125
0.03369140625
0.0032958984375
0.029296875
0.00439453125
0.056396484375
0.0029296875
0.1435546875
0.003662109375
0.084228515625
0.0069580078125
-0.0263671875
0.0040283203125
-0.0120849609375
-0.0029296875
0.083526611328125
-0.01171875
0.054931640625
-0.0120849609375
0.0186767578125
-0.0216064453125
-0.0618896484375
-0.022705078125
-0.072906494140625
-0.0069580078125
0.0113525390625
-0.00439453125
0.0032958984375
-0.002197265625
-0.0260009765625
-0.0018310546875
-0.081298828125
-0.0032958984375
0.0106201171875
-0.00146484375
0.01318359375
-0.0025634765625
0.0615234375
-0.0076904296875
0.016845703125
-0.0062255859375
-0.0999755859375
-0.000732421875
-0.06005859375
0.0
-0.0384521484375
-0.0029296875
0.0457763671875
-0.005126953125
-0.010986328125
-0.005859375
-0.07177734375
-0.003662109375
-0.121978759765625
-0.0003662109375
-0.0347900390625
-0.003662109375
0.099273681640625
-0.031494140625
0.0384521484375
-0.0303955078125
0.0223388671875
-0.002197265625
-0.05712890625
0.0018310546875
0.012451171875
0.00146484375
0.05419921875
0.0
0.1226806640625
-0.0010986328125
0.126708984375
0.0
0.068511962890625
-0.002197265625
0.093414306640625
-0.0029296875
0.0
0.00146484375
0.0
0.0010986328125
0.0
0.0018310546875
0.0
0.002197265625
0.0
0.019775390625
0.0
0.0
0.0
-0.0208740234375
0.0
0.000732421875
0.0
0.0040283203125
0.0
0.0025634765625
0.0
0.0018310546875
0.0
0.000732421875
0.0
-0.0003662109375
0.0
0.002197265625
0.0
0.0018310546875
0.0
0.0003662109375
0.0
0.0018310546875
0.0
0.0029296875
0.0
0.0076904296875
-0.0025634765625
0.0091552734375
0.0
0.0018310546875
0.0025634765625
-0.0010986328125
0.0
0.0003662109375
0.0
0.002197265625
0.0
0.0029296875
0.0
0.00146484375
0.0
0.0010986328125
0.0
0.0018310546875
0.0
0.0025634765625
0.0
0.018310546875
0.0
-0.0010986328125
0.0
-0.0194091796875
0.0
0.0003662109375
0.0
0.002197265625
-0.0025634765625
0.0025634765625
0.0
0.0018310546875
0.0025634765625
0.0018310546875
0.0
0.0040283203125
-0.0003662109375
0.0032958984375
0.0
0.0
0.0003662109375
0.0003662109375
0.0
0.0018310546875
0.0
-0.0003662109375
-0.0003662109375
-0.0010986328125
0.0
0.000732421875
0.0
0.0040283203125
0.0
0.003662109375
0.0003662109375
0.0
0.0
0.0003662109375
0.0
0.0010986328125
0.0
0.002197265625
0.0
0.0010986328125
0.0003662109375
-0.0003662109375
0.0
0.0010986328125
-0.0003662109375
0.0003662109375
-0.0040283203125
0.0003662109375
0.0
0.0
0.0040283203125
-0.00146484375
0.0
-0.0010986328125
0.0
0.0146484375
-0.0135498046875
0.002197265625
0.0
-0.012451171875
0.0135498046875
0.002197265625
0.0
0.0032958984375
0.0
0.0025634765625
-0.018310546875
0.0076904296875
-0.0157470703125
0.0076904296875
0.016845703125
0.002197265625
0.005859375
0.002197265625
0.0018310546875
0.0003662109375
0.0098876953125
0.0003662109375
-0.0003662109375
0.01318359375
0.0
0.0238037109375
0.0
0.0142822265625
0.0
0.006591796875
-0.006591796875
0.0069580078125
0.0
0.008056640625
0.006591796875
0.0106201171875
0.0
0.00439453125
0.0
-0.0010986328125
-0.013916015625
-0.003662109375
-0.0098876953125
-0.0047607421875
0.013916015625
-0.00146484375
0.0098876953125
-0.00146484375
0.0
-0.0025634765625
0.0
-0.0025634765625
0.0
0.0179443359375
0.0
-0.0025634765625
0.0
-0.0281982421875
0.0
-0.0076904296875
0.0
-0.0029296875
0.0
-0.0018310546875
0.0
-0.002197265625
0.0
-0.0032958984375
0.0
-0.0032958984375
-0.0062255859375
-0.003662109375
-0.0084228515625
-0.005859375
-0.156036376953125
-0.005859375
-0.34136962890625
-0.0025634765625
-0.210601806640625
-0.00146484375
-0.175048828125
-0.000732421875
-0.1622314453125
0.0
0.0281982421875
-0.0003662109375
0.085693359375
-0.0010986328125
0.1124267578125
-0.000732421875
-0.0267333984375
-0.000732421875
-0.1259765625
0.0
-0.0523681640625
-0.0003662109375
0.0941162109375
-0.0003662109375
0.1380615234375
0.0003662109375
-0.0113525390625
0.0003662109375
0.202178955078125
0.0
0.209869384765625
-0.002197265625
0.179473876953125
-0.0010986328125
0.217559814453125
0.0
0.0087890625
-0.0003662109375
0.0
0.0216064453125
-0.0003662109375
0.0018310546875
-0.00439453125
-0.0263671875
0.0003662109375
-0.0091552734375
-0.0025634765625
-0.003662109375
-0.061920166015625
-0.00146484375
-0.075103759765625
0.0
-0.0142822265625
-0.0003662109375
0.067779541015625
-0.000732421875
0.0029296875
0.000732421875
-0.058624267578125
0.0010986328125
-0.0289306640625
0.0003662109375
0.01025390625
-0.000732421875
0.102203369140625
-0.0025634765625
0.062652587890625
-0.0018310546875
0.0
0.0003662109375
0.0
0.0003662109375
0.0
0.0003662109375
0.0
0.0010986328125
0.0
0.0003662109375
0.0
0.0032958984375
0.0
0.01025390625
0.0
-0.005859375
0.0
-0.01171875
0.0
0.0
0.0
0.0003662109375
0.0
0.0025634765625
0.0
0.0032958984375
0.0
0.003662109375
0.0
0.003662109375
0.0
0.0003662109375
0.0
-0.00439453125
0.0
-0.0032958984375
0.0
0.0003662109375
0.0
0.0010986328125
0.0
0.0
0.0
-0.0010986328125
0.0
0.000732421875
0.0
0.0032958984375
0.0
0.0010986328125
0.0
-0.0018310546875
0.0
-0.00146484375
0.0
0.0
0.0
0.0
0.0
-0.00146484375
0.0
-0.0025634765625
0.0
-0.0032958984375
0.0
-0.00146484375
0.0
0.000732421875
0.0
0.0003662109375
0.0
-0.0018310546875
0.0
0.005859375
-0.034820556640625
0.0062255859375
-0.200347900390625
-0.0106201171875
-0.1717529296875
-0.0084228515625
-0.0648193359375
-0.00146484375
-0.229278564453125
-0.0025634765625
-0.279083251953125
-0.0003662109375
0.43548583984375
-0.0018310546875
0.54425048828125
-0.00146484375
0.0003662109375
0.0003662109375
0.0
-0.0010986328125
0.0
-0.0010986328125
0.0
-0.0003662109375
0.0
-0.00146484375
0.0
-0.002197265625
0.0
-0.000732421875
-0.0135498046875
0.000732421875
-0.0003662109375
0.0003662109375
0.0135498046875
-0.00146484375
0.0003662109375
-0.0003662109375
0.0
0.0018310546875
-0.272125244140625
0.0018310546875
-0.712005615234375
0.0018310546875
-0.45855712890625
0.000732421875
0.130767822265625
-0.0003662109375
0.730682373046875
-0.00146484375
0.358917236328125
0.0
-0.35968017578125
-0.0018310546875
0.222320556640625
-0.008056640625
0.35968017578125
-0.0062255859375
0.0
-0.0029296875
-0.046173095703125
-0.000732421875
-0.145782470703125
0.0025634765625
-0.0501708984375
0.0018310546875
0.0435791015625
0.0
0.0611572265625
0.0216064453125
0.0164794921875
0.0003662109375
-0.1102294921875
-0.0245361328125
-0.0618896484375
-0.0010986328125
0.0589599609375
0.0029296875
0.136260986328125
0.00146484375
0.086456298828125
-0.0010986328125
0.0113525390625
0.000732421875
0.0
0.00439453125
0.0
0.003662109375
0.0
-0.000732421875
0.0
-0.00146484375
0.0
0.002197265625
0.0
0.00146484375
0.0
-0.0018310546875
0.0
0.0
0.0
0.0018310546875
0.0
0.0003662109375
0.0
0.0
0.0
0.0
0.0
0.00146484375
0.0
0.0003662109375
0.0
-0.00146484375
0.0
-0.000732421875
0.0
0.0018310546875
0.0
0.0040283203125
0.0
0.0025634765625
0.0
0.0018310546875
0.0
0.00146484375
-0.0003662109375
0.0
0.0
0.000732421875
0.0003662109375
0.002197265625
0.0
0.0025634765625
0.0
0.005126953125
0.0
0.0025634765625
0.0
0.0
0.0
0.002197265625
0.0
0.002197265625
0.0
0.017578125
0.0
-0.0003662109375
0.0
-0.0194091796875
0.0
-0.0032958984375
0.0
-0.0003662109375
0.0
-0.00146484375
0.0
-0.0018310546875
0.0
-0.000732421875
0.0
-0.0003662109375
0.0
-0.00146484375
0.0
-0.0032958984375
0.0
-0.0032958984375
0.0
-0.0003662109375
0.0
0.0010986328125
0.0
0.0
0.0
0.0003662109375
0.0
0.0
0.0
-0.0003662109375
0.0
0.0010986328125
0.0
0.00146484375
-0.0029296875
0.0003662109375
-0.034423828125
0.0
-0.043975830078125
0.0018310546875
0.0252685546875
0.0025634765625
0.046173095703125
0.0010986328125
0.0091552734375
0.000732421875
-0.021240234375
0.00146484375
-0.086090087890625
0.0010986328125
0.00732421875
-0.0018310546875
0.05126953125
-0.00146484375
0.0146484375
0.0018310546875
0.016510009765625
0.00146484375
0.0
0.0003662109375
0.018310546875
0.0
0.0
-0.0003662109375
0.0
0.00146484375
0.0
0.0062255859375
-0.097076416015625
0.018310546875
0.0
-0.002197265625
0.097076416015625
-0.013916015625
-0.0032958984375
0.0054931640625
-0.242095947265625
0.0062255859375
-0.285675048828125
0.0032958984375
-0.185699462890625
0.0003662109375
0.0384521484375
0.000732421875
0.178375244140625
0.005859375
0.0845947265625
0.0098876953125
-0.137725830078125
0.0062255859375
-0.214630126953125
0.0040283203125
0.38714599609375
0.0047607421875
0.104400634765625
0.008056640625
-0.291900634765625
0.01611328125
-0.111358642578125
0.0150146484375
0.07177734375
0.0084228515625
0.103302001953125
0.0054931640625
-0.0772705078125
0.0032958984375
0.043212890625
0.000732421875
-0.066314697265625
0.00439453125
0.009521484375
0.0047607421875
-0.082763671875
0.0296630859375
0.147216796875
0.0516357421875
0.166656494140625
0.0289306640625
0.073638916015625
0.0076904296875
0.279815673828125
-0.002197265625
0.0106201171875
-0.0054931640625
0.0
-0.0054931640625
0.0
-0.005126953125
0.0
-0.005126953125
0.0
-0.0062255859375
0.0
-0.005126953125
0.0
-0.00439453125
0.0
-0.0047607421875
0.0
-0.0032958984375
0.0
-0.003662109375
0.0
-0.003662109375
0.0
-0.0047607421875
0.0
-0.0047607421875
0.0
-0.005126953125
0.0
-0.005859375
0.0
-0.005859375
0.0
0.015380859375
0.0
-0.0047607421875
0.0
-0.0201416015625
0.0
0.00439453125
0.0
0.0
0.0
-0.0010986328125
0.0
-0.0003662109375
0.0
0.0010986328125
0.0
0.00146484375
0.0
0.0010986328125
0.0
-0.0032958984375
-0.47979736328125
-0.0054931640625
-0.305816650390625
-0.0010986328125
0.201446533203125
0.0003662109375
0.305816650390625
-0.00732421875
0.278717041015625
-0.0098876953125
0.0
-0.003662109375
-0.0003662109375
-0.0010986328125
-0.315704345703125
0.00146484375
-1.0
0.005126953125
-1.0
0.00732421875
0.0
0.0025634765625
0.0
-0.00146484375
0.0
-0.002197265625
0.0
-0.0029296875
0.031494140625
-0.0062255859375
1.0
-0.0120849609375
1.0
-0.0032958984375
0.0
0.0010986328125
-0.47943115234375
-0.0010986328125
-0.9786376953125
0.00146484375
-0.912322998046875
0.00146484375
-0.283111572265625
-0.00146484375
1.0
-0.00732421875
1.0
-0.0054931640625
0.0
0.01611328125
0.0
-0.000732421875
0.0
-0.022705078125
0.0
-0.005859375
-0.000732421875
-0.0029296875
0.0
-0.002197265625
0.000732421875
-0.0018310546875
-1.0
-0.000732421875
-1.0
0.000732421875
0.145416259765625
-0.0003662109375
0.810516357421875
-0.0018310546875
0.140625
-0.003662109375
-0.440582275390625
-0.0029296875
-0.207275390625
-0.000732421875
-0.36993408203125
-0.0003662109375
-0.071075439453125
-0.000732421875
0.185333251953125
-0.0029296875
0.193756103515625
-0.006591796875
0.380889892578125
-0.0047607421875
0.54864501953125
-0.002197265625
0.147613525390625
-0.0032958984375
-0.750091552734375
-0.000732421875
-0.713836669921875
0.000732421875
0.0
-0.0010986328125
0.0
0.00146484375
0.273590087890625
-0.0010986328125
0.0
-0.0032958984375
-0.273590087890625
-0.000732421875
0.0
-0.0010986328125
0.44757080078125
-0.0018310546875
0.093780517578125
0.0029296875
-0.44757080078125
0.0091552734375
-0.093780517578125
-0.0076904296875
0.0
-0.010986328125
0.0
0.00146484375
0.0
-0.0003662109375
0.0
-0.0010986328125
0.0
-0.0003662109375
0.124542236328125
0.002197265625
1.0
0.0010986328125
0.72442626953125
0.0
0.37872314453125
-0.0047607421875
0.650482177734375
-0.0069580078125
0.0
-0.00146484375
0.0
-0.0003662109375
0.0
-0.0003662109375
0.0
0.000732421875
0.0
0.006591796875
0.0
0.003662109375
0.0
-0.0098876953125
0.0
-0.005126953125
0.0
0.0003662109375
0.0
0.002197265625
0.0
0.0047607421875
-0.262969970703125
0.00146484375
-0.609832763671875
0.000732421875
0.262969970703125
0.003662109375
0.609832763671875
0.0047607421875
0.0
-0.00146484375
0.0
0.000732421875
0.0
0.0062255859375
0.0
0.003662109375
0.0
0.0047607421875
-0.45050048828125
0.008056640625
-0.37213134765625
0.003662109375
0.45050048828125
-0.0098876953125
0.37213134765625
-0.0113525390625
0.0
0.0
0.0
0.0018310546875
0.0
0.0029296875
-0.055328369140625
0.0062255859375
-0.0003662109375
0.0223388671875
0.054229736328125
0.0003662109375
-0.49700927734375
-0.01904296875
-0.189727783203125
-0.000732421875
-0.696624755859375
0.0025634765625
-1.0
0.0047607421875
-0.305450439453125
0.0029296875
0.0
0.0029296875
0.0
0.0040283203125
0.0
0.0040283203125
0.0
-0.0003662109375
0.0
-0.0018310546875
0.0
-0.000732421875
0.0
-0.0025634765625
0.0
0.0
0.0
0.002197265625
0.0
0.002197265625
0.0
-0.000732421875
0.0
-0.000732421875
0.0
-0.000732421875
0.0
-0.00439453125
0.0
-0.00146484375
0.0
0.0010986328125
0.0
-0.000732421875
0.0
-0.0010986328125
0.0
-0.0018310546875
0.0
-0.0025634765625
0.0
-0.0010986328125
0.0
-0.0003662109375
0.0
-0.0010986328125
0.0
-0.0018310546875
0.0
-0.00146484375
0.0
-0.0010986328125
0.0
0.0
0.0
0.0
0.0
-0.0003662109375
0.0
0.010986328125
0.0
-0.0029296875
0.0
-0.0186767578125
0.0
-0.0029296875
0.147979736328125
0.0018310546875
1.0
-0.0029296875
1.0
-0.0029296875
-0.156768798828125
0.006591796875
-1.0
0.02197265625
-1.0
0.021240234375
0.0
0.0098876953125
0.0
0.0029296875
0.0
0.0003662109375
0.0
-0.0029296875
0.0
-0.0106201171875
0.0
-0.0029296875
0.59844970703125
0.0010986328125
0.54351806640625
-0.003662109375
-0.58087158203125
-0.005126953125
-0.54351806640625
-0.006591796875
-0.017578125
-0.005859375
0.0
-0.005859375
0.0
-0.0025634765625
0.0
0.0
0.295196533203125
0.0010986328125
0.636932373046875
0.00146484375
0.36480712890625
0.00146484375
0.1014404296875
0.002197265625
-0.075836181640625
0.010986328125
-0.738372802734375
-0.00146484375
-0.58416748046875
-0.013916015625
0.41241455078125
-0.0003662109375
1.0
0.0010986328125
1.0
-0.005859375
0.274322509765625
-0.005859375
-0.653778076171875
0.0003662109375
0.00439453125
0.0010986328125
0.653778076171875
-0.002197265625
0.0
-0.005126953125
0.0
-0.0069580078125
0.0
-0.002197265625
0.0
0.0003662109375
0.0
-0.0032958984375
0.0
0.000732421875
0.0
0.0025634765625
0.0
0.0003662109375
0.0
0.002197265625
-0.0025634765625
0.0025634765625
-0.0252685546875
0.000732421875
-0.142852783203125
0.003662109375
-0.30145263671875
0.003662109375
-1.0
0.003662109375
-1.0
0.00146484375
0.0
-0.0032958984375
0.0
-0.003662109375
0.0
-0.0076904296875
0.0
-0.006591796875
0.0
-0.0025634765625
0.0
-0.0029296875
0.0
-0.0003662109375
0.0
0.0025634765625
0.0
0.00146484375
0.0
0.0025634765625
0.0
0.002197265625
0.0
0.003662109375
0.0
0.0150146484375
0.0
-0.000732421875
0.0
-0.0084228515625
0.0
0.005126953125
0.0
0.0
0.0
-0.000732421875
0.0
0.0003662109375
0.0
0.0003662109375
0.0
0.003662109375
0.0
0.0032958984375
0.0
0.0003662109375
0.0
-0.002197265625
1.0
-0.0029296875
0.38531494140625
0.000732421875
-1.0
0.003662109375
-0.38531494140625
0.0054931640625
0.0
0.006591796875
0.0
0.00439453125
0.0
0.0025634765625
0.0
0.0098876953125
0.0
0.0084228515625
0.0
0.01171875
0.0
0.01025390625
0.683074951171875
-0.0098876953125
1.0
-0.01025390625
0.816375732421875
-0.009521484375
0.107696533203125
-0.01318359375
0.0
-0.0054931640625
0.0
0.0
0.0
-0.0010986328125
0.0
0.00146484375
0.0
0.0010986328125
-0.082061767578125
-0.00439453125
-0.9837646484375
-0.0018310546875
-1.0
0.0010986328125
0.178741455078125
-0.000732421875
0.380889892578125
0.0018310546875
-0.61053466796875
0.0040283203125
-0.49224853515625
0.0040283203125
-0.083892822265625
0.0032958984375
0.0
0.0
0.0
0.0025634765625
0.0
0.003662109375
0.0
0.0
0.33404541015625
-0.0003662109375
0.313873291015625
-0.000732421875
0.0135498046875
0.0
-0.1614990234375
0.0
-0.281280517578125
-0.000732421875
-0.0281982421875
-0.000732421875
0.316070556640625
-0.00146484375
-0.109527587890625
0.00146484375
-0.38238525390625
0.005859375
1.0
0.000732421875
0.664764404296875
-0.002197265625
-0.56695556640625
0.002197265625
0.63507080078125
0.0003662109375
0.880828857421875
0.0087890625
0.198516845703125
0.0029296875
-0.696624755859375
-0.009521484375
-1.0
-0.0010986328125
0.62701416015625
0.0
1.0
-0.000732421875
-0.62408447265625
0.00439453125
-0.681243896484375
0.0010986328125
0.328155517578125
-0.005126953125
0.134063720703125
-0.0040283203125
-0.319000244140625
-0.002197265625
-0.204010009765625
-0.0025634765625
-0.0369873046875
-0.0040283203125
0.162994384765625
-0.0047607421875
0.240631103515625
-0.0054931640625
0.0992431640625
-0.005126953125
0.265167236328125
-0.002197265625
0.48455810546875
0.0
-0.150543212890625
-0.0018310546875
-0.642425537109375
-0.0025634765625
-0.54315185546875
-0.0018310546875
-0.394073486328125
-0.00146484375
-0.59002685546875
0.0
-0.45855712890625
0.0018310546875
0.0
0.00146484375
0.46881103515625
-0.000732421875
0.616790771484375
0.002197265625
0.355255126953125
0.010986328125
0.195556640625
-0.006591796875
0.290435791015625
-0.01318359375
0.251251220703125
0.003662109375
-0.0589599609375
0.00439453125
-0.078369140625
0.00439453125
-0.14208984375
0.003662109375
-0.0216064453125
0.0025634765625
0.2083740234375
0.003662109375
0.0523681640625
0.0040283203125
-0.095947265625
0.0
0.062255859375
-0.00146484375
-0.024169921875
0.0
-0.1512451171875
0.0
-0.0791015625
-0.00146484375
-0.103302001953125
0.0
0.466583251953125
0.0003662109375
0.172882080078125
0.0010986328125
-0.394439697265625
0.002197265625
-0.199615478515625
-0.0010986328125
-0.260040283203125
-0.003662109375
0.115386962890625
-0.0054931640625
0.242828369140625
-0.0029296875
0.2523193359375
-0.0047607421875
0.176513671875
-0.0062255859375
0.054229736328125
-0.0040283203125
-0.0010986328125
-0.0010986328125
-0.0216064453125
0.0047607421875
0.076568603515625
0.005126953125
-0.157867431640625
0.016845703125
-0.107330322265625
-0.002197265625
-0.0087890625
-0.0157470703125
0.04541015625
0.0010986328125
0.45782470703125
-0.0010986328125
0.33184814453125
-0.002197265625
0.010986328125
-0.00146484375
-0.162261962890625
0.00146484375
0.0
0.0003662109375
0.161529541015625
-0.0003662109375
-0.0157470703125
0.0
-0.089019775390625
-0.0003662109375
-0.147613525390625
0.0010986328125
-0.05712890625
0.0003662109375
0.0120849609375
-0.0010986328125
-0.0260009765625
-0.0003662109375
-0.1094970703125
0.00146484375
-0.164459228515625
0.0
-0.118316650390625
-0.0025634765625
0.053863525390625
-0.0047607421875
0.0545654296875
-0.0047607421875
-0.038848876953125
-0.003662109375
-0.081298828125
-0.0010986328125
0.031158447265625
0.00146484375
0.232940673828125
-0.000732421875
0.291168212890625
-0.002197265625
0.172882080078125
0.000732421875
0.0
0.0172119140625
0.0
-0.0018310546875
0.0
-0.0172119140625
0.0
0.0003662109375
0.0
0.0018310546875
0.0
0.0018310546875
0.0
0.0
0.0
0.00146484375
0.0
0.0029296875
-0.307281494140625
0.00439453125
0.0
0.0
0.307281494140625
-0.0054931640625
0.0
-0.000732421875
0.0
-0.0003662109375
0.0
-0.0010986328125
-0.043609619140625
0.000732421875
-0.0303955078125
-0.0010986328125
-0.057861328125
-0.002197265625
-0.210968017578125
-0.0029296875
-0.1556396484375
-0.0047607421875
-0.190826416015625
-0.005859375
-0.41314697265625
-0.0047607421875
0.43218994140625
-0.0040283203125
0.670257568359375
-0.000732421875
-0.030029296875
0.0003662109375
-0.48126220703125
-0.0003662109375
-0.163726806640625
0.0098876953125
0.228179931640625
0.0029296875
-0.45489501953125
-0.012451171875
-0.45599365234375
-0.006591796875
-0.365875244140625
0.0010986328125
0.135528564453125
0.0029296875
0.156768798828125
0.003662109375
-0.058624267578125
0.0025634765625
0.0758056640625
0.002197265625
-0.1622314453125
0.0040283203125
-0.0985107421875
0.0025634765625
-0.194488525390625
0.0003662109375
-0.130401611328125
0.0010986328125
-0.0933837890625
0.000732421875
-0.078369140625
-0.000732421875
-0.0743408203125
0.0010986328125
0.064453125
0.0029296875
-0.140655517578125
0.003662109375
-0.439117431640625
0.0025634765625
-0.202178955078125
0.0040283203125
0.1636962890625
0.0062255859375
0.222686767578125
0.01171875
0.0267333984375
0.0113525390625
0.296295166015625
-0.0084228515625
0.41644287109375
-0.0087890625
0.0552978515625
0.002197265625
-0.178741455078125
0.0010986328125
-0.0802001953125
0.0029296875
0.244659423828125
0.00146484375
0.279449462890625
0.0003662109375
0.1571044921875
0.0029296875
0.312042236328125
0.0010986328125
0.631072998046875
-0.0025634765625
0.40692138671875
-0.0018310546875
0.0029296875
0.0003662109375
-0.33331298828125
0.0010986328125
-0.087554931640625
0.00146484375
0.33404541015625
0.0
-0.106201171875
-0.0003662109375
0.0062255859375
0.0003662109375
0.180206298828125
0.00146484375
-0.085723876953125
0.002197265625
-0.239898681640625
0.0025634765625
-0.182373046875
0.003662109375
0.056396484375
0.000732421875
0.111328125
0.0120849609375
-0.198516845703125
0.009521484375
-0.346466064453125
-0.0076904296875
-0.066650390625
-0.0029296875
0.0692138671875
0.000732421875
-0.044677734375
-0.00439453125
-0.082763671875
-0.0040283203125
-0.112091064453125
0.0003662109375
0.025634765625
0.0003662109375
0.106964111328125
0.0
-0.069580078125
-0.0003662109375
-0.01171875
-0.0025634765625
-0.027099609375
-0.0029296875
-0.093048095703125
0.0
0.05712890625
0.000732421875
0.186798095703125
-0.000732421875
0.0098876953125
0.0
-0.0860595703125
0.000732421875
0.0186767578125
-0.000732421875
0.13330078125
-0.00146484375
0.0413818359375
-0.002197265625
-0.099609375
-0.0025634765625
-0.0347900390625
-0.00146484375
0.325958251953125
-0.0010986328125
0.49554443359375
-0.00146484375
0.156402587890625
0.0
0.0
0.002197265625
0.0
0.010986328125
0.0
-0.0047607421875
0.0
-0.01318359375
0.0
0.0018310546875
0.0
0.00146484375
-0.0003662109375
0.0
0.0
-0.0003662109375
0.0003662109375
0.0003662109375
0.0
0.0
0.0
0.0010986328125
-0.0054931640625
-0.0032958984375
-0.01904296875
-0.00439453125
-0.086456298828125
-0.0040283203125
-0.045074462890625
-0.0054931640625
-0.145751953125
-0.0029296875
-0.1142578125
-0.0032958984375
-0.006591796875
-0.0040283203125
0.0252685546875
-0.003662109375
0.0875244140625
-0.0018310546875
-0.087890625
-0.0003662109375
-0.0087890625
-0.0010986328125
-0.168121337890625
0.0003662109375
-0.306915283203125
0.0018310546875
-0.1549072265625
0.0
-0.08642578125
-0.0003662109375
-0.117218017578125
0.000732421875
-0.181304931640625
0.0018310546875
-0.0025634765625
0.0010986328125
0.1259765625
0.0003662109375
0.136627197265625
0.000732421875
-0.0516357421875
0.0018310546875
-0.143585205078125
0.0010986328125
-0.112060546875
0.000732421875
-0.0186767578125
0.002197265625
0.103271484375
0.0010986328125
0.0029296875
0.0010986328125
-0.1051025390625
0.00146484375
-0.0963134765625
0.0029296875
0.0684814453125
0.0029296875
0.134033203125
-0.0003662109375
0.279083251953125
0.0
0.160430908203125
0.000732421875
-0.0380859375
0.0003662109375
0.0758056640625
0.0010986328125
0.107666015625
0.0003662109375
0.0714111328125
-0.000732421875
-0.116455078125
-0.0003662109375
-0.0150146484375
0.0047607421875
-0.008056640625
0.00732421875
0.0135498046875
-0.0076904296875
0.0164794921875
-0.008056640625
-0.1812744140625
0.0047607421875
-0.084228515625
0.0025634765625
-0.0205078125
0.0003662109375
0.1981201171875
0.0040283203125
0.1116943359375
0.0047607421875
-0.02490234375
0.0010986328125
-0.046142578125
0.000732421875
-0.0172119140625
0.0
0.219024658203125
-0.002197265625
-0.11279296875
-0.0003662109375
-0.249420166015625
0.002197265625
-0.202545166015625
0.002197265625
-0.149444580078125
0.00146484375
0.124908447265625
-0.0010986328125
0.178375244140625
-0.00439453125
0.029296875
-0.003662109375
-0.305450439453125
0.00146484375
-0.155303955078125
0.0018310546875
0.071044921875
-0.00146484375
0.0985107421875
-0.0010986328125
-0.0640869140625
0.0179443359375
-0.2406005859375
-0.0018310546875
-0.07177734375
-0.0234375
0.0142822265625
-0.0040283203125
0.08642578125
-0.0018310546875
-0.089019775390625
-0.0018310546875
-0.125640869140625
-0.0010986328125
-0.0684814453125
-0.0003662109375
-0.0325927734375
0.0010986328125
0.056396484375
-0.0003662109375
0.202178955078125
-0.003662109375
0.210968017578125
-0.005126953125
0.0025634765625
-0.0062255859375
0.091552734375
-0.0076904296875
0.253814697265625
-0.005859375
0.137725830078125
-0.0029296875
-0.190826416015625
-0.00146484375
-0.106964111328125
-0.000732421875
0.126373291015625
-0.0003662109375
0.175811767578125
-0.000732421875
0.041748046875
-0.000732421875
-0.1669921875
0.0003662109375
-0.090087890625
0.000732421875
0.005126953125
-0.000732421875
0.082763671875
-0.000732421875
0.01025390625
-0.0003662109375
-0.0703125
-0.002197265625
-0.136993408203125
-0.00146484375
-0.107696533203125
-0.00146484375
0.1058349609375
-0.0032958984375
0.0450439453125
-0.0025634765625
-0.0303955078125
-0.0010986328125
-0.1343994140625
-0.000732421875
0.0106201171875
-0.0018310546875
0.1527099609375
-0.00146484375
0.052398681640625
0.0
-0.016845703125
0.0
-0.125640869140625
0.000732421875
0.105499267578125
0.0003662109375
0.0992431640625
-0.0003662109375
0.084228515625
0.0
-0.04833984375
0.0003662109375
-0.264068603515625
0.002197265625
-0.02783203125
0.0025634765625
-0.005126953125
0.0010986328125
0.06005859375
0.0
-0.005859375
0.0010986328125
-0.0596923828125
0.0025634765625
-0.0882568359375
0.0018310546875
-0.016845703125
0.0032958984375
0.099609375
0.0032958984375
-0.066650390625
0.010986328125
-0.0472412109375
0.006591796875
-0.0838623046875
-0.0120849609375
0.046875
-0.00732421875
0.1439208984375
0.00146484375
0.0604248046875
0.00146484375
-0.08349609375
0.0010986328125
-0.1640625
0.0
0.0399169921875
0.0
0.10986328125
-0.000732421875
0.182769775390625
0.0
0.08935546875
0.000732421875
-0.136627197265625
-0.0010986328125
-0.0604248046875
0.00146484375
-0.00732421875
0.0025634765625
-0.340240478515625
0.00146484375
-0.050537109375
0.002197265625
0.134796142578125
0.000732421875
-0.1168212890625
-0.00146484375
0.1014404296875
-0.0018310546875
0.0556640625
0.0054931640625
-0.0311279296875
0.0054931640625
-0.134429931640625
-0.0003662109375
-0.0692138671875
-0.000732421875
0.095977783203125
-0.0010986328125
0.2376708984375
-0.000732421875
0.314239501953125
-0.0003662109375
0.061920166015625
0.000732421875
0.1168212890625
0.019775390625
0.1109619140625
-0.002197265625
0.076904296875
-0.02490234375
-0.059326171875
-0.0032958984375
-0.2109375
0.00146484375
-0.0662841796875
0.000732421875
0.0465087890625
-0.0018310546875
0.169921875
-0.0018310546875
-0.071044921875
-0.0003662109375
-0.234405517578125
0.000732421875
-0.294830322265625
0.0
-0.1640625
-0.0010986328125
0.0552978515625
-0.000732421875
-0.084991455078125
0.0
-0.096343994140625
0.000732421875
-0.1475830078125
-0.0003662109375
0.0098876953125
0.0
0.153076171875
0.000732421875
0.074005126953125
0.0
-0.03369140625
0.0
-0.187164306640625
0.0010986328125
-0.0758056640625
0.0010986328125
0.1351318359375
-0.002197265625
0.208404541015625
-0.005859375
-0.09228515625
-0.00439453125
-0.211334228515625
-0.000732421875
0.03369140625
-0.0018310546875
0.0223388671875
-0.0029296875
0.0164794921875
-0.002197265625
0.0289306640625
-0.0010986328125
-0.1109619140625
0.0010986328125
-0.134765625
0.000732421875
0.0146484375
-0.00146484375
0.0523681640625
-0.002197265625
-0.046142578125
-0.0025634765625
-0.095947265625
-0.002197265625
0.06591796875
-0.0018310546875
0.471343994140625
-0.00146484375
0.739837646484375
-0.0010986328125
0.46807861328125
-0.0010986328125
0.1153564453125
-0.000732421875
-0.0604248046875
0.0003662109375
-0.1278076171875
0.0
0.0377197265625
0.0010986328125
-0.038848876953125
0.0047607421875
-0.164093017578125
0.01171875
-0.129638671875
0.021240234375
-0.252349853515625
0.0054931640625
-0.050537109375
-0.0062255859375
-0.01318359375
0.0029296875
-0.188629150390625
0.003662109375
-0.13037109375
0.00146484375
0.041015625
-0.0003662109375
0.202545166015625
0.000732421875
0.0260009765625
0.002197265625
-0.053863525390625
0.0018310546875
-0.2252197265625
-0.0003662109375
-0.0223388671875
-0.003662109375
0.19775390625
-0.0025634765625
0.104400634765625
0.000732421875
-0.0047607421875
-0.0003662109375
-0.166290283203125
-0.0003662109375
0.0076904296875
0.000732421875
0.0234375
0.0003662109375
0.092315673828125
0.00146484375
-0.0150146484375
0.0018310546875
-0.171051025390625
0.0
-0.0523681640625
0.0003662109375
0.006591796875
0.0010986328125
0.140625
0.0
-0.0186767578125
0.0
-0.0845947265625
-0.000732421875
-0.0732421875
0.0062255859375
0.0498046875
0.0040283203125
0.1988525390625
-0.012451171875
0.0435791015625
-0.0087890625
-0.054931640625
0.00146484375
-0.10400390625
0.0010986328125
0.024169921875
-0.0003662109375
0.210601806640625
-0.0018310546875
0.208038330078125
-0.0010986328125
0.0003662109375
0.000732421875
-0.0369873046875
0.0010986328125
0.054931640625
-0.00146484375
0.209869384765625
-0.0029296875
0.01171875
-0.002197265625
-0.280914306640625
-0.0010986328125
-0.005126953125
-0.0003662109375
-0.0439453125
-0.000732421875
-0.278717041015625
-0.000732421875
-0.33441162109375
-0.0010986328125
-0.117919921875
0.0003662109375
-0.15234375
0.0018310546875
-0.176910400390625
-0.0010986328125
-0.04248046875
-0.0029296875
-0.176544189453125
-0.0003662109375
-0.163360595703125
0.017578125
-0.2493896484375
-0.000732421875
-0.113525390625
-0.0194091796875
0.0509033203125
-0.0010986328125
0.0703125
0.0018310546875
0.021240234375
0.002197265625
-0.164093017578125
0.0010986328125
-0.01611328125
-0.0010986328125
0.084259033203125
-0.0010986328125
0.17431640625
-0.000732421875
0.0596923828125
-0.00146484375
-0.091552734375
-0.002197265625
-0.005859375
-0.00146484375
1.0
-0.00146484375
1.0
-0.002197265625
0.025634765625
-0.00146484375
-0.01904296875
-0.000732421875
-0.1036376953125
0.0076904296875
-0.36444091796875
0.0047607421875
0.09375
-0.01318359375
-0.58489990234375
-0.0076904296875
-0.949310302734375
0.0025634765625
-0.214996337890625
0.000732421875
-0.0706787109375
0.000732421875
0.057891845703125
0.0
0.0677490234375
0.0
0.122314453125
0.0003662109375
-0.288604736328125
0.0018310546875
-0.214630126953125
-0.0003662109375
-0.04541015625
-0.0025634765625
-0.0908203125
-0.0018310546875
0.765838623046875
-0.002197265625
0.825897216796875
0.000732421875
0.054931640625
0.000732421875
-0.0867919921875
-0.0010986328125
-0.082427978515625
0.0
-0.149810791015625
0.0003662109375
-0.1812744140625
0.0025634765625
-0.0281982421875
0.002197265625
0.13916015625
0.019775390625
0.0640869140625
0.0
-0.0128173828125
-0.0230712890625
-0.1072998046875
-0.0010986328125
-0.10693359375
0.002197265625
0.050537109375
0.0003662109375
0.1285400390625
0.0
0.0963134765625
0.0003662109375
-0.0721435546875
0.002197265625
-0.0355224609375
0.002197265625
-0.0860595703125
0.0
0.0322265625
-0.002197265625
0.188232421875
-0.0010986328125
0.38421630859375
0.000732421875
-0.869842529296875
0.0025634765625
-1.0
0.0025634765625
0.188262939453125
-0.0003662109375
0.138458251953125
0.0
0.0120849609375
0.0010986328125
-0.052734375
0.0018310546875
0.0018310546875
0.00146484375
0.16552734375
0.0
0.0703125
0.0
0.0611572265625
-0.0010986328125
-0.1043701171875
0.0
0.039215087890625
0.0
0.166656494140625
-0.00146484375
0.10546875
-0.0018310546875
0.052001953125
-0.000732421875
-0.137359619140625
0.0029296875
0.018310546875
0.0029296875
0.103668212890625
0.000732421875
0.316436767578125
0.0003662109375
0.1058349609375
0.0
-0.153839111328125
-0.0003662109375
0.02490234375
0.0
0.021240234375
-0.000732421875
0.132232666015625
-0.0029296875
0.00732421875
0.0047607421875
-0.0732421875
0.00732421875
-0.0765380859375
-0.009521484375
0.005126953125
-0.0087890625
0.125274658203125
0.0025634765625
0.0406494140625
0.00146484375
-0.043975830078125
0.000732421875
-0.105499267578125
0.002197265625
0.018341064453125
0.0003662109375
0.072906494140625
0.0
0.0120849609375
0.0018310546875
-0.133697509765625
0.0
-0.149444580078125
-0.000732421875
-0.00146484375
0.0
0.109130859375
0.0
0.090087890625
0.0003662109375
-0.068115234375
0.0010986328125
-0.0794677734375
0.000732421875
-0.0413818359375
0.0018310546875
0.104736328125
0.002197265625
0.0640869140625
0.0003662109375
-0.0897216796875
0.0010986328125
-0.148681640625
0.0025634765625
-0.140625
0.0164794921875
0.247589111328125
-0.0025634765625
0.0823974609375
-0.017578125
-0.096343994140625
0.00146484375
-0.082763671875
0.0025634765625
-0.318267822265625
0.0010986328125
-0.225250244140625
0.0003662109375
-0.087158203125
0.00146484375
-0.0098876953125
0.0018310546875
-0.095947265625
0.002197265625
0.0010986328125
-0.0018310546875
0.0670166015625
-0.005126953125
0.1160888671875
-0.002197265625
-0.0054931640625
0.0
-0.123046875
0.0
-0.0234375
0.0
0.009521484375
0.0
0.205078125
-0.00146484375
0.043212890625
-0.0010986328125
-0.0556640625
0.0
-0.0692138671875
0.0003662109375
0.01171875
0.0003662109375
0.188232421875
-0.0003662109375
0.0531005859375
-0.000732421875
0.0098876953125
0.0
-0.0684814453125
0.0
0.090118408203125
0.0
0.186798095703125
0.0003662109375
0.10546875
0.0018310546875
0.049072265625
0.0010986328125
-0.135498046875
-0.0003662109375
1.0
-0.0018310546875
1.0
-0.00146484375
0.0
-0.0003662109375
0.0
-0.0010986328125
0.0
0.0
0.0
0.0003662109375
0.0
-0.000732421875
0.0
-0.00146484375
0.0
-0.0003662109375
0.0
0.0010986328125
0.0
0.0186767578125
0.0
0.005126953125
0.0
-0.0172119140625
0.0
-0.0040283203125
-0.006591796875
0.002197265625
0.0
0.0003662109375
0.006591796875
-0.0010986328125
0.0
0.00146484375
0.0
0.0010986328125
-0.075103759765625
0.0003662109375
-0.01025390625
0.0
-0.370635986328125
-0.00146484375
-0.284210205078125
-0.002197265625
0.03662109375
0.000732421875
-0.180206298828125
0.000732421875
-0.1256103515625
-0.0010986328125
-0.0509033203125
0.000732421875
0.1190185546875
-0.0003662109375
-0.0069580078125
-0.0003662109375
-0.0772705078125
0.000732421875
-0.110626220703125
0.0010986328125
-0.06005859375
0.000732421875
0.118682861328125
0.01904296875
-0.025634765625
-0.0018310546875
-0.046875
-0.0230712890625
-0.172515869140625
-0.0003662109375
-0.054962158203125
0.0018310546875
0.0692138671875
0.0
0.038116455078125
0.0
-0.02490234375
0.00146484375
-0.45526123046875
0.003662109375
-0.451568603515625
0.0025634765625
-0.45599365234375
-0.000732421875
-0.34100341796875
-0.002197265625
0.0
-0.003662109375
0.0
-0.0040283203125
0.0
-0.00146484375
0.0
-0.0010986328125
0.0
-0.00146484375
0.0
0.0010986328125
0.0
0.002197265625
0.0
0.0029296875
0.0
0.0025634765625
0.0
-0.000732421875
0.41058349609375
0.0
0.9925537109375
0.00146484375
0.58856201171875
0.0010986328125
0.150146484375
0.0018310546875
0.302886962890625
0.0205078125
-0.005126953125
0.0003662109375
-0.292999267578125
-0.021240234375
-0.2149658203125
-0.0025634765625
-0.163726806640625
0.000732421875
0.0318603515625
0.0025634765625
0.081329345703125
0.000732421875
-0.098541259765625
-0.0010986328125
-0.148345947265625
0.000732421875
-0.1138916015625
0.0018310546875
0.0772705078125
0.0
0.041748046875
-0.0025634765625
-0.1102294921875
-0.00146484375
-0.228179931640625
0.0003662109375
-0.101806640625
-0.0010986328125
0.191925048828125
-0.0018310546875
0.0765380859375
-0.0010986328125
-0.0311279296875
-0.0003662109375
-0.249786376953125
-0.0003662109375
-0.150909423828125
-0.000732421875
0.383087158203125
-0.00146484375
0.54205322265625
-0.00146484375
0.174713134765625
0.0
-0.228546142578125
0.0
-0.1131591796875
-0.0010986328125
0.068145751953125
-0.0018310546875
0.20654296875
-0.0018310546875
0.0069580078125
-0.000732421875
-0.1552734375
0.017578125
-0.070709228515625
0.0025634765625
-0.054931640625
-0.0201416015625
0.155670166015625
-0.005126953125
0.000732421875
0.0018310546875
-0.059326171875
0.000732421875
-0.172149658203125
-0.0003662109375
-0.148712158203125
0.000732421875
0.1051025390625
0.0003662109375
0.031494140625
0.0010986328125
0.145416259765625
0.0003662109375
-0.046142578125
-0.0010986328125
-0.55670166015625
-0.000732421875
-0.423370361328125
0.0
-0.087158203125
0.0003662109375
-0.146514892578125
0.00439453125
-0.139190673828125
0.005126953125
-0.0062255859375
0.0029296875
0.219390869140625
0.00146484375
0.230010986328125
-0.00146484375
-0.0450439453125
-0.0003662109375
-0.01171875
0.00146484375
0.975311279296875
-0.0003662109375
0.69146728515625
-0.002197265625
-0.334381103515625
-0.0010986328125
-0.082763671875
-0.000732421875
0.0618896484375
0.0
-0.00146484375
0.000732421875
-0.013916015625
-0.0010986328125
-0.027099609375
-0.00146484375
-0.0802001953125
0.0
-0.187896728515625
0.000732421875
-0.243194580078125
0.0194091796875
-0.129638671875
0.0025634765625
0.04248046875
-0.0208740234375
0.0325927734375
-0.0029296875
-0.1534423828125
0.00146484375
-0.03515625
0.000732421875
-0.132232666015625
0.00146484375
-0.178009033203125
0.00146484375
-0.146484375
0.0029296875
-0.230010986328125
0.0025634765625
-0.101470947265625
0.00146484375
-0.0615234375
-0.0003662109375
0.115753173828125
-0.0025634765625
0.002197265625
-0.0003662109375
-0.112457275390625
0.000732421875
-0.1527099609375
0.0
-0.05859375
-0.0003662109375
0.128173828125
0.0
-0.0087890625
0.0018310546875
-0.0853271484375
0.002197265625
-0.191925048828125
0.000732421875
-0.046142578125
-0.0010986328125
0.049102783203125
-0.0032958984375
0.025634765625
0.0003662109375
-0.028594970703125
0.0047607421875
-0.120880126953125
0.0018310546875
-0.0205078125
0.0
0.0
0.0003662109375
0.107330322265625
0.0
0.0
-0.00146484375
-0.107330322265625
-0.0010986328125
0.0
0.0010986328125
0.0
0.0018310546875
0.0
0.00146484375
0.0
0.00146484375
0.0
0.0003662109375
0.0
-0.0010986328125
0.041046142578125
-0.0003662109375
0.051666259765625
0.000732421875
-0.016143798828125
0.000732421875
-0.025299072265625
0.003662109375
0.089385986328125
0.005126953125
0.174713134765625
-0.00732421875
0.157470703125
-0.008056640625
0.1094970703125
0.00146484375
-0.0274658203125
0.000732421875
0.0018310546875
0.0
0.0721435546875
0.0010986328125
0.149444580078125
0.000732421875
0.130401611328125
0.0
-0.0362548828125
0.00146484375
0.005126953125
-0.000732421875
0.227081298828125
-0.002197265625
0.262969970703125
-0.00146484375
-0.01611328125
-0.0025634765625
-0.0699462890625
-0.0029296875
-0.121978759765625
-0.000732421875
-0.044708251953125
0.000732421875
0.47833251953125
-0.000732421875
0.103302001953125
-0.0025634765625
-0.287872314453125
-0.0025634765625
-0.131866455078125
0.0003662109375
-0.0087890625
-0.0003662109375
0.099639892578125
-0.0018310546875
0.07763671875
-0.000732421875
-0.196685791015625
-0.0032958984375
-0.773895263671875
-0.003662109375
-0.47467041015625
-0.00146484375
0.0
-0.0054931640625
0.0
-0.00732421875
0.0
-0.0018310546875
0.0
0.0018310546875
0.0
0.002197265625
0.0
0.00146484375
0.0
0.0
0.0
0.000732421875
0.0
0.0018310546875
0.0
0.0003662109375
0.279449462890625
0.0
0.890716552734375
0.0003662109375
1.0
-0.000732421875
0.608734130859375
-0.00146484375
0.0
-0.0003662109375
0.0
0.0010986328125
0.0
0.002197265625
0.0
0.0018310546875
0.0
0.0010986328125
-0.43658447265625
0.00146484375
-1.0
0.000732421875
-0.828460693359375
0.00146484375
-0.228546142578125
0.00146484375
-0.049072265625
0.0010986328125
-0.041015625
0.003662109375
0.236968994140625
0.01904296875
0.49481201171875
-0.0025634765625
0.379791259765625
-0.01904296875
0.448272705078125
0.0003662109375
0.697357177734375
0.000732421875
0.38604736328125
0.0010986328125
0.0
-0.000732421875
0.0
-0.0018310546875
0.0
0.000732421875
0.0
0.0018310546875
0.0
0.000732421875
0.0
-0.0010986328125
0.0
0.000732421875
0.0
0.002197265625
0.0
0.0010986328125
0.0
0.0010986328125
0.0
0.0003662109375
0.0
0.0
0.0
0.0010986328125
0.0
0.0018310546875
-0.0010986328125
0.0032958984375
0.0
0.0029296875
0.0010986328125
-0.000732421875
0.0
0.009521484375
0.0
0.0025634765625
-0.060089111328125
-0.01171875
-0.036651611328125
-0.0040283203125
-0.0252685546875
-0.000732421875
-0.148681640625
0.0
-0.156005859375
0.0018310546875
-0.244659423828125
0.0018310546875
-0.083160400390625
0.0003662109375
0.0673828125
0.0010986328125
0.097076416015625
0.000732421875
0.0047607421875
-0.002197265625
-0.294464111328125
-0.0029296875
-0.117919921875
-0.0018310546875
0.0435791015625
-0.0010986328125
0.117919921875
-0.0003662109375
-0.017578125
0.0003662109375
-0.1058349609375
0.0003662109375
0.0325927734375
-0.0003662109375
0.1043701171875
-0.00146484375
0.182769775390625
-0.000732421875
-0.346832275390625
0.0010986328125
-0.55340576171875
0.00146484375
-0.412384033203125
0.0
-0.38604736328125
-0.000732421875
-0.148712158203125
0.000732421875
-0.0948486328125
0.0010986328125
-0.1248779296875
0.0
-0.090087890625
-0.0010986328125
0.0758056640625
-0.000732421875
0.12890625
0.0003662109375
0.1219482421875
0.0
0.000732421875
0.0003662109375
-0.046875
0.018310546875
0.0501708984375
-0.0029296875
0.131500244140625
-0.0223388671875
0.113189697265625
-0.000732421875
0.025634765625
0.002197265625
0.106201171875
0.00146484375
0.0977783203125
-0.0003662109375
0.136260986328125
-0.000732421875
0.102203369140625
0.00146484375
0.1259765625
0.000732421875
0.0780029296875
-0.0010986328125
0.155670166015625
-0.0032958984375
0.204010009765625
-0.003662109375
-0.675018310546875
-0.0003662109375
-0.8973388671875
-0.0003662109375
-0.236602783203125
-0.0010986328125
0.066680908203125
-0.002197265625
0.066314697265625
-0.0025634765625
0.099609375
-0.0025634765625
-0.066314697265625
-0.0010986328125
-0.022705078125
0.0
1.0
-0.002197265625
1.0
-0.0032958984375
0.0
-0.002197265625
0.0
-0.0003662109375
0.0
0.0010986328125
0.0
0.00146484375
0.0
-0.00146484375
0.0
-0.0018310546875
0.0
0.002197265625
0.0
0.0032958984375
0.0
0.0025634765625
0.0
0.0010986328125
-0.0003662109375
0.0010986328125
0.0
0.0040283203125
0.0003662109375
0.0098876953125
0.0
-0.005126953125
0.0
-0.010986328125
0.0
0.0010986328125
0.0
0.0
0.0
0.0018310546875
0.0
0.00146484375
0.0
0.0
0.0
0.00146484375
0.0
0.0025634765625
0.0
0.000732421875
0.0
-0.0029296875
0.0
-0.005859375
0.0003662109375
-0.0029296875
0.0
0.000732421875
-0.006591796875
-0.000732421875
-0.165191650390625
-0.000732421875
-0.209136962890625
0.0010986328125
-0.028564453125
0.000732421875
-0.0296630859375
0.0
-0.085693359375
-0.0003662109375
-0.254547119140625
-0.0003662109375
-0.206939697265625
0.0010986328125
-0.0347900390625
0.003662109375
-0.143585205078125
0.002197265625
-0.166656494140625
0.0
-0.213134765625
0.015380859375
-0.1318359375
0.0010986328125
-0.0443115234375
-0.0150146484375
0.10107421875
-0.00146484375
0.0047607421875
-0.0003662109375
-0.165191650390625
0.000732421875
-0.046905517578125
0.0010986328125
-0.009521484375
-0.0003662109375
0.165191650390625
-0.0010986328125
0.0106201171875
0.0003662109375
-0.0743408203125
0.0010986328125
-0.0919189453125
-0.000732421875
-0.01611328125
-0.00146484375
0.172515869140625
-0.0003662109375
0.0106201171875
0.0010986328125
-0.05419921875
0.0010986328125
-0.148345947265625
0.000732421875
0.0325927734375
0.0003662109375
0.138824462890625
-0.0003662109375
0.084228515625
0.0003662109375
0.0281982421875
0.0003662109375
-0.1300048828125
0.0003662109375
0.03076171875
0.0069580078125
0.0963134765625
0.0069580078125
0.1468505859375
-0.009521484375
0.0003662109375
-0.0091552734375
-0.1322021484375
0.00146484375
-0.0380859375
0.00146484375
0.035888671875
0.000732421875
0.1376953125
0.0
0.0267333984375
0.000732421875
-0.059326171875
0.0018310546875
-0.0963134765625
0.00146484375
0.336212158203125
-0.0025634765625
0.445343017578125
-0.003662109375
0.0615234375
-0.002197265625
-0.1007080078125
-0.0010986328125
-0.161865234375
0.002197265625
0.028564453125
0.0025634765625
0.0721435546875
0.000732421875
0.0018310546875
-0.0003662109375
-0.1380615234375
0.0003662109375
-0.13916015625
0.000732421875
-0.038116455078125
0.0
0.08642578125
0.0018310546875
0.062286376953125
0.008056640625
-0.130767822265625
-0.0076904296875
-0.105133056640625
-0.012451171875
-0.0538330078125
0.0029296875
0.100738525390625
0.0010986328125
0.0618896484375
-0.0003662109375
-0.059356689453125
0.0
-0.1322021484375
-0.00146484375
-0.0626220703125
-0.0029296875
0.1153564453125
-0.005126953125
0.0303955078125
0.0
0.0194091796875
0.0047607421875
-0.0509033203125
0.0025634765625
0.022003173828125
0.0025634765625
0.0743408203125
0.000732421875
0.063720703125
-0.0010986328125
0.062286376953125
-0.0003662109375
-0.126007080078125
0.0018310546875
-0.029296875
0.00146484375
-0.0047607421875
-0.000732421875
0.076904296875
-0.0010986328125
-0.0355224609375
0.0
-0.185699462890625
0.00146484375
-0.052001953125
0.0010986328125
-0.0142822265625
0.0
0.135498046875
-0.0010986328125
-0.0340576171875
-0.0010986328125
-0.0963134765625
0.000732421875
-0.0677490234375
0.0010986328125
0.0010986328125
-0.0010986328125
0.128173828125
-0.0018310546875
0.0029296875
0.0003662109375
-0.0556640625
0.0018310546875
-0.1318359375
0.0018310546875
-0.005859375
-0.0003662109375
0.0670166015625
-0.0010986328125
0.03662109375
0.0
-0.047607421875
0.0010986328125
-0.140625
0.0010986328125
-0.0216064453125
-0.0003662109375
0.0721435546875
0.0
0.05712890625
0.0
-0.0816650390625
0.000732421875
-0.112060546875
0.0003662109375
-0.061187744140625
-0.0003662109375
0.0450439453125
0.0
0.060089111328125
0.0
-0.031494140625
0.000732421875
-0.118682861328125
0.0003662109375
-0.105499267578125
0.0
0.057861328125
-0.0003662109375
0.019775390625
0.0025634765625
-0.028564453125
0.01025390625
-0.1776123046875
-0.0062255859375
-0.1094970703125
-0.0113525390625
0.0670166015625
0.0018310546875
0.0673828125
-0.0003662109375
0.0399169921875
0.0
-0.144287109375
0.000732421875
-0.0428466796875
0.000732421875
0.027099609375
0.0018310546875
0.1197509765625
0.002197265625
0.003662109375
0.0003662109375
-0.1739501953125
-0.00146484375
-0.046142578125
-0.0025634765625
-0.0179443359375
-0.0003662109375
0.14208984375
0.000732421875
0.0267333984375
0.0003662109375
-0.031494140625
-0.0003662109375
-0.0450439453125
0.0
-0.009521484375
0.0003662109375
0.15380859375
-0.000732421875
0.0380859375
0.0
0.0142822265625
0.0
-0.1142578125
-0.0010986328125
0.03369140625
0.000732421875
0.181640625
0.0003662109375
0.141021728515625
-0.002197265625
0.043212890625
-0.0003662109375
-0.121246337890625
0.000732421875
0.041778564453125
-0.0010986328125
0.110992431640625
-0.0018310546875
0.1732177734375
0.0003662109375
0.0618896484375
0.0025634765625
-0.0472412109375
0.01171875
-0.003662109375
-0.0047607421875
0.041015625
-0.013916015625
0.12158203125
0.0025634765625
-0.03955078125
0.00146484375
-0.12158203125
0.0003662109375
-0.08935546875
0.0003662109375
0.0780029296875
-0.0003662109375
0.205078125
0.0
0.120147705078125
0.00146484375
0.086456298828125
0.0
-0.0018310546875
-0.002197265625
0.0091552734375
-0.0010986328125
0.0838623046875
-0.0003662109375
0.0245361328125
-0.0003662109375
-0.124908447265625
-0.0003662109375
-0.082763671875
-0.0018310546875
0.030426025390625
-0.0010986328125
0.1182861328125
0.0003662109375
0.06005859375
0.0
-0.05859375
0.0
-0.0699462890625
0.0003662109375
-0.112823486328125
0.000732421875
0.0794677734375
0.0047607421875
0.042144775390625
0.008056640625
-0.0849609375
-0.0087890625
-0.187530517578125
-0.01025390625
-0.132598876953125
0.0025634765625
0.063720703125
0.0
-0.0025634765625
0.0
-0.0362548828125
-0.0003662109375
-0.178375244140625
-0.008056640625
-0.076171875
-0.0076904296875
0.054962158203125
0.000732421875
0.0985107421875
0.0
0.0029296875
-0.0029296875
-0.240264892578125
-0.002197265625
-0.042510986328125
0.0003662109375
0.0135498046875
0.00146484375
0.122711181640625
0.0010986328125
0.043212890625
0.000732421875
-0.115386962890625
0.000732421875
-0.032958984375
0.000732421875
-0.0281982421875
0.00146484375
-0.0003662109375
0.0010986328125
-0.2215576171875
-0.000732421875
-0.166259765625
-0.0010986328125
-0.079864501953125
0.0003662109375
0.0399169921875
0.0010986328125
0.150909423828125
-0.000732421875
0.0208740234375
-0.000732421875
-0.0574951171875
0.0018310546875
-0.210968017578125
0.006591796875
-0.074371337890625
0.006591796875
0.0333251953125
-0.009521484375
0.02490234375
-0.0087890625
-0.056396484375
0.0025634765625
-0.12451171875
0.0003662109375
-0.0172119140625
0.0003662109375
0.030029296875
0.0018310546875
0.04541015625
0.0029296875
-0.071044921875
0.0029296875
-0.063720703125
0.003662109375
0.10546875
0.000732421875
0.182037353515625
-0.002197265625
0.098541259765625
0.0
0.0003662109375
0.002197265625
-0.042877197265625
0.00146484375
0.0230712890625
0.0010986328125
0.186798095703125
0.0010986328125
0.1739501953125
0.0
0.101806640625
0.000732421875
-0.10693359375
0.000732421875
-0.0699462890625
0.0
0.04541015625
0.0
0.0230712890625
-0.0003662109375
0.029296875
-0.0010986328125
-0.119384765625
-0.000732421875
-0.02783203125
0.000732421875
0.027099609375
0.0003662109375
0.155303955078125
-0.0003662109375
0.0845947265625
-0.0003662109375
-0.066314697265625
0.0003662109375
0.0560302734375
0.0018310546875
0.060455322265625
0.0010986328125
0.271392822265625
-0.0010986328125
0.275054931640625
0.0003662109375
0.182769775390625
0.0018310546875
0.101806640625
0.00146484375
0.179107666015625
0.0003662109375
0.259674072265625
0.0
0.05859375
0.000732421875
0.00146484375
0.005859375
-0.228179931640625
0.00732421875
-0.188995361328125
-0.009521484375
-0.0970458984375
-0.0091552734375
-0.084228515625
0.003662109375
-0.084625244140625
0.000732421875
-0.230743408203125
-0.00146484375
-0.088623046875
0.000732421875
-0.0311279296875
0.0018310546875
0.0413818359375
0.0010986328125
-0.065185546875
0.00146484375
-0.1922607421875
-0.000732421875
-0.107330322265625
-0.0029296875
-0.000732421875
-0.00146484375
0.101470947265625
-0.000732421875
-0.054229736328125
0.000732421875
-0.135528564453125
0.0018310546875
-0.1029052734375
-0.0003662109375
0.0421142578125
-0.0010986328125
0.0838623046875
0.000732421875
0.030059814453125
0.00146484375
-0.003662109375
0.0
-0.082061767578125
0.0003662109375
0.0142822265625
0.0018310546875
0.093048095703125
0.021240234375
0.050201416015625
-0.002197265625
-0.131134033203125
-0.0245361328125
-0.148712158203125
-0.0003662109375
-0.0677490234375
0.002197265625
0.076171875
0.0
0.0911865234375
-0.000732421875
-0.0545654296875
0.00146484375
-0.0322265625
0.0018310546875
-0.0399169921875
0.00146484375
0.134063720703125
-0.0010986328125
0.0615234375
-0.0032958984375
-0.061553955078125
-0.0003662109375
-0.11865234375
0.0003662109375
-0.0538330078125
-0.000732421875
0.182373046875
-0.0003662109375
0.134063720703125
0.006591796875
0.104400634765625
0.005859375
-0.048370361328125
-0.009521484375
-0.0439453125
-0.0084228515625
0.015380859375
0.0010986328125
0.0164794921875
0.0
-0.0721435546875
-0.000732421875
-0.175811767578125
-0.0003662109375
0.108795166015625
-0.0003662109375
0.1087646484375
0.000732421875
0.2010498046875
0.000732421875
0.30145263671875
-0.000732421875
0.249420166015625
-0.003662109375
0.221923828125
-0.0047607421875
0.102203369140625
-0.005126953125
0.261505126953125
-0.0054931640625
-0.087188720703125
-0.0025634765625
-0.1640625
-0.0040283203125
0.016845703125
-0.0069580078125
-0.204010009765625
-0.0091552734375
-0.1754150390625
-0.01318359375
-0.137359619140625
-0.01171875
-0.212799072265625
-0.0128173828125
-0.324859619140625
-0.0113525390625
-0.136993408203125
-0.0062255859375
-0.0662841796875
-0.0047607421875
-0.22265625
0.00439453125
-0.372100830078125
0.0025634765625
-0.339874267578125
-0.0087890625
-0.117218017578125
-0.0032958984375
-0.035186767578125
0.000732421875
0.0
-0.000732421875
0.0
0.0025634765625
0.0
0.0032958984375
0.0
0.0047607421875
0.0
0.00732421875
0.0
0.006591796875
0.0
0.002197265625
0.0
0.0018310546875
0.0
0.0054931640625
0.0
0.00439453125
0.0
0.0025634765625
0.0
0.00439453125
0.0
0.0054931640625
0.0
0.0040283203125
0.0
0.003662109375
0.0
0.003662109375
0.0
0.003662109375
0.0
0.0054931640625
0.0
0.0054931640625
0.0
0.005126953125
0.0
0.005859375
0.0
0.005126953125
0.244659423828125
0.0032958984375
0.760711669921875
0.000732421875
1.0
0.000732421875
0.738739013671875
0.0032958984375
0.0
0.003662109375
0.0
0.021240234375
0.0
0.003662109375
0.0
-0.01904296875
0.0
-0.003662109375
0.0
-0.0032958984375
0.0
-0.008056640625
-0.47979736328125
-0.00732421875
-0.851165771484375
-0.0032958984375
-0.58489990234375
-0.0047607421875
-0.49517822265625
-0.0069580078125
-0.43475341796875
-0.0146484375
-0.153106689453125
-0.0234375
0.0
-0.0234375
0.0
-0.0150146484375
0.0
-0.0098876953125
0.0
-0.012451171875
0.0
-0.012451171875
0.0
0.0
0.0
0.0113525390625
0.0
0.0113525390625
0.0
0.010986328125
0.0
0.0069580078125
0.0
0.0069580078125
0.0
0.0040283203125
0.0
-0.003662109375
0.0
-0.0029296875
0.0
0.005126953125
0.659271240234375
0.017578125
1.0
0.021240234375
0.840179443359375
0.0047607421875
0.0003662109375
0.0003662109375
0.0
0.0216064453125
-0.0003662109375
0.0230712890625
-0.57647705078125
0.0087890625
-1.0
0.0186767578125
-0.9229736328125
-0.0120849609375
-0.319366455078125
-0.03515625
0.0
-0.0230712890625
0.0
-0.041748046875
0.0
-0.035888671875
0.0
-0.0142822265625
0.0
-0.0040283203125
0.0
0.0120849609375
0.0
0.0252685546875
0.0
0.029296875
0.0
0.03515625
0.0
0.034423828125
0.0
0.0333251953125
0.0
0.0574951171875
0.0
0.091552734375
0.0
0.115386962890625
0.0
0.130767822265625
0.0
0.18017578125
0.0
0.093017578125
0.0
-0.0684814453125
0.0
-0.065185546875
0.0
-0.214263916015625
0.0
-0.269561767578125
0.0
-0.065185546875
0.0
0.02783203125
0.0
0.016845703125
0.0
0.0205078125
0.0
0.025634765625
0.0
0.01171875
0.0
-0.0010986328125
0.0
-0.00439453125
0.0
0.245391845703125
0.0
0.153106689453125
0.009521484375
-0.231109619140625
0.648651123046875
-0.341339111328125
1.0
-0.421539306640625
0.850799560546875
-0.56329345703125
0.0
-0.39300537109375
0.0
-0.056427001953125
0.0
0.0
-0.39776611328125
0.0252685546875
-0.54388427734375
0.0
-0.343902587890625
0.011749267578125
-0.47467041015625
0.119049072265625
-0.736907958984375
0.1197509765625
-0.48089599609375
0.0684814453125
-0.0208740234375
0.054931640625
0.0
0.05859375
0.0
0.0853271484375
0.0
0.086456298828125
0.0
0.44207763671875
0.0
0.341339111328125
0.0
-0.071044921875
0.0
-0.149078369140625
0.0
-0.216094970703125
0.0
-0.110595703125
0.0
-0.0860595703125
0.0
-0.0538330078125
0.0
-0.0186767578125
0.0
-0.0029296875
0.0
0.0230712890625
0.0
0.025634765625
0.0
0.0172119140625
0.0
-0.04541015625
0.0
-0.0552978515625
0.0
-0.062286376953125
0.0
-0.056427001953125
0.0
-0.0146484375
0.0
0.012451171875
0.0
0.047607421875
0.0
0.005859375
0.0
-0.009521484375
0.0
-0.0274658203125
0.0
0.039581298828125
0.0
0.076934814453125
0.0
0.050537109375
0.0
0.069580078125
0.0
0.0732421875
0.0
0.418975830078125
0.0
0.50506591796875
0.0
-0.2083740234375
0.0
-0.96728515625
0.0
-0.623748779296875
0.33258056640625
0.0
1.0
0.0
1.0
0.0
0.0
0.0
0.0
0.0
0.0
0.0
0.0
0.312408447265625
0.0
1.0
0.0
-0.312408447265625
0.0
0.0
0.0
1.0
0.0
0.0
0.0
0.0
0.0
0.0
0.0
0.0
0.0
0.0
0.0
-0.826995849609375
-1.0
-1.0
-1.0
0.1094970703125
0.0
1.0
0.0
0.716766357421875
0.0
0.0
0.0
0.0
0.0
0.0
0.0
0.0
0.0
0.0
0.0
0.0
0.0
0.0
0.0
0.0
0.0
0.0
0.0
0.0
0.0
0.0
0.0
0.0
0.0
0.0
0.0
0.0
0.0
0.0
0.0
0.0
0.0
0.0
0.0
0.0
0.0
0.0
0.0
0.0
0.0
0.0
0.0
0.0
0.0
0.0
0.0
0.0
0.0
0.0
0.0
0.0
0.0
0.0
0.0
0.0
0.0
0.0
0.0
0.0
0.0
0.0
0.0
0.0
0.0
0.0
0.0
0.0003662109375
0.0
0.0
0.0
-0.0003662109375
0.0
0.0
0.0
0.0
0.0
0.0
0.0
0.0
0.0
0.0
0.0
0.0
0.0
0.0
0.0
0.0
0.0
0.0
0.0
0.0
0.0
0.0
0.0
0.0
0.0
0.0
0.0
-0.0091552734375
0.0
-0.041778564453125
0.0
-0.062652587890625
0.0
-0.05859375
0.0
-0.0615234375
0.0
-0.0626220703125
0.0
-0.114990234375
0.0
-0.206207275390625
0.0
-0.170684814453125
0.0
-0.1270751953125
0.0
-0.1292724609375
0.0
-0.0780029296875
0.0
-0.129669189453125
0.0
-0.237701416015625
0.0
-0.295928955078125
0.0
-0.39666748046875
0.0
-0.52484130859375
0.0
-0.290069580078125
0.0
0.0
0.0
0.0
0.45526123046875
0.0
1.0
0.0
1.0
0.0
0.087188720703125
0.0
0.0
0.0
0.0
0.0
0.0
0.0
0.0
0.0
0.0
0.0
0.0
0.0
0.0
0.0
0.0
0.0
0.0
0.0
0.0
0.0
0.0
0.0
0.0
0.0
0.0
0.0
-0.000732421875
0.0
-0.0003662109375
0.0
-0.0098876953125
0.0
-0.008056640625
0.0
-0.0032958984375
0.0
0.00732421875
0.0
-0.145782470703125
0.0
-0.220123291015625
0.0
-0.093017578125
0.0
-0.0618896484375
0.0
-0.101104736328125
0.0
-0.106964111328125
0.0
-0.1695556640625
0.0
-0.10693359375
0.0
0.0904541015625
0.0
0.1732177734375
0.0
0.113555908203125
0.0
0.134429931640625
0.0
0.113525390625
0.0
0.1182861328125
0.0
0.157470703125
0.0
0.050933837890625
0.0
0.034454345703125
0.0
0.0018310546875
0.0
0.000732421875
0.0
-0.00439453125
0.0
-0.043243408203125
0.0
-0.061187744140625
0.0
-0.082763671875
0.0
-0.1439208984375
0.0
-0.227447509765625
0.0
-0.238433837890625
0.0
-0.1519775390625
0.0
0.0296630859375
0.0
0.362579345703125
0.0
0.42120361328125
0.0
0.141754150390625
0.0
0.015380859375
1.0
0.0142822265625
1.0
0.0
0.0
0.0
0.0
0.0
0.0
0.0
0.0
0.0
0.0
0.0
0.0
0.0
0.0
0.0
0.0
-0.150909423828125
0.0
-1.0
-0.000732421875
-1.0
-0.000732421875
-0.019775390625
0.0
0.0
0.0
0.0
0.0
0.0
0.0
0.0
0.0
0.0
0.0
0.0
0.0
0.0
0.0
0.0
0.0
0.0
0.0
0.0
0.0
0.0
0.0
0.0
0.0
0.0
0.0
0.0
0.0
0.0
0.0
0.0
0.0
0.0
0.0
0.0
0.0
0.0
0.0
0.0
0.0
0.0
0.0
0.0
0.0
0.0
0.0
0.0
0.0
0.0
0.0
0.0
0.0
0.0
0.0
0.0
0.0
0.0
0.0
0.0
0.0
0.0
0.0
0.0
0.0
0.0
0.0
0.0
0.0
0.0
0.0
0.0
0.0
0.0
0.0
0.0
0.0
0.0
0.0
0.0135498046875
0.0
0.043975830078125
0.0
0.119049072265625
0.0
0.0750732421875
0.0
0.0245361328125
0.0
0.08642578125
0.0
0.1461181640625
0.0003662109375
0.0589599609375
0.0
-0.1768798828125
-0.0003662109375
-0.264434814453125
0.0
-0.126373291015625
0.0
0.134796142578125
0.0
0.34906005859375
0.0
0.405059814453125
0.0003662109375
0.336578369140625
0.0003662109375
0.345367431640625
0.0
0.217559814453125
0.0
0.078765869140625
0.0
0.04248046875
0.0
-0.0487060546875
0.0003662109375
-0.107696533203125
0.0
-0.103302001953125
-0.0003662109375
-0.029296875
0.0
-0.0032958984375
0.0
0.052734375
0.0
0.0743408203125
0.0
0.066680908203125
0.0
0.002197265625
0.0
-0.0062255859375
0.0
0.060455322265625
0.0
0.02197265625
0.0
0.0626220703125
0.0
0.09228515625
0.0
0.097412109375
0.0
0.0728759765625
0.0003662109375
0.01611328125
0.0003662109375
0.019775390625
0.0
0.0150146484375
0.0
0.0267333984375
0.0
-0.00732421875
0.0
-0.0069580078125
0.0
-0.017578125
-0.0003662109375
-0.0146484375
0.0
-0.0029296875
0.0
-0.0487060546875
0.0
-0.0318603515625
0.0
-0.044677734375
-0.0003662109375
0.00439453125
0.0
0.0025634765625
0.0003662109375
-0.0150146484375
0.0
-0.01318359375
-0.0003662109375
-0.043212890625
0.0003662109375
-0.022705078125
0.0
-0.0706787109375
0.0
-0.025634765625
0.0
-0.0172119140625
-0.0003662109375
-0.0047607421875
-0.043609619140625
0.037353515625
-0.078033447265625
0.0582275390625
-0.10693359375
0.0322265625
-0.0252685546875
-0.144317626953125
0.150543212890625
-0.114288330078125
0.103302001953125
-0.02783203125
0.0
-0.005859375
0.0
-0.0205078125
0.0
-0.03369140625
0.0
-0.0084228515625
0.0
-0.035888671875
0.0
-0.0296630859375
0.0
-0.0941162109375
0.0
-0.08935546875
0.0
-0.0706787109375
0.0
-0.0303955078125
-0.002197265625
0.0223388671875
-0.0069580078125
-0.0018310546875
-0.0084228515625
-0.0047607421875
-0.018310546875
-0.0333251953125
-0.053863525390625
-0.0194091796875
-0.079498291015625
-0.0267333984375
-0.0838623046875
0.01171875
-0.0501708984375
0.003662109375
-0.0472412109375
-0.018310546875
-0.0377197265625
-0.0084228515625
-0.006591796875
-0.000732421875
-0.0208740234375
0.0399169921875
-0.0128173828125
0.005126953125
-0.0234375
0.018310546875
-0.0289306640625
-0.0047607421875
-0.0362548828125
-0.0018310546875
-0.0289306640625
0.0029296875
-0.0413818359375
0.0146484375
-0.051300048828125
0.05859375
-0.026763916015625
0.0303955078125
-0.0245361328125
0.04833984375
0.0032958984375
0.0025634765625
-0.005126953125
0.0120849609375
-0.005126953125
0.008056640625
-0.006591796875
-0.01611328125
-0.016845703125
-0.005859375
-0.0150146484375
-0.0146484375
-0.0223388671875
0.0340576171875
-0.005859375
0.01318359375
-0.00146484375
0.0142822265625
0.00146484375
-0.0164794921875
-0.0135498046875
-0.00439453125
-0.0076904296875
0.005126953125
-0.0084228515625
-0.0150146484375
-0.022705078125
0.03076171875
-0.0084228515625
0.00439453125
-0.02197265625
0.031494140625
-0.0164794921875
0.022705078125
-0.0128173828125
0.02783203125
-0.0069580078125
0.0113525390625
-0.01171875
-0.0146484375
-0.0208740234375
0.01318359375
-0.010986328125
0.003662109375
0.0087890625
0.0325927734375
0.00146484375
0.0113525390625
-0.0318603515625
0.0146484375
-0.0091552734375
0.01318359375
-0.0003662109375
0.02783203125
0.008056640625
0.032958984375
0.0087890625
0.0025634765625
-0.0040283203125
-0.000732421875
-0.0040283203125
-0.013916015625
-0.01318359375
0.0179443359375
-0.005126953125
0.0018310546875
-0.0106201171875
0.0
-0.0087890625
-0.0172119140625
-0.0087890625
-0.017578125
-0.010986328125
0.0025634765625
-0.0069580078125
-0.0087890625
-0.0142822265625
0.0069580078125
-0.0091552734375
-0.019775390625
-0.0062255859375
-0.005126953125
0.01025390625
-0.01025390625
0.006591796875
0.013916015625
0.00732421875
0.0054931640625
-0.0003662109375
-0.022705078125
-0.01904296875
0.0120849609375
-0.0208740234375
0.0186767578125
-0.0260009765625
0.054962158203125
-0.006591796875
0.018310546875
-0.0076904296875
0.0106201171875
-0.005126953125
-0.017578125
-0.0091552734375
-0.0223388671875
-0.005859375
-0.000732421875
0.00439453125
-0.026763916015625
0.0029296875
-0.0029296875
0.006591796875
-0.0413818359375
-0.01025390625
-0.0274658203125
0.008056640625
-0.0384521484375
0.0084228515625
-0.012451171875
0.0201416015625
0.0025634765625
0.01171875
-0.0384521484375
-0.0391845703125
0.0106201171875
-0.0439453125
0.162628173828125
-0.55084228515625
0.209869384765625
-0.596649169921875
0.0911865234375
-0.0029296875
0.06884765625
0.131134033203125
-0.00146484375
0.106201171875
-0.0245361328125
0.079833984375
-0.006591796875
0.071044921875
-0.0494384765625
0.05419921875
-0.037353515625
0.046875
-0.0465087890625
0.045440673828125
-0.010986328125
0.039947509765625
-0.0010986328125
0.0340576171875
-0.01318359375
0.0318603515625
-0.0223388671875
0.0274658203125
-0.031494140625
0.025634765625
0.0150146484375
0.0380859375
0.0087890625
0.0263671875
0.0032958984375
0.00439453125
-0.0234375
0.008056640625
-0.022705078125
0.005859375
-0.0238037109375
0.0054931640625
0.0062255859375
0.003662109375
0.0054931640625
0.0076904296875
-0.0322265625
0.019775390625
-0.000732421875
0.012451171875
-0.0029296875
-0.0003662109375
0.0047607421875
0.002197265625
-0.024200439453125
0.0106201171875
-0.017974853515625
0.010986328125
-0.0260009765625
0.0076904296875
-0.022705078125
0.005859375
0.0
0.0054931640625
-0.0142822265625
0.0025634765625
-0.0010986328125
0.00146484375
-0.034423828125
-0.0010986328125
-0.0010986328125
0.0010986328125
0.005859375
0.00439453125
0.01904296875
0.0054931640625
0.0179443359375
0.0040283203125
-0.017578125
-0.0054931640625
0.009521484375
-0.0040283203125
-0.0025634765625
0.003662109375
0.0303955078125
0.0054931640625
0.00732421875
-0.002197265625
0.00732421875
-0.0076904296875
0.0025634765625
-0.0025634765625
-0.0062255859375
-0.0230712890625
0.0263671875
-0.0267333984375
-0.0120849609375
-0.00439453125
-0.0025634765625
0.0018310546875
-0.031494140625
0.0040283203125
-0.0054931640625
0.0032958984375
0.008056640625
0.002197265625
-0.0018310546875
0.0010986328125
0.0062255859375
0.0040283203125
-0.024169921875
0.005126953125
0.0076904296875
0.0018310546875
0.0025634765625
0.003662109375
0.015380859375
0.0054931640625
-0.005859375
0.00146484375
-0.0164794921875
0.002197265625
-0.000732421875
0.0047607421875
0.0003662109375
0.00439453125
0.022705078125
0.002197265625
-0.0010986328125
0.000732421875
-0.00439453125
0.000732421875
-0.0128173828125
0.0003662109375
0.01171875
0.00146484375
0.0146484375
0.0003662109375
0.022003173828125
0.0010986328125
0.012451171875
0.005126953125
-0.027862548828125
0.00146484375
-0.0054931640625
-0.0025634765625
0.0076904296875
0.0
0.0003662109375
0.0230712890625
-0.04833984375
0.002197265625
-0.03515625
-0.0311279296875
-0.0098876953125
-0.010986328125
0.0150146484375
0.0025634765625
0.0098876953125
0.00146484375
-0.0289306640625
-0.002197265625
-0.010986328125
-0.002197265625
-0.01611328125
0.0010986328125
0.028564453125
0.0069580078125
0.01025390625
0.0062255859375
-0.0029296875
0.0010986328125
-0.002197265625
-0.002197265625
-0.0032958984375
-0.0010986328125
0.034423828125
0.0018310546875
0.003662109375
0.0018310546875
0.0087890625
0.0029296875
-0.0208740234375
0.0032958984375
-0.0003662109375
0.0040283203125
0.005126953125
0.002197265625
-0.006591796875
0.000732421875
0.005126953125
0.0018310546875
-0.0333251953125
0.0
-0.006591796875
-0.00146484375
-0.01611328125
-0.0025634765625
0.012451171875
-0.0018310546875
0.0
0.00146484375
-0.021240234375
0.0091552734375
-0.0047607421875
-0.0047607421875
-0.015380859375
-0.0128173828125
0.019775390625
-0.000732421875
-0.0186767578125
-0.0010986328125
-0.0172119140625
-0.0010986328125
-0.0179443359375
0.0
0.00146484375
0.00146484375
0.019775390625
0.002197265625
-0.010986328125
0.000732421875
-0.0032958984375
-0.00439453125
-0.0179443359375
-0.0069580078125
0.0113525390625
-0.0062255859375
0.0194091796875
-0.0069580078125
0.0194091796875
-0.0032958984375
-0.002197265625
-0.002197265625
-0.0076904296875
-0.00439453125
0.0186767578125
-0.0003662109375
0.0205078125
0.0018310546875
0.0252685546875
0.00146484375
-0.0029296875
0.0025634765625
-0.005126953125
0.00146484375
-0.0069580078125
0.0
0.0289306640625
-0.00146484375
0.0230712890625
-0.0032958984375
0.00146484375
-0.0018310546875
-0.0029296875
0.0003662109375
-0.0091552734375
0.0003662109375
0.027099609375
0.0003662109375
0.01025390625
0.005859375
0.0120849609375
0.01171875
-0.0194091796875
-0.008056640625
-0.00146484375
-0.0135498046875
0.019775390625
0.000732421875
0.01171875
0.0029296875
0.0146484375
0.0025634765625
-0.0289306640625
-0.00146484375
0.009521484375
-0.000732421875
0.0047607421875
0.000732421875
0.026397705078125
0.0
0.0076904296875
-0.002197265625
-0.021636962890625
-0.005126953125
0.00439453125
-0.0040283203125
-0.006591796875
-0.0029296875
0.036651611328125
-0.0032958984375
0.0
-0.00146484375
-0.0018310546875
0.0
-0.012451171875
-0.0025634765625
-0.0032958984375
-0.0029296875
0.029327392578125
-0.0018310546875
-0.0029296875
-0.00146484375
0.0047607421875
-0.0003662109375
-0.026031494140625
0.0003662109375
0.005126953125
0.0
0.0120849609375
-0.00146484375
0.0120849609375
0.0003662109375
0.002197265625
0.002197265625
-0.0223388671875
0.002197265625
0.009918212890625
0.002197265625
0.00732421875
0.0047607421875
0.025634765625
0.016845703125
-0.0010986328125
-0.0010986328125
-0.01025390625
-0.0150146484375
0.0
0.0003662109375
0.0172119140625
0.000732421875
0.027099609375
0.0003662109375
0.0003662109375
0.00146484375
-0.005126953125
0.000732421875
-0.01025390625
0.0
0.0238037109375
0.00146484375
0.0208740234375
0.00146484375
0.0186767578125
-0.0029296875
-0.00439453125
-0.002197265625
-0.0120849609375
-0.0010986328125
0.0128173828125
-0.002197265625
0.01171875
-0.0032958984375
0.0113525390625
-0.0040283203125
-0.028564453125
0.0
-0.01025390625
0.000732421875
-0.006591796875
0.00146484375
0.01611328125
0.0032958984375
0.0018310546875
-0.0003662109375
-0.0274658203125
0.0
-0.005859375
0.002197265625
-0.0113525390625
0.002197265625
0.025634765625
0.0062255859375
-0.0076904296875
0.0040283203125
-0.008056640625
0.0
-0.0238037109375
-0.000732421875
-0.015380859375
0.0
0.022705078125
0.0003662109375
-0.006591796875
-0.00146484375
-0.000732421875
0.0
-0.055328369140625
-0.0018310546875
-0.0208740234375
-0.00146484375
-0.0010986328125
-0.0018310546875
0.0029296875
-0.003662109375
0.008056640625
-0.00146484375
-0.028961181640625
-0.000732421875
0.008056640625
-0.0025634765625
0.00439453125
-0.005126953125
0.034820556640625
0.0025634765625
0.00732421875
0.006591796875
-0.008056640625
-0.005859375
0.005126953125
-0.0062255859375
0.005859375
-0.0018310546875
0.034820556640625
-0.0032958984375
0.000732421875
-0.0010986328125
-0.0010986328125
0.0010986328125
-0.01171875
0.0010986328125
0.012451171875
0.0010986328125
0.0201416015625
0.0032958984375
0.0018310546875
0.0025634765625
-0.005126953125
0.0003662109375
-0.0186767578125
-0.000732421875
0.013916015625
0.0
0.0201416015625
0.0003662109375
0.0208740234375
0.0025634765625
-0.01025390625
0.0025634765625
-0.0069580078125
0.00146484375
0.005126953125
0.0010986328125
0.01171875
0.0
0.0135498046875
0.0
-0.008056640625
0.0010986328125
-0.0025634765625
0.000732421875
-0.006591796875
0.0018310546875
0.0274658203125
0.0208740234375
0.00439453125
-0.0018310546875
-0.0113525390625
-0.022705078125
-0.0238037109375
-0.0018310546875
-0.01171875
0.0
0.017578125
0.000732421875
0.008056640625
-0.0003662109375
0.0296630859375
0.000732421875
-0.016845703125
0.005859375
0.013916015625
-0.068115234375
0.0208740234375
-0.093017578125
0.016845703125
-0.032958984375
0.010986328125
-0.01171875
-0.0303955078125
0.0018310546875
0.002197265625
0.0054931640625
-0.012451171875
0.005859375
0.018310546875
0.005126953125
-0.00439453125
0.006591796875
-0.0069580078125
0.0084228515625
0.0120849609375
0.010986328125
0.000732421875
0.01318359375
0.0238037109375
0.0150146484375
-0.0113525390625
0.0146484375
0.0047607421875
-0.0062255859375
-0.00146484375
-0.0809326171875
0.0150146484375
-0.097076416015625
0.025634765625
-0.038848876953125
-0.0047607421875
-0.013916015625
-0.0113525390625
-0.0025634765625
-0.041015625
0.0054931640625
0.0010986328125
0.0087890625
0.01025390625
0.01171875
0.0146484375
0.01171875
-0.005859375
0.010284423828125
-0.0267333984375
0.011383056640625
0.006591796875
0.010986328125
0.0098876953125
0.0135498046875
0.017578125
0.0164794921875
-0.015380859375
0.01318359375
-0.0208740234375
0.010986328125
-0.0150146484375
0.0128173828125
0.0069580078125
0.01171875
0.0040283203125
0.0142822265625
-0.0201416015625
0.0179443359375
-0.028564453125
0.016845703125
-0.028564453125
0.017578125
0.005126953125
0.01904296875
-0.0018310546875
0.0179443359375
-0.0069580078125
0.0135498046875
-0.0325927734375
0.012451171875
-0.02490234375
0.01171875
-0.016510009765625
0.060791015625
-0.0032958984375
0.0823974609375
0.0018310546875
0.03662109375
-0.040313720703125
0.049072265625
-0.0318603515625
0.068878173828125
-0.0303955078125
0.039215087890625
0.016845703125
0.0128173828125
-0.0069580078125
0.018310546875
-0.02783203125
-0.0018310546875
-0.0186767578125
-0.02490234375
-0.01904296875
-0.01171875
0.0347900390625
-0.009552001953125
0.000732421875
-0.011016845703125
0.0084228515625
-0.0098876953125
-0.010986328125
-0.0322265625
0.012451171875
-0.085693359375
0.0406494140625
-0.0703125
0.0128173828125
-0.015380859375
0.0150146484375
-0.008056640625
-0.034423828125
-0.0062255859375
0.008056640625
-0.003662109375
0.0157470703125
-0.0025634765625
0.022369384765625
-0.00146484375
0.0
-0.0025634765625
-0.033355712890625
-0.00146484375
0.008056640625
-0.0003662109375
0.005859375
-0.000732421875
0.031158447265625
0.0003662109375
-0.006591796875
0.0010986328125
-0.017242431640625
0.0087890625
-0.0120849609375
0.0113525390625
0.0069580078125
-0.0091552734375
0.0318603515625
-0.012451171875
-0.0084228515625
0.0010986328125
-0.0069580078125
0.00146484375
-0.0205078125
-0.0003662109375
0.0087890625
0.0
0.0205078125
0.002197265625
0.013946533203125
0.000732421875
-0.0091552734375
-0.002197265625
-0.024566650390625
-0.0069580078125
0.0062255859375
-0.003662109375
0.01611328125
0.0018310546875
0.019439697265625
-0.00146484375
-0.017578125
0.0
-0.012115478515625
0.00146484375
-0.0018310546875
-0.0010986328125
0.022003173828125
-0.0018310546875
0.015380859375
-0.00146484375
-0.013580322265625
-0.0010986328125
-0.0186767578125
-0.00146484375
-0.013916015625
-0.000732421875
0.026763916015625
0.0003662109375
0.005126953125
-0.0010986328125
0.0084228515625
-0.002197265625
-0.0230712890625
-0.002197265625
-0.0076904296875
-0.00146484375
0.0238037109375
-0.0018310546875
0.0106201171875
0.0201416015625
0.017608642578125
0.00439453125
-0.030059814453125
-0.0245361328125
0.0120849609375
-0.00732421875
0.012451171875
-0.0025634765625
0.0263671875
-0.0025634765625
0.013946533203125
0.0003662109375
-0.0245361328125
0.0025634765625
0.0062255859375
0.002197265625
-0.0029296875
0.0018310546875
0.0421142578125
0.002197265625
-0.000732421875
0.0018310546875
-0.0120849609375
0.0010986328125
-0.01025390625
0.000732421875
-0.0098876953125
0.0025634765625
0.037353515625
0.002197265625
-0.0010986328125
0.002197265625
0.0029296875
0.002197265625
-0.0223388671875
0.0
0.0032958984375
-0.00146484375
0.018310546875
-0.000732421875
0.0
0.00146484375
-0.006591796875
0.0018310546875
-0.0362548828125
0.0010986328125
0.0029296875
0.0
0.005859375
0.0018310546875
0.009521484375
0.0025634765625
-0.022735595703125
0.002197265625
-0.0325927734375
0.0040283203125
-0.0087890625
0.0062255859375
0.000732421875
0.0084228515625
0.0098876953125
0.003662109375
-0.020538330078125
0.000732421875
-0.0267333984375
0.0010986328125
-0.0230712890625
0.0003662109375
0.015380859375
-0.0010986328125
0.0084228515625
-0.0029296875
-0.0113525390625
0.018310546875
-0.0208740234375
-0.0003662109375
-0.0135498046875
-0.025634765625
0.0157470703125
-0.0069580078125
0.01318359375
-0.003662109375
0.0120849609375
-0.002197265625
-0.0128173828125
-0.0025634765625
0.0146484375
-0.005126953125
0.0091552734375
-0.0029296875
0.024566650390625
0.0018310546875
0.013916015625
0.002197265625
-0.026031494140625
-0.0003662109375
0.0
-0.0003662109375
-0.0032958984375
0.0010986328125
0.041046142578125
0.0025634765625
0.00146484375
0.00146484375
-0.012451171875
0.000732421875
-0.0150146484375
0.0018310546875
-0.012451171875
0.0010986328125
0.031158447265625
0.0003662109375
-0.003692626953125
0.00146484375
0.00732421875
0.000732421875
-0.034423828125
0.0003662109375
0.00146484375
0.0
0.022705078125
0.0003662109375
0.0062255859375
0.000732421875
0.005859375
0.0003662109375
-0.043243408203125
0.008056640625
0.00439453125
0.010986328125
0.0076904296875
-0.01171875
0.027130126953125
-0.013916015625
-0.005126953125
0.0010986328125
-0.030059814453125
-0.0010986328125
0.00146484375
-0.0025634765625
-0.0003662109375
-0.00146484375
0.035552978515625
0.00146484375
-0.0047607421875
0.0
-0.0150146484375
-0.00146484375
-0.019775390625
-0.0025634765625
0.012451171875
-0.0025634765625
0.034820556640625
-0.000732421875
-0.00439453125
0.000732421875
-0.009185791015625
0.000732421875
-0.024932861328125
-0.0003662109375
0.011016845703125
0.000732421875
0.021636962890625
0.0
0.005859375
-0.0003662109375
-0.025665283203125
0.0
-0.021270751953125
-0.000732421875
0.01025390625
-0.00146484375
0.025299072265625
-0.0010986328125
0.017608642578125
0.0
-0.016143798828125
-0.0003662109375
-0.009552001953125
0.000732421875
-0.0069580078125
0.00146484375
0.030426025390625
0.0029296875
0.014312744140625
0.002197265625
-0.005126953125
-0.000732421875
-0.019073486328125
0.0003662109375
-0.015380859375
-0.0010986328125
0.033355712890625
-0.002197265625
0.00732421875
-0.000732421875
0.0076904296875
0.0003662109375
-0.036285400390625
0.0
-0.009521484375
0.0062255859375
0.01904296875
0.0135498046875
0.0087890625
-0.005859375
0.002227783203125
-0.0120849609375
-0.046173095703125
0.0
-0.000762939453125
-0.0003662109375
-0.01025390625
0.0003662109375
0.023101806640625
0.00146484375
-0.0032958984375
0.0
-0.038482666015625
0.00146484375
-0.0157470703125
0.0062255859375
-0.024169921875
0.0069580078125
0.0340576171875
0.00439453125
-0.01318359375
0.0018310546875
-0.024169921875
0.003662109375
-0.0355224609375
0.0029296875
-0.010986328125
0.002197265625
0.027099609375
0.0025634765625
-0.016845703125
-0.0010986328125
-0.0128173828125
-0.0010986328125
-0.07763671875
0.0003662109375
-0.0380859375
-0.0010986328125
0.01171875
-0.0025634765625
0.0062255859375
-0.0029296875
-0.0142822265625
-0.0029296875
-0.0362548828125
-0.0032958984375
0.0076904296875
-0.00439453125
0.0150146484375
-0.0040283203125
0.0303955078125
-0.0025634765625
-0.0025634765625
-0.0029296875
-0.01318359375
-0.003662109375
-0.0025634765625
-0.00439453125
0.0230712890625
-0.00439453125
0.032958984375
-0.0018310546875
-0.005859375
-0.0003662109375
-0.0186767578125
-0.0010986328125
-0.009521484375
0.013916015625
0.0208740234375
0.00732421875
0.016845703125
-0.0150146484375
0.0135498046875
-0.0076904296875
-0.0263671875
0.0003662109375
-0.0135498046875
0.0003662109375
0.0179443359375
0.000732421875
0.025634765625
-0.0003662109375
0.01904296875
-0.0003662109375
-0.03076171875
0.00146484375
0.0010986328125
0.0029296875
-0.0010986328125
0.00146484375
0.0311279296875
-0.000732421875
0.010986328125
0.0
-0.022705078125
0.0
-0.0069580078125
-0.000732421875
-0.01318359375
0.0
0.041748046875
0.0
-0.0018310546875
0.0
-0.00439453125
0.0
-0.025634765625
0.0010986328125
-0.009521484375
0.002197265625
0.03369140625
0.0223388671875
-0.0062255859375
-0.000732421875
0.0054931640625
-0.02490234375
-0.0362548828125
0.0018310546875
0.0091552734375
0.0018310546875
0.01611328125
-0.0032958984375
0.0157470703125
-0.0003662109375
0.01025390625
0.000732421875
-0.040283203125
0.0
0.008056640625
0.0
0.0062255859375
-0.00146484375
0.03369140625
-0.0025634765625
-0.0084228515625
-0.0018310546875
-0.02783203125
-0.0018310546875
0.0032958984375
-0.0010986328125
0.005859375
0.0003662109375
0.03369140625
0.00146484375
-0.005126953125
0.0010986328125
-0.010986328125
0.000732421875
-0.0201416015625
0.000732421875
0.01318359375
0.0
0.030029296875
0.0003662109375
0.0054931640625
0.0003662109375
-0.0113525390625
-0.000732421875
-0.0223388671875
-0.0003662109375
0.01171875
0.0
0.022705078125
-0.000732421875
0.019775390625
-0.0010986328125
-0.010986328125
-0.002197265625
0.0018310546875
-0.0567626953125
0.005859375
-0.0816650390625
0.021240234375
-0.0333251953125
0.01611328125
-0.009521484375
-0.017578125
0.0
-0.0157470703125
0.0047607421875
-0.010986328125
0.005859375
0.0333251953125
0.0062255859375
0.0018310546875
0.005859375
-0.0032958984375
0.0054931640625
-0.0223388671875
0.005859375
-0.0164794921875
0.005859375
0.0303955078125
0.0047607421875
0.008056640625
0.005859375
0.003662109375
0.005126953125
-0.0501708984375
0.005126953125
-0.0084228515625
0.0069580078125
0.005126953125
0.0106201171875
0.009521484375
0.0260009765625
0.0084228515625
0.00732421875
-0.046142578125
-0.01025390625
-0.005126953125
0.005126953125
-0.01025390625
0.006591796875
0.025634765625
0.0267333984375
-0.0120849609375
0.066650390625
-0.029296875
0.0556640625
-0.0047607421875
0.0186767578125
-0.0098876953125
0.01025390625
0.03515625
0.0062255859375
-0.012451171875
0.0
0.0040283203125
-0.05419921875
0.0142822265625
-0.085693359375
0.068878173828125
-0.044677734375
0.108062744140625
-0.015380859375
0.0640869140625
0.002197265625
0.0941162109375
0.000732421875
0.0362548828125
-0.018310546875
-0.000732421875
-0.0234375
0.0596923828125
-0.0391845703125
0.085693359375
-0.0626220703125
0.010986328125
-0.051300048828125
-0.040283203125
0.0032958984375
-0.030029296875
0.006256103515625
-0.02490234375
-0.0098876953125
-0.0263671875
0.0245361328125
-0.050537109375
0.0626220703125
-0.076171875
0.0823974609375
-0.0831298828125
0.0966796875
-0.0281982421875
0.0966796875
-0.009185791015625
0.0574951171875
-0.017242431640625
0.0252685546875
-0.038818359375
0.0142822265625
-0.05859375
0.0146484375
-0.040283203125
0.0135498046875
-0.037353515625
0.00439453125
-0.022705078125
-0.012451171875
-0.065185546875
0.013916015625
-0.0472412109375
0.0413818359375
-0.00732421875
0.01171875
0.005859375
-0.01025390625
-0.008056640625
-0.015380859375
-0.0560302734375
-0.0194091796875
-0.0252685546875
-0.01025390625
-0.032958984375
-0.0003662109375
0.01171875
-0.0076904296875
-0.018310546875
-0.008056640625
-0.041748046875
0.00146484375
-0.0205078125
0.0032958984375
-0.0303955078125
0.0047607421875
0.025634765625
0.0128173828125
-0.027496337890625
0.031494140625
0.00439453125
0.062286376953125
-0.0164794921875
0.017974853515625
-0.01025390625
-0.0311279296875
0.019775390625
-0.0128173828125
-0.022705078125
-0.009918212890625
-0.0018310546875
-0.009552001953125
-0.046905517578125
-0.0076904296875
0.0029296875
-0.0054931640625
0.0032958984375
-0.0164794921875
0.017242431640625
-0.0216064453125
0.01611328125
-0.012451171875
-0.0084228515625
-0.0047607421875
0.023834228515625
-0.022705078125
-0.002197265625
-0.0230712890625
0.03662109375
0.0135498046875
-0.005157470703125
0.0142822265625
-0.042877197265625
0.126373291015625
-0.0457763671875
0.214263916015625
-0.0303955078125
0.202880859375
0.017578125
0.131866455078125
-0.015380859375
0.008453369140625
-0.0201416015625
-0.041778564453125
-0.043212890625
-0.067047119140625
-0.01171875
-0.0391845703125
-0.002197265625
-0.0234375
-0.01318359375
-0.0296630859375
-0.006591796875
-0.038818359375
-0.01318359375
-0.03369140625
0.0216064453125
-0.0150146484375
0.0260009765625
-0.0205078125
0.0369873046875
-0.0223388671875
-0.00732421875
-0.035888671875
-0.0142822265625
-0.02783203125
0.00146484375
-0.031494140625
0.040283203125
-0.02490234375
0.027099609375
-0.0146484375
-0.1116943359375
-0.02490234375
-0.024169921875
-0.01611328125
0.0750732421875
-0.010986328125
0.03515625
0.000732421875
-0.0054931640625
-0.0084228515625
-0.005859375
0.0010986328125
-0.0406494140625
-0.005126953125
-0.0439453125
-0.0091552734375
-0.0003662109375
0.0025634765625
-0.0087890625
-0.000732421875
0.01904296875
0.0142822265625
-0.0380859375
0.006591796875
-0.0029296875
0.013916015625
0.0029296875
-0.002197265625
0.01318359375
0.0018310546875
0.0120849609375
0.0040283203125
-0.04541015625
-0.0150146484375
-0.0032958984375
0.0040283203125
-0.0135498046875
-0.0029296875
0.0322265625
0.01025390625
-0.012451171875
-0.003662109375
-0.019775390625
-0.003662109375
-0.0032958984375
0.0018310546875
-0.010986328125
-0.0047607421875
0.034423828125
0.01025390625
-0.0205078125
-0.005859375
-0.0087890625
-0.0076904296875
-0.03662109375
-0.0201416015625
-0.00439453125
-0.0032958984375
0.019775390625
0.0018310546875
0.000732421875
-0.0069580078125
0.0069580078125
-0.00439453125
-0.0281982421875
-0.0157470703125
0.0216064453125
0.002197265625
0.0135498046875
-0.005126953125
0.0230712890625
-0.0025634765625
0.0062255859375
-0.007354736328125
-0.0098876953125
-0.0098876953125
0.0150146484375
-0.000732421875
0.022705078125
0.0
0.044677734375
0.008819580078125
0.0018310546875
-0.00146484375
-0.0010986328125
-0.0025634765625
0.0
-0.006988525390625
0.0289306640625
0.006591796875
0.0234375
0.0047607421875
-0.00146484375
-0.0069580078125
-0.0003662109375
-0.0069580078125
-0.006591796875
-0.009552001953125
0.025634765625
-0.0003662109375
0.021240234375
-0.0029296875
0.022705078125
0.0040283203125
-0.02197265625
-0.0157470703125
-0.002197265625
-0.012451171875
0.0128173828125
-0.0003662109375
0.0157470703125
0.0029296875
0.027099609375
0.017578125
-0.019775390625
-0.0091552734375
-0.0003662109375
-0.0135498046875
-0.0106201171875
-0.00732421875
0.035186767578125
0.0091552734375
0.00439453125
0.0
-0.017578125
-0.008056640625
0.0047607421875
-0.0032958984375
-0.006622314453125
-0.00439453125
0.037750244140625
0.0150146484375
-0.005126953125
-0.002197265625
0.005859375
0.0003662109375
-0.0234375
-0.0106201171875
0.005859375
-0.0047607421875
0.0322265625
0.005126953125
-0.0040283203125
-0.0047607421875
0.015045166015625
0.005126953125
-0.026031494140625
0.0047607421875
0.0157470703125
0.002197265625
0.006622314453125
-0.017578125
0.021240234375
0.0032958984375
0.0003662109375
0.0018310546875
-0.0289306640625
-0.0113525390625
0.0098876953125
-0.00146484375
-0.0069580078125
-0.0062255859375
0.03515625
0.008056640625
-0.0040283203125
-0.0032958984375
-0.00732421875
-0.00439453125
-0.0010986328125
-0.0084228515625
0.0120849609375
-0.0040283203125
0.0369873046875
0.009521484375
0.00146484375
-0.006591796875
0.0098876953125
-0.0098876953125
-0.0135498046875
-0.0172119140625
0.0208740234375
-0.0054931640625
0.02490234375
-0.005859375
0.0135498046875
-0.0054931640625
-0.00439453125
-0.00146484375
-0.01318359375
-0.015380859375
0.0201416015625
-0.0157470703125
0.0164794921875
-0.0120849609375
0.0267333984375
-0.0047607421875
-0.01318359375
-0.01318359375
-0.0040283203125
-0.0076904296875
0.0032958984375
-0.0029296875
0.0223388671875
0.0029296875
0.022705078125
0.003662109375
-0.01171875
-0.00439453125
-0.005859375
-0.002197265625
-0.01171875
-0.0069580078125
0.0260009765625
0.005126953125
0.0029296875
-0.00146484375
0.0054931640625
0.0010986328125
-0.0205078125
-0.003662109375
-0.0087890625
-0.0018310546875
0.0263671875
0.0091552734375
0.0025634765625
0.0018310546875
0.015380859375
0.0062255859375
-0.0377197265625
-0.0069580078125
-0.00146484375
0.00439453125
-0.0025634765625
0.005859375
0.0128173828125
0.013916015625
0.008056640625
0.013916015625
-0.0439453125
0.0
-0.008056640625
0.0106201171875
-0.025634765625
0.0029296875
0.0234375
0.0179443359375
-0.0164794921875
0.005859375
-0.029296875
-0.0003662109375
-0.024169921875
-0.002197265625
-0.02490234375
-0.00439453125
0.02783203125
0.010986328125
-0.016845703125
0.0040283203125
-0.0087890625
-0.002197265625
-0.03662109375
-0.019775390625
0.003662109375
0.0025634765625
0.018310546875
0.0098876953125
0.00146484375
0.0040283203125
0.0069580078125
0.00146484375
-0.02783203125
-0.0120849609375
0.01904296875
0.0054931640625
0.010986328125
0.0054931640625
0.0216064453125
0.009521484375
-0.0062255859375
-0.0029296875
-0.0142822265625
-0.006591796875
0.0040283203125
0.0029296875
0.0025634765625
0.009521484375
0.0311279296875
0.01904296875
-0.0069580078125
-0.0003662109375
-0.00439453125
-0.0029296875
-0.0098876953125
-0.0032958984375
0.0150146484375
0.01171875
0.019775390625
0.009521484375
0.0025634765625
0.00439453125
-0.0150146484375
0.0018310546875
-0.02490234375
-0.0029296875
0.0208740234375
0.01171875
0.01318359375
0.00732421875
0.0106201171875
0.0120849609375
-0.0267333984375
-0.005126953125
-0.008056640625
-0.00146484375
0.005126953125
0.0146484375
0.0120849609375
0.009521484375
0.016845703125
-0.0032958984375
-0.03076171875
-0.013916015625
-0.0069580078125
-0.0003662109375
-0.01171875
-0.0062255859375
0.0318603515625
0.0091552734375
-0.002197265625
-0.0029296875
-0.021240234375
-0.0087890625
-0.0047607421875
-0.0032958984375
-0.010986328125
-0.0087890625
0.0369873046875
0.0087890625
-0.00439453125
-0.008056640625
0.005859375
-0.0018310546875
-0.0234375
-0.0142822265625
0.0032958984375
-0.0054931640625
0.0252685546875
0.00439453125
0.008056640625
-0.0047607421875
0.019775390625
0.0
-0.032958984375
-0.0216064453125
0.019775390625
-0.0040283203125
0.01171875
-0.006591796875
0.0318603515625
-0.0010986328125
0.01318359375
-0.0084228515625
-0.024169921875
-0.0164794921875
0.0146484375
-0.005859375
-0.0010986328125
-0.0135498046875
0.035888671875
0.0040283203125
-0.0010986328125
-0.01171875
-0.0029296875
-0.01025390625
-0.01171875
-0.01025390625
0.00146484375
-0.000732421875
0.03076171875
0.00439453125
-0.0062255859375
-0.0098876953125
0.0029296875
0.0003662109375
0.022705078125
-0.043212890625
0.0245361328125
-0.041748046875
