0.749725341796875
0.746795654296875
0.749359130859375
0.747161865234375
-1.0
-1.0
-1.0
-1.0
-0.32965087890625
0.0
0.0
0.0
0.0
0.0
0.0
0.0
0.0
0.0
0.0
0.0
0.0
0.0
0.0
0.0
0.0
0.0
0.0
0.0
0.0
0.0
0.0
0.0
0.0
0.0
0.0
0.0
0.0
0.0
0.0
0.0
0.0
0.0
0.0
0.0
0.0
0.0
0.0
0.0
0.0
0.0
0.0
0.0
0.0
0.0
0.0
0.0
0.0
0.0
0.0
0.0
0.0
0.0
0.0
0.0
0.0
0.0
0.0
0.0
0.0
0.0
0.0
0.0
0.0
0.0
0.0
0.0
0.0
0.0
0.0
0.0
0.0
0.0
0.0
0.0
0.01904296875
0.0
0.046905517578125
0.0
0.043975830078125
0.0
0.03076171875
0.0
0.05126953125
0.0
0.06298828125
0.0
0.064453125
0.0
0.12890625
0.0
0.1065673828125
0.39849853515625
0.071075439453125
1.0
0.0157470703125
1.0
0.084228515625
0.083892822265625
0.090850830078125
0.0054931640625
-0.0303955078125
-0.0003662109375
0.0216064453125
-0.0003662109375
0.0238037109375
0.0003662109375
0.0260009765625
0.0003662109375
0.024169921875
0.0
0.0087890625
0.0
0.0010986328125
-0.0003662109375
0.005126953125
0.0003662109375
0.034423828125
0.0003662109375
0.050537109375
0.0
0.0322265625
0.0
0.0377197265625
-0.0003662109375
0.0523681640625
0.0
0.01611328125
0.0003662109375
0.000732421875
-0.0003662109375
0.0164794921875
0.0
0.00439453125
0.0
0.0003662109375
0.0
0.01025390625
0.0003662109375
-0.0025634765625
-0.0003662109375
0.000732421875
0.0
0.043609619140625
0.0003662109375
0.0205078125
0.0
-0.020172119140625
-0.0003662109375
0.0032958984375
-0.00146484375
0.010986328125
0.0003662109375
0.022369384765625
0.00146484375
0.010284423828125
-0.0003662109375
0.0
0.0
0.0172119140625
0.0003662109375
0.0150146484375
0.0
0.0164794921875
0.0
0.01904296875
0.0
0.0062255859375
0.0
-0.003662109375
0.0
0.0087890625
0.0
-0.0010986328125
0.0
0.005126953125
0.0
0.013916015625
0.0
0.0025634765625
0.0
0.01171875
0.0
0.0018310546875
-0.0003662109375
-0.0208740234375
0.0
0.0384521484375
-0.102935791015625
0.031494140625
-0.201446533203125
-0.0245361328125
-0.1885986328125
-0.0040283203125
-0.199249267578125
0.0040283203125
-0.176544189453125
0.003662109375
-0.1483154296875
0.00146484375
-0.1307373046875
-0.0010986328125
-0.100738525390625
0.000732421875
-0.061920166015625
0.0142822265625
-0.0263671875
0.009521484375
-0.0194091796875
0.01318359375
-0.0999755859375
0.0054931640625
-0.446441650390625
-0.0003662109375
-0.720428466796875
0.0054931640625
-0.36956787109375
0.008056640625
0.0
0.018310546875
0.32452392578125
0.0157470703125
0.41607666015625
0.0135498046875
0.0684814453125
0.0047607421875
0.250518798828125
-0.0150146484375
0.55743408203125
0.0
0.481964111328125
0.04541015625
0.0860595703125
0.009521484375
0.094146728515625
-0.01904296875
0.321563720703125
0.0047607421875
-0.065216064453125
-0.0062255859375
-0.59295654296875
0.0029296875
-0.450103759765625
0.0106201171875
0.207672119140625
0.0029296875
0.420440673828125
0.010986328125
0.209136962890625
0.0128173828125
0.0054931640625
0.0062255859375
0.0992431640625
0.0120849609375
0.34320068359375
0.0032958984375
0.215362548828125
-0.0135498046875
0.0
0.0025634765625
0.0
0.0029296875
0.0
0.0062255859375
0.0
0.0135498046875
0.0
-0.002197265625
0.0
0.0
-0.193389892578125
-0.01025390625
-0.189727783203125
-0.0267333984375
0.193389892578125
0.0347900390625
0.189727783203125
0.0223388671875
0.0
-0.0362548828125
0.0
-0.0120849609375
-0.00439453125
-0.0076904296875
0.0
-0.013916015625
0.00439453125
-0.012451171875
0.0
-0.0084228515625
0.0
0.0032958984375
0.0
0.0179443359375
0.0
0.009521484375
0.0
0.0003662109375
0.0
0.0010986328125
-0.0003662109375
-0.0003662109375
-0.103668212890625
-0.0084228515625
-0.674285888671875
-0.012451171875
-0.829559326171875
0.006591796875
-0.0380859375
0.0047607421875
0.796600341796875
-0.0150146484375
0.712738037109375
0.000732421875
0.136260986328125
-0.0128173828125
-0.054595947265625
-0.016845703125
0.0003662109375
0.0325927734375
-0.2274169921875
0.0098876953125
-0.40435791015625
-0.0150146484375
-0.233673095703125
-0.0025634765625
-0.218658447265625
-0.0018310546875
-0.194488525390625
0.00146484375
-0.2021484375
-0.0010986328125
-0.245758056640625
-0.0003662109375
-0.279449462890625
0.010986328125
-0.54058837890625
0.0128173828125
-0.39190673828125
0.0010986328125
0.0
0.0032958984375
0.100006103515625
0.005859375
0.35308837890625
0.0069580078125
0.312042236328125
-0.0018310546875
-0.035919189453125
-0.0054931640625
0.04541015625
0.008056640625
0.250518798828125
0.0062255859375
0.149810791015625
0.002197265625
0.0380859375
0.0069580078125
0.0029296875
-0.0172119140625
-0.236572265625
-0.0029296875
-0.41424560546875
0.049072265625
0.0673828125
0.0040283203125
0.296295166015625
-0.0303955078125
0.0205078125
-0.005126953125
-0.0018310546875
-0.00146484375
0.343170166015625
-0.003662109375
0.43548583984375
-0.005126953125
0.205474853515625
-0.002197265625
0.146484375
0.0025634765625
0.087890625
0.010986328125
-0.0054931640625
0.00732421875
-0.037353515625
0.0018310546875
0.120513916015625
0.006591796875
0.125640869140625
0.0032958984375
-0.110260009765625
-0.0069580078125
-0.063385009765625
-0.003662109375
0.05712890625
0.0087890625
0.028564453125
0.005859375
-0.035888671875
-0.005126953125
-0.1376953125
-0.0076904296875
-0.309478759765625
-0.018310546875
-0.064453125
-0.002197265625
0.54351806640625
0.0450439453125
0.17724609375
0.0010986328125
-0.227081298828125
-0.0362548828125
-0.0765380859375
-0.000732421875
-0.122314453125
0.0003662109375
-0.151611328125
-0.013916015625
-0.160430908203125
-0.0146484375
-0.173980712890625
-0.003662109375
-0.216827392578125
0.0076904296875
-0.225250244140625
0.01025390625
-0.17138671875
-0.000732421875
-0.1629638671875
-0.003662109375
-0.334381103515625
0.0032958984375
-0.33184814453125
-0.0054931640625
-0.088287353515625
-0.01611328125
0.076568603515625
-0.0076904296875
0.035552978515625
-0.0062255859375
-0.076568603515625
0.00146484375
-0.047271728515625
0.005859375
0.083526611328125
0.0
0.0
-0.0347900390625
-0.083526611328125
0.0208740234375
0.106231689453125
0.0494384765625
0.0
-0.0260009765625
-0.106231689453125
-0.01611328125
0.0
-0.002197265625
0.0
0.000732421875
0.0
-0.0029296875
0.0
-0.010986328125
0.0
-0.0029296875
0.0
0.0087890625
0.0
0.01318359375
0.0
0.010986328125
0.0
0.0106201171875
0.0
0.003662109375
0.0
-0.00146484375
0.0
0.0029296875
0.0
0.0076904296875
0.0
0.006591796875
0.0
0.0069580078125
0.0
0.005126953125
0.0
-0.005126953125
0.0029296875
-0.0355224609375
0.199249267578125
0.041015625
0.141387939453125
0.0428466796875
-0.1025390625
-0.03662109375
-0.038818359375
-0.005859375
0.0274658203125
-0.0032958984375
0.0860595703125
-0.0084228515625
0.239898681640625
-0.003662109375
0.303619384765625
-0.0047607421875
0.1593017578125
0.000732421875
0.04248046875
0.005859375
0.0479736328125
0.0098876953125
0.0670166015625
0.0076904296875
0.01904296875
0.0032958984375
-0.0029296875
0.003662109375
-0.0087890625
-0.000732421875
-0.1402587890625
-0.0069580078125
-0.2061767578125
0.000732421875
-0.032958984375
0.008056640625
0.1959228515625
-0.002197265625
0.1468505859375
0.0
0.036651611328125
-0.003662109375
0.0223388671875
-0.0413818359375
0.296295166015625
0.0384521484375
0.071807861328125
0.0435791015625
-0.204376220703125
-0.0377197265625
0.11279296875
-0.005859375
0.1424560546875
-0.000732421875
0.071044921875
-0.005859375
-0.028564453125
-0.009521484375
-0.060791015625
-0.01318359375
-0.0531005859375
-0.002197265625
-0.040283203125
0.0098876953125
0.010986328125
0.008056640625
0.021240234375
0.0084228515625
-0.0098876953125
0.009521484375
-0.0487060546875
0.0
-0.03662109375
-0.0091552734375
-0.04248046875
-0.0128173828125
-0.0494384765625
-0.0025634765625
-0.00732421875
0.009521484375
-0.0098876953125
0.00146484375
-0.0186767578125
-0.0040283203125
-0.0439453125
0.0025634765625
-0.051300048828125
-0.038818359375
0.1527099609375
0.0234375
-0.02783203125
0.041015625
-0.302886962890625
-0.0289306640625
-0.15966796875
-0.003662109375
-0.10400390625
-0.005859375
-0.0963134765625
-0.002197265625
-0.089019775390625
-0.0003662109375
-0.130401611328125
-0.0098876953125
-0.1380615234375
0.0
-0.0867919921875
0.01025390625
-0.016845703125
0.01025390625
0.01318359375
0.00732421875
-0.013916015625
0.00732421875
-0.0069580078125
0.00146484375
-0.0113525390625
-0.0084228515625
0.0194091796875
-0.0069580078125
0.0406494140625
0.005859375
0.0303955078125
0.0062255859375
0.015380859375
-0.0032958984375
-0.0010986328125
-0.00146484375
0.0113525390625
-0.02197265625
-0.0003662109375
0.01318359375
0.201080322265625
0.0435791015625
-0.017578125
-0.010986328125
-0.232208251953125
-0.02197265625
-0.0238037109375
-0.0062255859375
-0.00439453125
-0.0010986328125
-0.0025634765625
-0.005859375
-0.01025390625
-0.0087890625
0.009521484375
-0.010986328125
0.0120849609375
0.0062255859375
0.0589599609375
0.0208740234375
0.0849609375
0.0076904296875
0.084228515625
0.0047607421875
0.091552734375
0.0018310546875
0.095977783203125
-0.0032958984375
0.067047119140625
-0.0087890625
0.037353515625
-0.0040283203125
0.05859375
0.0069580078125
0.076904296875
0.00732421875
0.05859375
-0.0040283203125
0.003662109375
-0.00146484375
-0.003662109375
-0.01611328125
-0.024169921875
0.0025634765625
0.198883056640625
0.0421142578125
-0.005126953125
0.0003662109375
-0.245025634765625
-0.021240234375
-0.006591796875
-0.005126953125
-0.003662109375
-0.0069580078125
0.00439453125
-0.0106201171875
0.0040283203125
-0.0076904296875
-0.01611328125
-0.0062255859375
-0.0157470703125
0.0040283203125
0.015380859375
0.0150146484375
0.05712890625
0.003662109375
0.0457763671875
0.0003662109375
0.00439453125
0.005126953125
-0.0347900390625
-0.0032958984375
-0.035888671875
-0.0076904296875
-0.01611328125
-0.00439453125
0.008056640625
0.0076904296875
0.03076171875
0.005126953125
0.002197265625
-0.0084228515625
-0.003662109375
-0.005126953125
0.0054931640625
-0.025634765625
0.0186767578125
0.0172119140625
0.212066650390625
0.0479736328125
-0.0487060546875
-0.0091552734375
-0.259307861328125
-0.0260009765625
-0.016845703125
-0.0113525390625
-0.01171875
-0.0076904296875
-0.087158203125
-0.006591796875
-0.121246337890625
0.0010986328125
-0.101837158203125
-0.0018310546875
-0.0875244140625
0.0054931640625
-0.0531005859375
0.0084228515625
0.0029296875
0.00732421875
0.0234375
0.0062255859375
0.000732421875
0.0010986328125
0.0223388671875
0.0003662109375
0.024169921875
-0.0003662109375
0.046142578125
-0.0003662109375
0.059326171875
0.0069580078125
0.0333251953125
0.0069580078125
0.0128173828125
-0.0029296875
-0.0054931640625
-0.0029296875
0.0032958984375
-0.03955078125
0.096710205078125
0.043212890625
0.094879150390625
0.0465087890625
-0.150909423828125
-0.04248046875
-0.165191650390625
-0.0113525390625
-0.03515625
-0.005859375
-0.013916015625
-0.0032958984375
0.0018310546875
-0.0029296875
-0.009521484375
-0.0040283203125
-0.0084228515625
-0.0018310546875
-0.0087890625
0.0098876953125
0.052734375
0.0098876953125
0.09521484375
0.0029296875
0.089752197265625
0.0029296875
0.079864501953125
-0.0010986328125
0.0655517578125
0.0
0.035888671875
-0.0032958984375
0.0179443359375
0.00146484375
0.04833984375
0.0076904296875
0.0296630859375
0.00146484375
0.0164794921875
-0.0040283203125
0.0216064453125
-0.003662109375
0.0296630859375
-0.0340576171875
0.204010009765625
0.037353515625
0.164459228515625
0.04248046875
-0.113922119140625
-0.0347900390625
-0.091949462890625
-0.0076904296875
0.01611328125
-0.0098876953125
-0.0047607421875
-0.0087890625
-0.0164794921875
-0.0076904296875
-0.0355224609375
-0.013916015625
-0.0421142578125
0.00146484375
-0.005859375
0.0128173828125
0.0355224609375
0.0084228515625
0.077667236328125
0.0069580078125
0.059356689453125
0.0047607421875
0.0399169921875
-0.00146484375
0.0355224609375
-0.00146484375
0.0201416015625
-0.0062255859375
0.0325927734375
-0.0025634765625
0.0267333984375
0.0040283203125
0.02783203125
-0.00146484375
0.016845703125
0.0084228515625
-0.008056640625
-0.002197265625
0.012451171875
-0.0457763671875
0.224884033203125
0.0369873046875
0.1270751953125
0.0439453125
-0.160797119140625
-0.0347900390625
-0.0794677734375
-0.009521484375
-0.02197265625
-0.0032958984375
-0.0252685546875
-0.0098876953125
-0.0399169921875
-0.0120849609375
-0.052734375
-0.0069580078125
-0.0615234375
0.00146484375
-0.0450439453125
0.01171875
0.015380859375
0.0087890625
0.0406494140625
0.005859375
0.015380859375
0.00146484375
-0.030029296875
0.0047607421875
-0.02490234375
0.00146484375
-0.0333251953125
-0.008056640625
-0.03076171875
-0.0032958984375
-0.012451171875
0.0047607421875
-0.01025390625
0.0047607421875
-0.013580322265625
-0.00146484375
-0.019439697265625
0.0
-0.005859375
-0.0369873046875
0.156402587890625
0.0399169921875
0.062652587890625
0.040283203125
-0.192291259765625
-0.0406494140625
-0.112457275390625
-0.0062255859375
-0.0479736328125
-0.005859375
-0.0633544921875
-0.0054931640625
-0.0838623046875
-0.0040283203125
-0.1116943359375
-0.0032958984375
-0.0897216796875
-0.0040283203125
-0.060089111328125
0.009521484375
-0.009521484375
0.0135498046875
0.029693603515625
0.0054931640625
0.0267333984375
0.005859375
0.0172119140625
0.00146484375
0.030029296875
-0.0054931640625
0.0582275390625
-0.0076904296875
0.0648193359375
0.0025634765625
0.087890625
0.0087890625
0.05859375
0.0025634765625
0.0289306640625
0.0
0.029296875
0.000732421875
0.024169921875
-0.037353515625
0.230377197265625
0.0267333984375
0.062286376953125
0.04248046875
-0.198150634765625
-0.0274658203125
-0.058624267578125
-0.00732421875
-0.0054931640625
-0.005859375
-0.01171875
-0.003662109375
-0.0252685546875
-0.005859375
-0.03515625
-0.0135498046875
-0.0487060546875
0.0
-0.00439453125
0.0106201171875
0.05419921875
0.01171875
0.0948486328125
0.0032958984375
0.084625244140625
0.000732421875
0.062286376953125
0.0025634765625
0.043212890625
-0.005859375
0.0230712890625
-0.003662109375
0.0384521484375
-0.003662109375
0.031494140625
0.005126953125
0.017578125
0.0087890625
-0.005859375
0.002197265625
-0.01171875
-0.00146484375
-0.003662109375
-0.0399169921875
0.1226806640625
0.0296630859375
0.1527099609375
0.0487060546875
-0.14208984375
-0.0333251953125
-0.1688232421875
-0.0172119140625
-0.0267333984375
-0.0025634765625
-0.029296875
-0.0018310546875
-0.0523681640625
-0.008056640625
-0.0611572265625
-0.008056640625
-0.050567626953125
0.0010986328125
-0.034454345703125
0.0076904296875
0.0263671875
0.010986328125
0.057525634765625
0.0054931640625
0.044342041015625
-0.0003662109375
0.009521484375
0.002197265625
0.017578125
-0.002197265625
0.010986328125
-0.003662109375
0.0150146484375
-0.0025634765625
0.043212890625
0.0062255859375
0.037353515625
0.00732421875
0.0252685546875
-0.0047607421875
0.009521484375
0.00439453125
0.0010986328125
-0.032958984375
0.0172119140625
0.0018310546875
0.250518798828125
0.05712890625
-0.0303955078125
-0.0146484375
-0.246124267578125
-0.025634765625
0.0032958984375
0.00439453125
-0.021240234375
-0.005859375
-0.005859375
-0.0091552734375
-0.0113525390625
-0.0047607421875
-0.0150146484375
-0.008056640625
-0.0135498046875
0.0
0.0234375
0.010986328125
0.0560302734375
0.0032958984375
0.03515625
0.00146484375
0.0040283203125
0.0032958984375
-0.015380859375
-0.00146484375
-0.0106201171875
-0.00732421875
-0.027099609375
-0.0029296875
-0.010986328125
0.0054931640625
0.0047607421875
0.0029296875
-0.00146484375
-0.002197265625
-0.0157470703125
0.0
-0.02197265625
-0.0091552734375
-0.0003662109375
-0.032958984375
0.229278564453125
0.035888671875
0.013916015625
0.028564453125
-0.245391845703125
-0.0281982421875
-0.0465087890625
-0.00732421875
-0.0384521484375
-0.005126953125
-0.0322265625
0.0
-0.0289306640625
-0.005126953125
-0.051300048828125
-0.002197265625
-0.042144775390625
0.0062255859375
-0.01318359375
0.012451171875
0.042144775390625
0.0084228515625
0.059356689453125
0.003662109375
0.0391845703125
0.0032958984375
0.0223388671875
0.003662109375
0.0091552734375
-0.0040283203125
0.002197265625
-0.005859375
0.00146484375
0.0032958984375
0.029296875
0.00439453125
0.0205078125
0.0032958984375
0.0098876953125
0.0054931640625
0.003662109375
-0.00146484375
0.01025390625
-0.0435791015625
0.191162109375
0.0369873046875
0.0823974609375
0.0479736328125
-0.1666259765625
-0.0391845703125
-0.0823974609375
-0.0106201171875
0.0
-0.002197265625
-0.0274658203125
-0.003662109375
-0.087158203125
-0.0054931640625
-0.072540283203125
-0.0069580078125
-0.034454345703125
-0.0010986328125
-0.03515625
0.01025390625
-0.100341796875
0.0135498046875
-0.282012939453125
0.0047607421875
-0.0615234375
0.0025634765625
0.314971923828125
0.0
0.12890625
-0.0054931640625
-0.2171630859375
-0.006591796875
-0.17578125
-0.003662109375
0.0648193359375
0.0087890625
0.2032470703125
0.0047607421875
0.180572509765625
-0.00146484375
0.100738525390625
0.003662109375
0.07763671875
-0.0230712890625
0.044677734375
-0.00146484375
0.256378173828125
0.047607421875
-0.0172119140625
-0.002197265625
-0.270660400390625
-0.0263671875
-0.064453125
0.0003662109375
-0.089019775390625
-0.009521484375
-0.094146728515625
-0.0091552734375
-0.10107421875
-0.0040283203125
-0.1336669921875
-0.0018310546875
-0.175048828125
0.006591796875
-0.139190673828125
0.0113525390625
-0.052398681640625
0.0062255859375
0.060089111328125
-0.00146484375
0.068145751953125
0.002197265625
-0.115386962890625
0.000732421875
-0.195587158203125
-0.006591796875
0.01171875
-0.0029296875
0.14501953125
0.0018310546875
0.142486572265625
0.0040283203125
0.122711181640625
0.002197265625
0.0465087890625
0.0025634765625
0.02783203125
0.000732421875
0.017578125
-0.0399169921875
0.187530517578125
0.0322265625
0.08056640625
0.0421142578125
-0.172515869140625
-0.0325927734375
-0.09521484375
-0.01171875
-0.0626220703125
-0.0062255859375
-0.0736083984375
-0.0029296875
-0.089752197265625
-0.006591796875
-0.075836181640625
-0.01025390625
-0.0611572265625
-0.00146484375
-0.0494384765625
0.0091552734375
-0.0303955078125
0.01171875
-0.050537109375
0.0087890625
-0.0791015625
0.0010986328125
-0.0908203125
-0.0010986328125
-0.125640869140625
-0.005859375
-0.086090087890625
-0.0084228515625
-0.006591796875
-0.0029296875
0.0
0.010986328125
0.0
0.0062255859375
0.052764892578125
-0.0029296875
0.072174072265625
0.0
0.0157470703125
-0.034423828125
0.0157470703125
0.025634765625
0.2054443359375
0.054931640625
-0.057159423828125
-0.0234375
-0.255645751953125
-0.0230712890625
-0.03076171875
-0.0010986328125
-0.018310546875
-0.0025634765625
0.0
-0.0047607421875
0.0
0.0003662109375
0.0
-0.002197265625
0.0047607421875
0.0018310546875
0.120880126953125
0.006591796875
0.218292236328125
0.01025390625
0.204376220703125
0.0040283203125
0.152008056640625
-0.0003662109375
0.1116943359375
0.0032958984375
0.10546875
-0.002197265625
0.0230712890625
-0.00439453125
-0.046875
0.000732421875
-0.034423828125
0.0062255859375
0.046875
0.0040283203125
0.293731689453125
-0.0062255859375
0.293731689453125
-0.0069580078125
0.0728759765625
-0.0391845703125
0.389312744140625
0.02197265625
0.259674072265625
0.03076171875
-0.1395263671875
-0.0428466796875
-0.028564453125
-0.01611328125
-0.024169921875
-0.0032958984375
-0.0146484375
-0.003662109375
-0.015380859375
-0.005126953125
-0.052734375
-0.003662109375
-0.0556640625
0.005126953125
-0.0267333984375
0.0201416015625
0.0245361328125
0.0135498046875
0.0281982421875
0.008056640625
-0.005126953125
0.003662109375
-0.021240234375
0.0018310546875
-0.0054931640625
0.002197265625
-0.0205078125
-0.008056640625
-0.0318603515625
-0.0098876953125
0.0062255859375
0.0084228515625
0.0208740234375
0.0157470703125
0.0223388671875
0.0018310546875
-0.005126953125
0.0010986328125
-0.0150146484375
-0.019775390625
-0.0201416015625
-0.005859375
0.1981201171875
0.047607421875
-0.038116455078125
0.00439453125
-0.271759033203125
-0.027099609375
-0.032958984375
-0.0047607421875
-0.049072265625
-0.005126953125
-0.0501708984375
-0.003662109375
-0.0831298828125
-0.005859375
-0.0904541015625
-0.005126953125
-0.06005859375
0.0062255859375
-0.0457763671875
0.0146484375
-0.046142578125
0.0062255859375
-0.177276611328125
-0.0025634765625
-0.617156982421875
-0.0062255859375
-0.47174072265625
0.0018310546875
0.0
0.00146484375
0.071441650390625
-0.0098876953125
0.005126953125
-0.0025634765625
-0.071441650390625
0.0120849609375
-0.005126953125
0.0054931640625
0.0
-0.0029296875
0.0252685546875
-0.0003662109375
0.0
-0.028564453125
-0.0252685546875
0.0435791015625
0.0
0.044677734375
0.0
-0.0380859375
0.0
-0.01025390625
0.0
-0.0076904296875
0.0
-0.0186767578125
0.0
-0.0223388671875
0.0
-0.019775390625
0.0
-0.01318359375
0.0
-0.00146484375
0.0
0.0062255859375
0.0
0.00439453125
0.0
0.0003662109375
0.0
-0.0087890625
0.0
-0.0054931640625
0.0
-0.0069580078125
0.0
-0.015380859375
0.0
0.002197265625
0.0
0.005126953125
0.0
-0.0032958984375
0.0
-0.0025634765625
0.0
-0.02490234375
0.0
0.0106201171875
0.0
0.060791015625
0.0
0.00732421875
0.0
-0.02197265625
0.0
-0.0029296875
0.0
-0.005859375
0.0
0.0010986328125
0.0
0.0032958984375
0.0
0.0047607421875
0.0
0.0098876953125
0.0
0.012451171875
0.0
0.010986328125
0.0
-0.0029296875
0.0
-0.005859375
0.0
-0.0025634765625
0.0
-0.0076904296875
0.0
-0.0157470703125
0.0
-0.005859375
0.0
0.0040283203125
0.0
0.0054931640625
0.0
0.006591796875
0.0
0.00146484375
0.0
-0.0296630859375
0.0
0.0443115234375
0.0
0.041748046875
0.0
-0.0472412109375
0.0
-0.0106201171875
0.0
0.0029296875
0.0
-0.0029296875
0.0
-0.0087890625
0.0
-0.0087890625
0.0
0.0
0.0
0.0106201171875
0.0
0.01318359375
0.0
0.003662109375
0.0
0.008056640625
0.0
0.01318359375
0.0
0.002197265625
0.0
0.0047607421875
0.0
0.0032958984375
0.0
0.0025634765625
0.0
0.0120849609375
0.0
0.009521484375
0.0029296875
0.0029296875
0.048370361328125
-0.0128173828125
0.077667236328125
-0.012451171875
0.26513671875
0.0472412109375
0.01318359375
0.0205078125
-0.2384033203125
-0.0318603515625
-0.052734375
-0.00146484375
-0.045806884765625
0.0010986328125
-0.041046142578125
-0.0054931640625
-0.029296875
-0.0142822265625
0.0
-0.0146484375
0.0
-0.0040283203125
0.0
0.00439453125
0.0
0.0069580078125
0.0
0.0003662109375
0.0
-0.0025634765625
0.01611328125
-0.0029296875
0.0025634765625
-0.0150146484375
0.00146484375
-0.021240234375
0.034820556640625
-0.005859375
0.064849853515625
0.022705078125
0.0582275390625
0.02197265625
-0.082427978515625
0.0084228515625
-0.095611572265625
0.01171875
0.0
-0.0325927734375
0.0
0.027099609375
0.228912353515625
0.05712890625
0.0
-0.027099609375
-0.228912353515625
-0.022705078125
0.0
-0.000732421875
0.0
-0.000732421875
0.0
-0.005126953125
0.0
-0.0098876953125
0.0
-0.0025634765625
0.0
0.0098876953125
0.0
0.0062255859375
0.0
0.0040283203125
0.0
0.0047607421875
0.0
0.000732421875
0.0
-0.0029296875
0.0
-0.0025634765625
0.0
-0.0098876953125
0.0
0.0025634765625
0.0
0.01318359375
0.0
0.0
0.0
-0.00146484375
0.0
-0.0179443359375
0.0
0.0010986328125
0.134796142578125
0.0509033203125
0.119415283203125
0.01318359375
0.0809326171875
-0.010986328125
0.169921875
0.0040283203125
0.387847900390625
0.0098876953125
0.829559326171875
-0.01025390625
0.8929443359375
-0.0142822265625
0.37762451171875
0.009521484375
0.0
-0.0120849609375
0.0
-0.005859375
0.0
0.003662109375
0.0
0.006591796875
0.0
0.0128173828125
0.0
0.034423828125
0.0
0.095977783203125
0.0
0.054595947265625
0.0
-0.061187744140625
0.0
-0.089385986328125
0.0
-0.0567626953125
0.0
-0.0281982421875
0.0
-0.0157470703125
0.0
-0.01318359375
0.0
-0.012451171875
0.0
-0.008056640625
0.0
0.008056640625
0.0
0.035888671875
0.0
0.0362548828125
0.0
0.0146484375
0.0
0.00439453125
0.0
0.00146484375
0.0
-0.0032958984375
0.0
0.000732421875
0.0
0.005126953125
0.0
-0.0018310546875
0.0
0.000732421875
0.0
0.0010986328125
0.0
-0.003662109375
0.0
-0.0010986328125
0.0
-0.005126953125
0.0
-0.0010986328125
0.0
0.01025390625
0.0
0.0010986328125
0.0
-0.0106201171875
0.0
-0.01025390625
0.0
-0.028564453125
0.0
0.0347900390625
0.0
0.0289306640625
0.0
-0.030029296875
0.0
-0.0040283203125
0.0
-0.0069580078125
0.0
-0.005126953125
0.0
-0.0076904296875
0.0
-0.009521484375
0.0
-0.000732421875
0.0
0.0113525390625
0.0
0.0120849609375
0.0
0.0047607421875
0.0
-0.00439453125
0.0
-0.00439453125
0.0003662109375
-0.0069580078125
0.0
-0.01171875
-0.0003662109375
-0.006591796875
0.0
0.0084228515625
0.0
0.0150146484375
0.0
-0.002197265625
0.0
-0.0018310546875
0.0
-0.0234375
0.0
0.0018310546875
0.0
0.0465087890625
0.0
-0.009521484375
0.0
-0.0263671875
-0.00146484375
-0.0069580078125
-0.0069580078125
-0.0091552734375
0.00146484375
-0.0062255859375
0.0069580078125
-0.002197265625
0.0
-0.0025634765625
0.0
-0.000732421875
0.0
0.0062255859375
0.0
0.005126953125
0.0
0.0054931640625
0.0
-0.0069580078125
0.0
-0.005126953125
0.0
0.0054931640625
0.0
-0.0029296875
0.0003662109375
-0.00146484375
0.0
0.00439453125
-0.0003662109375
0.0069580078125
0.0
0.002197265625
0.0
-0.0010986328125
0.0
-0.0205078125
0.0
0.0025634765625
0.0
0.0487060546875
0.0
0.0
0.0
-0.0322265625
-0.0062255859375
-0.0076904296875
-0.0146484375
-0.0029296875
-0.0164794921875
-0.008056640625
-0.036651611328125
-0.0032958984375
-0.058258056640625
0.0003662109375
-0.05712890625
0.005859375
-0.032958984375
0.0091552734375
0.0113525390625
0.00439453125
0.0150146484375
0.0054931640625
-0.022705078125
0.0
-0.0377197265625
-0.0040283203125
-0.0318603515625
-0.002197265625
-0.0567626953125
-0.008056640625
-0.0380859375
-0.0032958984375
-0.00146484375
0.0091552734375
0.0032958984375
0.0098876953125
-0.013916015625
0.000732421875
-0.030029296875
-0.005126953125
-0.0208740234375
-0.0333251953125
-0.0062255859375
0.0230712890625
0.180908203125
0.04833984375
-0.082763671875
-0.0223388671875
-0.2669677734375
-0.0194091796875
-0.028961181640625
-0.00439453125
-0.042877197265625
-0.0003662109375
-0.0421142578125
-0.003662109375
-0.0406494140625
-0.013916015625
-0.0384521484375
-0.01025390625
-0.0399169921875
0.0069580078125
-0.0128173828125
0.015380859375
0.0263671875
0.0029296875
0.0325927734375
-0.0029296875
0.0062255859375
0.00439453125
-0.0142822265625
0.0018310546875
-0.009521484375
-0.00146484375
-0.0391845703125
-0.0047607421875
-0.025634765625
-0.0076904296875
0.0113525390625
0.00732421875
0.0076904296875
0.0120849609375
0.0054931640625
0.0
-0.0076904296875
-0.0047607421875
-0.0194091796875
-0.038818359375
0.0340576171875
0.0325927734375
0.165557861328125
0.0516357421875
-0.1043701171875
-0.0281982421875
-0.224151611328125
-0.013916015625
-0.0106201171875
-0.01318359375
-0.0076904296875
-0.009521484375
-0.0098876953125
0.000732421875
-0.0234375
-0.0025634765625
-0.028564453125
-0.0062255859375
-0.0245361328125
0.0032958984375
0.01171875
0.016845703125
0.02783203125
0.008056640625
0.0003662109375
-0.002197265625
-0.0494384765625
-0.0010986328125
-0.065582275390625
-0.0025634765625
-0.041412353515625
0.0018310546875
-0.04833984375
-0.00732421875
-0.0384521484375
-0.01318359375
-0.016845703125
0.009521484375
-0.0208740234375
0.0087890625
-0.04833984375
-0.00146484375
-0.0816650390625
-0.00146484375
-0.066650390625
-0.0391845703125
0.0076904296875
0.052001953125
0.0926513671875
0.0362548828125
-0.087890625
-0.0611572265625
-0.17138671875
-0.01025390625
-0.050567626953125
0.000732421875
-0.043975830078125
0.0010986328125
-0.03515625
-0.0062255859375
-0.0325927734375
-0.0040283203125
-0.0377197265625
0.005126953125
-0.03955078125
0.010986328125
-0.0076904296875
0.0054931640625
0.0120849609375
0.003662109375
-0.005126953125
-0.0032958984375
-0.0205078125
-0.00732421875
-0.01171875
-0.0084228515625
0.0025634765625
0.00146484375
-0.0201416015625
0.002197265625
-0.0172119140625
-0.0047607421875
0.0076904296875
0.0029296875
0.005859375
0.0032958984375
-0.01171875
0.0029296875
-0.008056640625
-0.00439453125
0.0018310546875
-0.0340576171875
0.1234130859375
0.047607421875
0.0802001953125
0.038818359375
-0.144287109375
-0.0391845703125
-0.1212158203125
-0.006591796875
-0.03662109375
-0.008056640625
-0.018310546875
-0.005859375
-0.0208740234375
-0.0040283203125
-0.0146484375
-0.0018310546875
-0.0322265625
0.008056640625
-0.0465087890625
0.009521484375
0.0098876953125
0.00439453125
0.041015625
0.005859375
0.01904296875
0.000732421875
-0.0084228515625
0.000732421875
-0.0091552734375
-0.0025634765625
0.0040283203125
-0.0040283203125
0.0128173828125
-0.002197265625
0.0245361328125
0.0087890625
0.0205078125
0.00732421875
0.0223388671875
-0.0025634765625
0.009521484375
0.0029296875
0.0
-0.0201416015625
0.0047607421875
-0.0025634765625
0.193389892578125
0.032958984375
0.0150146484375
-0.003662109375
-0.187530517578125
-0.0201416015625
0.000732421875
-0.0076904296875
0.0106201171875
-0.0003662109375
0.0029296875
0.0018310546875
-0.0091552734375
-0.008056640625
-0.013916015625
-0.01025390625
-0.01611328125
0.0018310546875
0.002197265625
0.012451171875
0.0380859375
0.0098876953125
0.037353515625
0.000732421875
0.02783203125
0.0
0.0186767578125
0.00732421875
0.0047607421875
0.00439453125
-0.01318359375
-0.0128173828125
0.02197265625
-0.0032958984375
0.0362548828125
0.0098876953125
0.0157470703125
0.0025634765625
0.0208740234375
0.0
0.017578125
-0.0025634765625
0.0208740234375
-0.0318603515625
0.070343017578125
0.035888671875
0.140655517578125
0.0435791015625
-0.077667236328125
-0.041748046875
-0.147247314453125
-0.017578125
0.00146484375
0.0
-0.008056640625
-0.00439453125
0.00146484375
-0.003662109375
-0.016845703125
-0.0084228515625
-0.0201416015625
-0.0040283203125
-0.003662109375
0.0106201171875
0.0384521484375
0.008056640625
0.078399658203125
0.0084228515625
0.063751220703125
0.0128173828125
0.0322265625
0.0
0.0399169921875
-0.0120849609375
0.07177734375
-0.0087890625
0.0552978515625
-0.0010986328125
0.052734375
0.0054931640625
0.0662841796875
0.00732421875
0.0435791015625
-0.0029296875
0.0150146484375
-0.00732421875
0.0120849609375
-0.0025634765625
0.009521484375
-0.0380859375
0.186431884765625
0.0274658203125
0.038818359375
0.03515625
-0.213897705078125
-0.03076171875
-0.082763671875
-0.01025390625
-0.024169921875
-0.01171875
0.0010986328125
-0.0076904296875
0.0040283203125
-0.00732421875
-0.0223388671875
-0.008056640625
-0.032958984375
-0.008056640625
-0.0091552734375
0.0069580078125
0.0406494140625
0.0179443359375
0.0509033203125
0.0062255859375
0.0413818359375
0.0
0.03369140625
-0.0054931640625
0.03662109375
-0.0054931640625
0.0465087890625
-0.0054931640625
0.046173095703125
-0.008056640625
0.066314697265625
0.006591796875
0.05859375
0.0113525390625
0.043212890625
0.0010986328125
0.0260009765625
0.0062255859375
0.0018310546875
-0.02197265625
0.0091552734375
0.0062255859375
0.242462158203125
0.052001953125
-0.0205078125
-0.0084228515625
-0.257110595703125
-0.0263671875
-0.0150146484375
-0.003662109375
-0.025634765625
0.000732421875
-0.0267333984375
-0.00439453125
-0.0289306640625
-0.00732421875
-0.048004150390625
-0.0010986328125
-0.045440673828125
0.008056640625
-0.0106201171875
0.006591796875
0.033355712890625
0.0025634765625
0.032623291015625
0.0076904296875
-0.0047607421875
0.003662109375
-0.0157470703125
0.005126953125
-0.016510009765625
-0.0025634765625
-0.023468017578125
-0.010986328125
-0.01025390625
0.00732421875
0.0106201171875
0.0098876953125
0.0040283203125
-0.002197265625
-0.0098876953125
0.0
-0.0238037109375
0.005126953125
-0.0289306640625
-0.0362548828125
0.177642822265625
0.0318603515625
0.0128173828125
0.0439453125
-0.243927001953125
-0.0311279296875
-0.0823974609375
-0.006591796875
-0.0208740234375
-0.0054931640625
-0.021240234375
-0.0029296875
-0.0230712890625
-0.0029296875
-0.0311279296875
-0.0076904296875
-0.030029296875
-0.0003662109375
-0.01318359375
0.0120849609375
0.016845703125
0.0087890625
0.04541015625
0.005126953125
0.019775390625
0.000732421875
0.0018310546875
-0.0025634765625
-0.006591796875
0.0018310546875
-0.03076171875
-0.0069580078125
-0.00732421875
-0.006591796875
0.02197265625
0.0062255859375
0.012451171875
0.0010986328125
0.0047607421875
0.000732421875
-0.0025634765625
0.003662109375
-0.0106201171875
-0.030029296875
0.0318603515625
0.027099609375
0.211334228515625
0.0494384765625
-0.0684814453125
-0.027099609375
-0.238067626953125
-0.0201416015625
-0.006591796875
-0.0047607421875
-0.0146484375
-0.00439453125
-0.0172119140625
-0.0025634765625
-0.0281982421875
-0.0047607421875
-0.037353515625
-0.0018310546875
-0.025634765625
0.005859375
0.010986328125
0.01171875
0.03955078125
0.0076904296875
0.0340576171875
-0.0010986328125
0.012451171875
-0.0010986328125
0.0018310546875
-0.0029296875
-0.015380859375
-0.0054931640625
-0.0157470703125
-0.0047607421875
0.0054931640625
0.005859375
0.031494140625
0.010986328125
0.02783203125
0.0032958984375
0.0032958984375
-0.00439453125
0.0076904296875
-0.01318359375
0.0076904296875
-0.029296875
0.228546142578125
0.03955078125
-0.0025634765625
0.035888671875
-0.248687744140625
-0.032958984375
-0.024169921875
-0.01025390625
-0.0120849609375
-0.005126953125
-0.012451171875
-0.003662109375
-0.0186767578125
-0.00146484375
-0.031494140625
-0.0040283203125
-0.0391845703125
-0.00146484375
-0.01171875
0.0069580078125
0.03515625
0.01025390625
0.050537109375
0.0029296875
0.0238037109375
0.0003662109375
-0.0003662109375
0.008056640625
-0.00732421875
-0.000732421875
-0.022705078125
-0.0113525390625
-0.00732421875
-0.00732421875
0.01904296875
0.0062255859375
0.022705078125
0.0106201171875
0.0120849609375
0.0
0.002197265625
-0.0029296875
0.005126953125
-0.03662109375
0.06005859375
0.028564453125
0.199615478515625
0.0545654296875
-0.095947265625
-0.0267333984375
-0.230010986328125
-0.025634765625
0.003662109375
-0.0047607421875
-0.008056640625
0.00146484375
-0.01025390625
-0.0069580078125
-0.0164794921875
-0.005859375
-0.03076171875
0.0010986328125
-0.0245361328125
0.0040283203125
0.0205078125
0.005859375
0.04833984375
0.0084228515625
0.0355224609375
0.003662109375
0.009521484375
0.005126953125
-0.0018310546875
-0.0029296875
-0.0003662109375
-0.0087890625
-0.0054931640625
-0.0047607421875
0.0084228515625
0.00439453125
0.031494140625
0.0120849609375
0.0267333984375
0.0018310546875
0.0091552734375
0.00146484375
0.002197265625
-0.0062255859375
-0.00146484375
-0.0355224609375
0.227081298828125
0.0355224609375
-0.0003662109375
0.034423828125
-0.254913330078125
-0.029296875
-0.02490234375
-0.006591796875
0.000732421875
-0.0087890625
0.006591796875
-0.000732421875
-0.015380859375
-0.0018310546875
-0.0296630859375
-0.0084228515625
-0.0230712890625
0.0003662109375
-0.0120849609375
0.01318359375
0.0333251953125
0.01025390625
0.0531005859375
0.003662109375
0.02783203125
0.000732421875
0.0032958984375
-0.005126953125
0.0076904296875
0.0010986328125
-0.0164794921875
-0.0098876953125
-0.0172119140625
-0.010986328125
0.0238037109375
0.009521484375
0.0216064453125
0.00732421875
0.0098876953125
0.0
0.0018310546875
0.00146484375
-0.00146484375
-0.030029296875
0.009521484375
0.015380859375
0.220855712890625
0.04833984375
-0.0567626953125
-0.02197265625
-0.263336181640625
-0.0223388671875
-0.0069580078125
-0.0003662109375
-0.024169921875
-0.005859375
-0.01611328125
-0.0135498046875
-0.013916015625
-0.00732421875
-0.025634765625
0.002197265625
-0.025634765625
0.00732421875
0.00732421875
0.0135498046875
0.038818359375
0.0040283203125
0.0333251953125
-0.0040283203125
0.0091552734375
0.0010986328125
-0.01171875
0.0010986328125
-0.0069580078125
-0.006591796875
-0.0142822265625
-0.01171875
0.000732421875
0.0076904296875
0.02490234375
0.017578125
0.019775390625
0.002197265625
0.01025390625
0.000732421875
-0.002197265625
-0.00146484375
0.00146484375
-0.0380859375
0.1593017578125
0.0457763671875
0.04833984375
0.0435791015625
-0.18896484375
-0.041015625
-0.0831298828125
-0.00732421875
-0.0076904296875
0.0
-0.0120849609375
-0.0040283203125
-0.0146484375
-0.009521484375
-0.032257080078125
-0.005859375
-0.040679931640625
0.005126953125
-0.0322265625
0.0172119140625
0.0062255859375
0.01025390625
0.039947509765625
0.0029296875
0.022735595703125
0.0040283203125
0.00146484375
0.0018310546875
0.0
-0.0003662109375
-0.009185791015625
-0.003662109375
-0.0084228515625
-0.00146484375
0.019439697265625
0.0113525390625
0.021240234375
0.0084228515625
0.0098876953125
0.00439453125
-0.000732421875
0.005859375
-0.0098876953125
-0.02490234375
-0.0029296875
0.016845703125
0.2010498046875
0.050537109375
-0.023834228515625
-0.0098876953125
-0.222686767578125
-0.016845703125
-0.0003662109375
-0.000732421875
-0.003662109375
-0.0040283203125
-0.0047607421875
-0.002197265625
-0.01171875
0.0025634765625
-0.03076171875
0.0040283203125
-0.029296875
0.006591796875
0.00732421875
0.0135498046875
0.043212890625
0.013916015625
0.035919189453125
0.01171875
0.008087158203125
0.0245361328125
-0.019439697265625
0.0296630859375
-0.026031494140625
0.0120849609375
-0.0245361328125
-0.0029296875
-0.0047607421875
-0.003662109375
0.034423828125
0.002197265625
0.038116455078125
0.002197265625
0.021270751953125
0.0010986328125
0.0032958984375
-0.00146484375
0.0025634765625
-0.03515625
0.09521484375
0.0208740234375
0.1717529296875
0.031494140625
-0.1094970703125
-0.0318603515625
-0.196319580078125
-0.0091552734375
-0.001495361328125
-0.000732421875
0.000732421875
-0.00146484375
-0.008056640625
-0.0106201171875
-0.01611328125
-0.0150146484375
-0.0216064453125
-0.0128173828125
-0.0084228515625
-0.0128173828125
0.0234375
-0.0029296875
0.050567626953125
-0.00146484375
0.034820556640625
-0.0054931640625
0.00732421875
-0.0032958984375
-0.005126953125
-0.00732421875
0.0150146484375
-0.0128173828125
0.009521484375
-0.010986328125
0.0
-0.0040283203125
0.0267333984375
-0.00146484375
0.031494140625
-0.002197265625
0.0281982421875
0.000732421875
0.010986328125
-0.0010986328125
0.0029296875
-0.035888671875
0.1644287109375
0.0362548828125
0.0787353515625
0.0369873046875
-0.1827392578125
-0.043212890625
-0.1029052734375
-0.01318359375
-0.0018310546875
-0.006591796875
-0.0069580078125
-0.008056640625
-0.006591796875
-0.0186767578125
-0.0069580078125
-0.017578125
-0.015380859375
-0.006591796875
-0.005859375
0.0047607421875
0.01904296875
0.003662109375
0.03515625
-0.0076904296875
0.0186767578125
-0.0025634765625
-0.0062255859375
-0.00439453125
-0.005859375
-0.00732421875
0.0069580078125
-0.0098876953125
0.005126953125
-0.0113525390625
0.0205078125
0.0040283203125
0.0465087890625
0.0084228515625
0.034423828125
0.003662109375
0.0157470703125
-0.00146484375
0.009521484375
-0.0120849609375
0.005859375
-0.0263671875
0.240264892578125
0.0380859375
0.00439453125
0.0260009765625
-0.255645751953125
-0.0318603515625
-0.0201416015625
-0.0018310546875
0.006591796875
0.002197265625
-0.0029296875
-0.0062255859375
-0.0040283203125
-0.013916015625
-0.01611328125
-0.0047607421875
-0.028564453125
0.0047607421875
-0.0032958984375
0.0120849609375
0.0325927734375
0.0128173828125
0.041748046875
0.000732421875
0.021240234375
0.0
0.0113525390625
0.0054931640625
0.00732421875
-0.0029296875
-0.00146484375
-0.0091552734375
0.0018310546875
0.0
0.016845703125
0.0113525390625
0.0289306640625
0.0087890625
0.0238037109375
0.002197265625
0.0113525390625
0.0
0.010986328125
-0.0216064453125
0.0179443359375
0.0069580078125
0.250518798828125
0.0443115234375
-0.0201416015625
-0.00439453125
-0.261138916015625
-0.0216064453125
-0.003662109375
-0.00439453125
-0.012451171875
-0.000732421875
-0.0179443359375
-0.0003662109375
-0.0179443359375
-0.009521484375
-0.0267333984375
0.0
-0.0208740234375
0.0091552734375
0.0032958984375
0.0091552734375
0.0333251953125
0.003662109375
0.0322265625
-0.0018310546875
0.00439453125
0.003662109375
-0.012451171875
-0.002197265625
-0.0142822265625
-0.010986328125
-0.037353515625
-0.01171875
-0.046142578125
0.002197265625
-0.002197265625
0.0164794921875
0.0076904296875
0.0142822265625
-0.0062255859375
0.010986328125
-0.0084228515625
0.01171875
-0.005859375
-0.02783203125
0.0640869140625
0.0377197265625
0.160430908203125
0.0618896484375
-0.114990234375
-0.0230712890625
-0.213165283203125
-0.0106201171875
-0.0076904296875
0.006591796875
-0.018310546875
0.0003662109375
-0.019775390625
-0.0054931640625
-0.02783203125
-0.0054931640625
-0.0479736328125
-0.0029296875
-0.039215087890625
0.00439453125
-0.005889892578125
0.01318359375
0.018707275390625
0.0091552734375
-0.01025390625
0.0
-0.056793212890625
0.0062255859375
-0.08056640625
0.000732421875
-0.1025390625
-0.0106201171875
-0.099609375
-0.00732421875
-0.0556640625
0.005126953125
0.017578125
0.0069580078125
0.0135498046875
-0.000732421875
-0.0260009765625
-0.00439453125
-0.0618896484375
-0.0223388671875
-0.093780517578125
-0.0194091796875
0.211669921875
0.031494140625
0.083526611328125
0.0106201171875
-0.1658935546875
-0.0208740234375
-0.0010986328125
-0.0091552734375
0.0146484375
-0.01611328125
0.024169921875
-0.0062255859375
0.0135498046875
0.0029296875
0.0047607421875
-0.005859375
0.0146484375
-0.0010986328125
0.0516357421875
0.013916015625
0.07470703125
0.0113525390625
0.0787353515625
0.00732421875
0.05419921875
0.0010986328125
0.066680908203125
-0.0032958984375
0.100372314453125
-0.0062255859375
0.0750732421875
-0.00732421875
0.0487060546875
-0.0010986328125
0.0556640625
0.010986328125
0.05859375
0.0040283203125
0.029296875
-0.005126953125
0.008056640625
0.0
-0.003662109375
-0.0267333984375
0.031494140625
0.02490234375
0.204376220703125
0.0465087890625
-0.0648193359375
-0.0234375
-0.227813720703125
-0.0238037109375
0.00146484375
-0.000732421875
0.01904296875
0.002197265625
0.01904296875
-0.0128173828125
0.005126953125
-0.0142822265625
-0.0172119140625
-0.0010986328125
-0.025634765625
0.0062255859375
0.019775390625
0.008056640625
0.0487060546875
0.0084228515625
0.0296630859375
-0.000732421875
-0.003662109375
-0.0003662109375
-0.0047607421875
-0.0003662109375
-0.0025634765625
-0.0062255859375
-0.0296630859375
-0.0087890625
-0.0311279296875
-0.0010986328125
0.002197265625
0.0091552734375
0.0054931640625
-0.0003662109375
-0.018310546875
-0.006591796875
-0.01611328125
-0.00439453125
-0.0150146484375
-0.0369873046875
0.199981689453125
0.031494140625
0.0318603515625
0.0399169921875
-0.220855712890625
-0.0333251953125
-0.0421142578125
-0.008056640625
-0.005859375
0.0010986328125
-0.0003662109375
-0.0040283203125
0.0047607421875
-0.010986328125
-0.0003662109375
-0.009521484375
-0.022705078125
-0.0062255859375
-0.02197265625
0.0032958984375
0.012451171875
0.0069580078125
0.0234375
0.003662109375
0.0106201171875
-0.00732421875
-0.0069580078125
-0.01171875
-0.0084228515625
-0.0062255859375
-0.024169921875
-0.008056640625
-0.017578125
-0.0084228515625
0.015380859375
0.000732421875
0.037353515625
0.0084228515625
0.030029296875
0.00439453125
0.0128173828125
0.000732421875
0.0274658203125
-0.0260009765625
0.032958984375
0.0098876953125
0.241363525390625
0.0509033203125
-0.0347900390625
-0.005126953125
-0.250885009765625
-0.01904296875
0.008056640625
-0.002197265625
-0.0076904296875
-0.0029296875
-0.016845703125
0.0
-0.027099609375
-0.002197265625
-0.0325927734375
-0.00146484375
-0.035888671875
0.002197265625
0.0003662109375
0.0062255859375
0.0377197265625
0.0150146484375
0.0245361328125
0.00732421875
-0.0062255859375
-0.0040283203125
-0.0186767578125
0.002197265625
-0.0032958984375
0.000732421875
-0.0098876953125
-0.003662109375
0.009521484375
0.005859375
0.0362548828125
0.0150146484375
0.0384521484375
0.0098876953125
0.0252685546875
0.00439453125
-0.0029296875
0.0047607421875
-0.0146484375
-0.0347900390625
0.157867431640625
0.04541015625
0.0311279296875
0.046875
-0.214263916015625
-0.0421142578125
-0.0963134765625
-0.0047607421875
-0.06884765625
-0.0040283203125
-0.086456298828125
-0.0040283203125
-0.089385986328125
0.0010986328125
-0.0985107421875
-0.003662109375
-0.1043701171875
-0.0025634765625
-0.10400390625
0.01171875
-0.06884765625
0.0142822265625
-0.035888671875
0.0087890625
-0.013916015625
0.0069580078125
-0.0150146484375
-0.0010986328125
-0.0186767578125
-0.005859375
-0.035919189453125
-0.006591796875
-0.042877197265625
0.0054931640625
-0.0142822265625
0.005859375
-0.0626220703125
-0.0029296875
-0.12451171875
-0.000732421875
-0.185302734375
0.0003662109375
-0.174346923828125
-0.0384521484375
-0.054229736328125
0.0406494140625
0.0
0.041748046875
0.0
-0.046142578125
0.0
-0.006591796875
0.0
0.0
0.0
-0.0029296875
0.0
-0.0047607421875
0.0
-0.0018310546875
0.0
0.0010986328125
0.0
0.0091552734375
0.0
0.012451171875
0.0
0.0054931640625
0.0
0.0062255859375
0.0
-0.0003662109375
0.0
-0.00439453125
0.0
-0.0208740234375
0.0
-0.0106201171875
0.0
0.018310546875
0.0
0.0084228515625
0.0
-0.000732421875
0.0
-0.00439453125
0.0
-0.037353515625
0.0
0.03369140625
0.155670166015625
0.0552978515625
0.0
-0.02783203125
-0.136993408203125
-0.0172119140625
0.046905517578125
-0.000732421875
-0.0098876953125
-0.00439453125
-0.046905517578125
-0.0076904296875
-0.0087890625
-0.0040283203125
0.0
0.0010986328125
0.0
0.0010986328125
0.0
0.0018310546875
0.0
0.010986328125
0.0
0.0010986328125
0.0
0.0018310546875
0.0
0.0120849609375
0.0
-0.003662109375
0.0
-0.00732421875
0.0
0.0098876953125
0.0
0.01025390625
0.0
0.0010986328125
0.0
-0.0025634765625
0.0
-0.043212890625
0.0
0.0245361328125
0.0
0.0487060546875
0.0
-0.0325927734375
0.0
-0.017578125
0.0
-0.00146484375
0.0
-0.00732421875
0.0
-0.01025390625
0.0
-0.008056640625
0.0
-0.00146484375
0.0
0.01025390625
0.0
0.0106201171875
0.0
0.01025390625
0.0
0.0084228515625
0.0
0.002197265625
0.0
-0.0040283203125
0.0
-0.005859375
0.0
0.0087890625
0.0
0.01318359375
0.0
0.0062255859375
0.0
-0.000732421875
0.0
-0.002197265625
0.0
-0.0377197265625
0.0
0.04248046875
0.0
0.040283203125
0.0
-0.0498046875
0.0
-0.010986328125
0.0
-0.0084228515625
0.0
-0.008056640625
0.0
-0.01318359375
0.0
-0.012451171875
0.0
0.00146484375
0.0
0.006591796875
0.0
0.0069580078125
0.0
0.000732421875
0.0
-0.0087890625
0.0
-0.0054931640625
0.0
-0.00146484375
0.0
-0.009521484375
0.065582275390625
-0.00439453125
0.41168212890625
0.00439453125
0.54718017578125
0.00146484375
0.247589111328125
-0.000732421875
0.2391357421875
-0.0029296875
0.303985595703125
-0.0369873046875
0.41314697265625
0.0439453125
0.308746337890625
0.0399169921875
-0.155303955078125
-0.0465087890625
-0.52960205078125
-0.0084228515625
-0.469879150390625
0.0
0.101806640625
-0.000732421875
0.1153564453125
-0.0069580078125
-0.0941162109375
-0.0084228515625
-0.0296630859375
0.000732421875
-0.0201416015625
0.0128173828125
0.0142822265625
0.01171875
0.1336669921875
0.0076904296875
0.293731689453125
0.006591796875
0.226348876953125
0.00146484375
0.0787353515625
-0.000732421875
-0.03662109375
-0.0029296875
-0.0377197265625
0.005859375
0.005126953125
0.0113525390625
-0.0692138671875
0.008056640625
-0.1607666015625
0.0106201171875
-0.229644775390625
0.0091552734375
-0.184600830078125
-0.03369140625
0.01171875
0.0428466796875
-0.087890625
0.0479736328125
-0.302154541015625
-0.0347900390625
-0.172149658203125
-0.0010986328125
-0.1171875
-0.00146484375
-0.160064697265625
-0.008056640625
-0.132965087890625
-0.013916015625
-0.1695556640625
-0.01611328125
-0.15234375
-0.00439453125
-0.0823974609375
0.00439453125
-0.006591796875
0.000732421875
0.0186767578125
0.00146484375
-0.0234375
-0.003662109375
-0.0128173828125
-0.0091552734375
-0.033355712890625
-0.0069580078125
0.019775390625
-0.015380859375
0.060821533203125
-0.0076904296875
0.060791015625
0.0003662109375
0.0252685546875
-0.009521484375
-0.0010986328125
-0.0062255859375
0.030029296875
-0.0135498046875
0.0611572265625
-0.0164794921875
0.314971923828125
0.0391845703125
0.1219482421875
0.0106201171875
-0.031494140625
-0.03515625
0.189361572265625
-0.0040283203125
0.264434814453125
-0.0069580078125
0.333648681640625
-0.00439453125
0.258575439453125
-0.027099609375
0.325958251953125
-0.0362548828125
0.55487060546875
0.00439453125
0.33807373046875
0.0157470703125
-0.0003662109375
0.000732421875
0.0
0.0
0.0
0.00732421875
0.0
0.0
0.0
-0.024169921875
0.0
-0.024169921875
0.0
-0.0087890625
0.0
-0.0281982421875
0.0
-0.065185546875
0.0
-0.089019775390625
0.0
-0.089385986328125
0.0
-0.03515625
0.0
0.035888671875
0.0
-0.0029296875
0.0
-0.03515625
0.0
-0.002197265625
0.0
0.01171875
0.0
0.0054931640625
0.0
0.003662109375
0.0
0.01611328125
0.0
0.0311279296875
0.0
0.028594970703125
0.0
0.018707275390625
0.0
0.025634765625
0.0
0.0179443359375
0.0
0.0098876953125
0.0
0.0157470703125
0.0
0.0120849609375
0.0
0.010986328125
0.0
0.0201416015625
0.0
0.0201416015625
0.0
0.01318359375
0.0
-0.0029296875
0.0
0.00439453125
0.0
0.047607421875
0.0
0.0146484375
0.0
-0.0296630859375
0.0
0.005126953125
0.0
0.01025390625
0.0
-0.003662109375
0.0
-0.003662109375
0.0
-0.0029296875
0.0
0.01171875
0.0
0.018310546875
0.0
0.0076904296875
0.0
0.0003662109375
0.0
0.0025634765625
0.0
-0.0010986328125
0.0
0.0018310546875
0.0
-0.002197265625
0.0
0.0025634765625
0.0
0.0157470703125
0.0
0.0010986328125
0.0
0.00146484375
0.0
-0.0201416015625
0.0
0.0120849609375
0.0
0.046875
0.0
-0.009521484375
0.0
-0.02197265625
-0.01611328125
-0.00146484375
-0.107330322265625
0.003662109375
-0.205841064453125
0.00732421875
-0.277252197265625
-0.005126953125
-0.275421142578125
-0.0098876953125
-0.156005859375
0.00732421875
-0.0322265625
0.0201416015625
0.0069580078125
0.0120849609375
-0.071044921875
0.005126953125
-0.098907470703125
0.008056640625
0.0780029296875
0.003662109375
0.138092041015625
0.0047607421875
0.0234375
0.0032958984375
0.0205078125
-0.0003662109375
0.0234375
0.00732421875
-0.012451171875
0.0047607421875
-0.0377197265625
0.00146484375
-0.0311279296875
-0.0084228515625
-0.0120849609375
-0.0223388671875
0.222320556640625
0.0479736328125
-0.0040283203125
0.0234375
-0.259307861328125
-0.03515625
-0.0340576171875
-0.0025634765625
-0.0384521484375
0.002197265625
-0.041412353515625
0.0018310546875
-0.033355712890625
-0.0069580078125
-0.043212890625
-0.005126953125
-0.031494140625
0.0029296875
-0.0120849609375
0.01171875
0.027099609375
0.006591796875
0.0369873046875
0.0054931640625
0.010986328125
0.0025634765625
-0.0069580078125
-0.0032958984375
-0.0062255859375
0.002197265625
-0.0186767578125
-0.006591796875
-0.0186767578125
-0.0003662109375
0.0164794921875
0.005859375
-0.0003662109375
-0.0029296875
-0.022705078125
-0.003662109375
-0.029296875
-0.0018310546875
-0.0362548828125
-0.030029296875
0.172149658203125
0.0289306640625
-0.0384521484375
0.0274658203125
-0.306549072265625
-0.0369873046875
-0.1527099609375
-0.0040283203125
-0.126739501953125
-0.0040283203125
-0.142852783203125
-0.0010986328125
-0.179443359375
-0.00732421875
-0.189727783203125
-0.0128173828125
-0.217193603515625
-0.0040283203125
-0.255645751953125
0.0069580078125
-0.164459228515625
0.01025390625
-0.025634765625
0.0010986328125
0.0
0.0047607421875
0.0
0.0
0.0
-0.0054931640625
0.0
-0.0135498046875
0.0
-0.0040283203125
0.0
0.009521484375
0.0
-0.0076904296875
0.0
-0.006591796875
0.0
-0.0047607421875
0.0
-0.040283203125
0.0
0.0260009765625
0.0
0.0333251953125
0.0
-0.0260009765625
0.0
-0.006591796875
0.0
-0.0084228515625
0.0
-0.0029296875
0.0
-0.003662109375
0.0
-0.005126953125
0.0
0.00439453125
0.0
0.0120849609375
0.0
0.0062255859375
0.0
0.005859375
0.0
0.0062255859375
0.0
0.00146484375
0.0
0.0
0.0
0.0040283203125
0.0
0.0084228515625
0.0
0.0120849609375
0.0
0.0032958984375
0.0
-0.0003662109375
0.0
0.0010986328125
0.005859375
-0.0333251953125
0.294830322265625
0.0384521484375
0.170318603515625
0.043212890625
-0.0794677734375
-0.027099609375
0.0933837890625
-0.0040283203125
0.08349609375
-0.0062255859375
0.060821533203125
-0.0025634765625
0.042510986328125
-0.005126953125
0.022705078125
-0.005859375
0.04833984375
0.0
0.0516357421875
0.01025390625
0.068115234375
0.0054931640625
0.088623046875
-0.000732421875
0.0604248046875
0.0032958984375
0.0322265625
0.0029296875
0.0172119140625
0.0032958984375
0.0040283203125
-0.0146484375
0.0157470703125
-0.003662109375
0.0684814453125
0.006591796875
0.074371337890625
-0.003662109375
0.055328369140625
-0.000732421875
0.0347900390625
-0.0032958984375
0.0087890625
-0.040283203125
0.199951171875
0.0325927734375
-0.02197265625
0.0472412109375
-0.319000244140625
-0.03076171875
-0.147247314453125
-0.0113525390625
-0.0391845703125
-0.0025634765625
-0.0435791015625
0.0040283203125
-0.1505126953125
-0.00146484375
-0.168121337890625
-0.012451171875
-0.127471923828125
-0.0069580078125
-0.1358642578125
0.0091552734375
-0.13330078125
0.01025390625
-0.1087646484375
0.0029296875
-0.072174072265625
0.000732421875
0.01611328125
0.0025634765625
0.053131103515625
0.0003662109375
0.0322265625
-0.0047607421875
0.0311279296875
0.0003662109375
-0.000732421875
0.0084228515625
-0.01611328125
0.002197265625
0.0347900390625
-0.0029296875
0.06005859375
-0.005126953125
0.0128173828125
-0.04541015625
0.1373291015625
0.031494140625
0.0391845703125
0.037353515625
-0.1622314453125
-0.0384521484375
-0.040283203125
-0.0069580078125
0.016845703125
-0.0032958984375
0.0040283203125
-0.0098876953125
-0.031494140625
-0.01171875
-0.0205078125
-0.00439453125
0.0010986328125
0.0
0.009521484375
0.0069580078125
0.0556640625
0.003662109375
-0.0106201171875
0.005859375
-0.0977783203125
0.01171875
-0.0428466796875
-0.0032958984375
0.0999755859375
-0.0062255859375
0.142822265625
-0.00439453125
0.194854736328125
-0.0003662109375
0.295562744140625
0.015380859375
0.254180908203125
0.005859375
0.216094970703125
-0.00146484375
0.2200927734375
0.0069580078125
0.247222900390625
-0.03076171875
0.38568115234375
0.034423828125
0.256378173828125
0.0435791015625
-0.062286376953125
-0.0325927734375
-0.0479736328125
-0.0076904296875
0.029693603515625
0.00146484375
0.01025390625
-0.0040283203125
0.00439453125
-0.01318359375
-0.023101806640625
-0.0113525390625
-0.030059814453125
-0.0018310546875
-0.0150146484375
0.0040283203125
0.022735595703125
0.005859375
0.046905517578125
0.0047607421875
0.022705078125
0.0029296875
0.009521484375
0.0025634765625
0.0146484375
-0.0032958984375
0.03955078125
-0.008056640625
0.049072265625
-0.0025634765625
0.0626220703125
0.0029296875
0.066650390625
0.00146484375
0.0318603515625
0.006591796875
-0.0010986328125
-0.0010986328125
-0.0142822265625
-0.0399169921875
0.09228515625
0.03369140625
0.158966064453125
0.0487060546875
-0.1065673828125
-0.031494140625
-0.188262939453125
-0.0146484375
-0.0413818359375
-0.005126953125
-0.049072265625
-0.009521484375
-0.062255859375
-0.01025390625
-0.0567626953125
-0.01171875
-0.055328369140625
-0.0087890625
-0.043609619140625
0.000732421875
-0.016845703125
0.0087890625
0.02197265625
0.0091552734375
0.0157470703125
0.008056640625
-0.0179443359375
0.0010986328125
-0.0146484375
-0.008056640625
-0.0501708984375
-0.0098876953125
-0.0699462890625
-0.00439453125
-0.0831298828125
0.0
-0.10986328125
0.0003662109375
-0.08056640625
0.006591796875
-0.0355224609375
0.0040283203125
-0.0260009765625
-0.03076171875
-0.006591796875
0.0355224609375
0.1571044921875
0.05712890625
-0.116485595703125
-0.0201416015625
-0.275421142578125
-0.0146484375
-0.0670166015625
-0.003662109375
-0.1124267578125
0.000732421875
-0.156036376953125
-0.006591796875
-0.124176025390625
-0.015380859375
-0.073974609375
-0.009521484375
-0.107666015625
0.0003662109375
-0.0670166015625
0.01025390625
0.0263671875
-0.0003662109375
0.0703125
-0.0113525390625
0.0380859375
-0.0062255859375
0.0040283203125
-0.0062255859375
-0.0355224609375
-0.00732421875
-0.0626220703125
-0.008056640625
0.0025634765625
-0.0062255859375
0.057861328125
-0.0091552734375
0.04833984375
-0.0150146484375
0.02783203125
-0.0179443359375
0.0439453125
-0.0501708984375
0.087554931640625
0.0281982421875
0.147979736328125
0.046142578125
-0.160430908203125
-0.031494140625
-0.344268798828125
-0.00439453125
-0.123779296875
0.0018310546875
-0.0509033203125
0.000732421875
-0.010986328125
0.0047607421875
-0.017242431640625
0.005859375
-0.031158447265625
0.0106201171875
-0.0205078125
0.017578125
0.0018310546875
0.019775390625
0.037750244140625
0.0164794921875
0.025665283203125
0.022705078125
0.0062255859375
0.0172119140625
0.0260009765625
0.0069580078125
0.060791015625
0.005126953125
0.0948486328125
0.0069580078125
0.13330078125
0.015380859375
0.148681640625
0.0146484375
0.120880126953125
0.01318359375
0.080230712890625
-0.00146484375
0.0809326171875
-0.0347900390625
0.111328125
0.0106201171875
0.340240478515625
0.0443115234375
0.0992431640625
-0.015380859375
-0.1607666015625
-0.02490234375
0.021636962890625
-0.00439453125
0.0311279296875
-0.0087890625
0.0714111328125
-0.0084228515625
0.1201171875
-0.005859375
0.1446533203125
-0.0069580078125
0.144683837890625
0.0010986328125
0.147247314453125
0.0054931640625
0.1351318359375
0.002197265625
0.0985107421875
0.0003662109375
0.0732421875
0.0062255859375
0.0611572265625
0.00146484375
0.031494140625
-0.0084228515625
0.0216064453125
-0.00732421875
0.002197265625
0.0029296875
-0.0223388671875
0.0054931640625
-0.0479736328125
0.00146484375
-0.0732421875
0.0003662109375
-0.0780029296875
-0.0260009765625
-0.1036376953125
-0.0003662109375
0.1168212890625
0.0465087890625
-0.123809814453125
-0.0029296875
-0.353057861328125
-0.0340576171875
-0.138427734375
-0.002197265625
-0.17724609375
0.009521484375
-0.147613525390625
-0.0062255859375
-0.100738525390625
-0.016845703125
-0.0926513671875
-0.008056640625
-0.1087646484375
0.00439453125
-0.0853271484375
0.012451171875
-0.03515625
0.01025390625
-0.0186767578125
-0.00146484375
-0.028564453125
-0.0029296875
-0.03662109375
0.0025634765625
-0.042144775390625
-0.00732421875
-0.017608642578125
-0.0047607421875
0.023834228515625
0.00732421875
0.018707275390625
0.0047607421875
0.0032958984375
-0.002197265625
-0.003662109375
0.0018310546875
0.0018310546875
-0.02783203125
0.01025390625
0.0150146484375
0.189697265625
0.05126953125
-0.042877197265625
-0.018310546875
-0.242462158203125
-0.0205078125
-0.018310546875
0.0003662109375
-0.0260009765625
-0.000732421875
-0.03369140625
0.0003662109375
-0.0384521484375
-0.002197265625
-0.044677734375
0.0040283203125
-0.0281982421875
0.010986328125
0.002197265625
0.016845703125
0.04248046875
0.015380859375
0.043212890625
0.0054931640625
0.03662109375
0.00732421875
0.053466796875
0.006591796875
0.061920166015625
0.0
0.093048095703125
0.0010986328125
0.1351318359375
0.0084228515625
0.1395263671875
0.0054931640625
0.0823974609375
0.0069580078125
0.0340576171875
0.002197265625
0.027099609375
-0.03076171875
0.0347900390625
0.00732421875
0.253814697265625
0.0443115234375
-0.0347900390625
-0.006591796875
-0.275054931640625
-0.02197265625
-0.022705078125
-0.0054931640625
-0.010986328125
-0.002197265625
-0.012451171875
-0.0029296875
-0.027099609375
-0.0098876953125
-0.0413818359375
-0.0087890625
-0.0406494140625
0.005859375
-0.006591796875
0.010986328125
0.0325927734375
0.009521484375
0.0421142578125
0.0025634765625
0.01025390625
-0.00146484375
0.0018310546875
0.000732421875
-0.0194091796875
-0.00146484375
-0.0113525390625
-0.0076904296875
0.0260009765625
0.0032958984375
0.019775390625
0.0113525390625
-0.0040283203125
-0.003662109375
-0.0413818359375
-0.0003662109375
-0.0472412109375
-0.0234375
-0.050537109375
-0.0032958984375
0.194854736328125
0.046875
-0.0545654296875
-0.0032958984375
-0.345367431640625
-0.02490234375
-0.136260986328125
-0.0040283203125
-0.140289306640625
-0.0087890625
-0.1424560546875
-0.00439453125
-0.145751953125
-0.0025634765625
-0.118316650390625
-0.0062255859375
-0.123443603515625
0.003662109375
-0.1094970703125
0.012451171875
-0.0750732421875
0.01025390625
-0.0703125
0.005126953125
-0.0662841796875
0.00146484375
-0.063385009765625
0.000732421875
-0.029693603515625
-0.005859375
-0.02490234375
-0.0010986328125
-0.0172119140625
0.017578125
-0.0076904296875
0.01025390625
-0.0120849609375
0.0
0.0
-0.000732421875
0.0
-0.0340576171875
0.0
-0.0018310546875
0.0
0.0435791015625
0.0
-0.0047607421875
0.0
-0.022705078125
0.0
-0.005126953125
0.0
-0.0029296875
0.0
0.003662109375
0.0
0.003662109375
0.0
0.0047607421875
0.0
0.01171875
0.0
0.0201416015625
0.0
0.01904296875
0.0
0.01025390625
0.0
0.00732421875
0.0
-0.002197265625
0.0
-0.0029296875
0.0
0.006591796875
0.0
0.0135498046875
0.0
0.0091552734375
0.0
0.0003662109375
0.0
-0.0018310546875
0.0
-0.03662109375
0.0
0.0018310546875
0.0
0.049072265625
0.0
-0.009521484375
0.0
-0.028564453125
0.0
-0.0025634765625
0.0
-0.0003662109375
0.0
-0.0186767578125
0.0
-0.0186767578125
0.0
-0.0018310546875
0.0
0.01025390625
0.0
0.0076904296875
0.0
0.0084228515625
0.0
0.0142822265625
0.0
0.0091552734375
0.0
0.0018310546875
0.0
-0.0146484375
0.0
-0.0263671875
0.0
-0.01025390625
0.0
0.009521484375
0.0
-0.00439453125
0.0
-0.0098876953125
0.0
-0.0146484375
0.070343017578125
0.0018310546875
0.900634765625
0.0531005859375
1.0
0.0128173828125
0.2742919921875
-0.030029296875
0.032958984375
-0.012451171875
-0.0875244140625
-0.0091552734375
-0.0303955078125
-0.013916015625
-0.0648193359375
-0.016845703125
-0.1142578125
-0.0186767578125
-0.1116943359375
-0.015380859375
-0.130035400390625
-0.0062255859375
-0.133697509765625
-0.0179443359375
-0.1021728515625
-0.0179443359375
-0.0552978515625
-0.0179443359375
-0.0267333984375
0.0
0.167724609375
0.005126953125
0.253082275390625
-0.0194091796875
-0.0494384765625
-0.000732421875
-0.179840087890625
0.022705078125
0.0025634765625
0.0322265625
0.272491455078125
0.0150146484375
0.177276611328125
-0.052734375
-0.210601806640625
-0.0516357421875
-0.0296630859375
0.046875
-0.099609375
0.025634765625
-0.273956298828125
-0.034423828125
-0.076171875
-0.0303955078125
-0.126739501953125
-0.0234375
-0.208770751953125
-0.017578125
-0.1966552734375
-0.016845703125
-0.120849609375
-0.0128173828125
-0.0648193359375
0.0091552734375
-0.00732421875
0.0516357421875
0.087890625
0.10693359375
0.1497802734375
0.154205322265625
0.15380859375
0.137725830078125
0.179840087890625
0.0421142578125
0.181304931640625
-0.0369873046875
0.2127685546875
0.0340576171875
0.146514892578125
0.0692138671875
-0.0245361328125
-0.032958984375
-0.154937744140625
-0.052001953125
-0.14794921875
-0.002197265625
-0.1087646484375
-0.0289306640625
-0.046875
-0.060455322265625
0.2449951171875
-0.024200439453125
0.012451171875
-0.0523681640625
-0.1365966796875
-0.112060546875
0.10107421875
-0.0780029296875
0.0721435546875
-0.0135498046875
0.171051025390625
0.0303955078125
0.275787353515625
-0.006591796875
0.302886962890625
-0.0531005859375
0.183135986328125
0.0
0.0494384765625
0.131103515625
-0.0076904296875
0.112060546875
-0.0296630859375
-0.0164794921875
-0.073974609375
-0.015380859375
-0.150909423828125
0.0120849609375
-0.010986328125
-0.0889892578125
0.214263916015625
-0.1204833984375
0.316070556640625
-0.038818359375
0.168121337890625
-0.0413818359375
-0.0003662109375
-0.0208740234375
0.0
0.0135498046875
0.0
-0.017578125
-0.0003662109375
-0.0157470703125
0.0
0.1219482421875
0.0003662109375
0.1270751953125
0.0
-0.0245361328125
-0.0003662109375
-0.0128173828125
-0.087188720703125
0.00439453125
-0.079132080078125
-0.0150146484375
-0.0615234375
-0.0201416015625
-0.0882568359375
-0.04833984375
0.069580078125
-0.0618896484375
0.1007080078125
-0.062255859375
0.066314697265625
-0.0325927734375
0.056060791015625
-0.003662109375
0.002197265625
0.0091552734375
-0.046905517578125
0.0611572265625
-0.100006103515625
0.0809326171875
-0.122314453125
0.008056640625
-0.1820068359375
-0.019775390625
-0.176544189453125
0.0128173828125
-0.128936767578125
-0.0029296875
-0.101806640625
-0.03369140625
-0.0369873046875
-0.04541015625
0.0032958984375
-0.0875244140625
0.223419189453125
0.0062255859375
0.111328125
0.021240234375
-0.176910400390625
-0.0545654296875
-0.0970458984375
0.0032958984375
-0.0615234375
0.0362548828125
-0.0963134765625
0.02783203125
-0.145050048828125
0.02197265625
-0.238433837890625
0.017578125
-0.277984619140625
0.0179443359375
-0.180938720703125
0.028564453125
-0.060791015625
0.017578125
-0.0003662109375
0.003662109375
-0.0439453125
-0.0040283203125
-0.0791015625
-0.0047607421875
-0.1021728515625
0.0069580078125
-0.0970458984375
0.0084228515625
-0.06005859375
0.005859375
-0.072906494140625
0.0040283203125
-0.080963134765625
-0.01025390625
-0.12890625
-0.017578125
-0.214599609375
-0.0318603515625
-0.161529541015625
-0.0596923828125
-0.037384033203125
0.0523681640625
0.0
0.0648193359375
0.0
-0.029296875
0.0
-0.0040283203125
0.0
0.0054931640625
0.0
-0.00732421875
0.0
-0.0135498046875
0.0
-0.00439453125
0.0
0.0032958984375
0.0
0.0135498046875
0.0
0.01025390625
0.0
0.0010986328125
0.0
-0.0054931640625
0.0
-0.0018310546875
0.0
0.00439453125
0.0
-0.000732421875
0.0
-0.00439453125
0.0
0.0025634765625
0.0
0.0047607421875
0.0
0.006591796875
0.153839111328125
0.006591796875
0.641693115234375
-0.029296875
0.65264892578125
0.0029296875
0.531768798828125
0.05126953125
0.207305908203125
-0.0054931640625
-0.1343994140625
-0.03369140625
-0.0992431640625
-0.01025390625
-0.0498046875
0.00439453125
0.207275390625
0.005859375
-0.296295166015625
-0.0157470703125
-0.337677001953125
-0.0201416015625
0.10400390625
0.00439453125
0.0274658203125
0.0113525390625
-0.0205078125
0.000732421875
0.034423828125
0.0
0.0684814453125
0.00146484375
0.00439453125
-0.0084228515625
-0.009521484375
-0.0164794921875
0.005859375
-0.0142822265625
0.113922119140625
-0.002197265625
0.040313720703125
-0.0003662109375
-0.125274658203125
-0.005126953125
0.0941162109375
-0.0084228515625
0.353790283203125
-0.0098876953125
0.197418212890625
-0.0413818359375
0.210235595703125
0.024169921875
-0.077667236328125
0.0377197265625
-0.788909912109375
-0.025634765625
-1.0
0.0
-0.59918212890625
0.0025634765625
0.1805419921875
0.00439453125
0.56805419921875
0.0010986328125
0.33587646484375
-0.0040283203125
0.0040283203125
0.00146484375
-0.095611572265625
0.015380859375
-0.04833984375
0.0135498046875
0.005859375
0.0076904296875
0.0172119140625
0.005859375
0.029296875
-0.0003662109375
0.0509033203125
-0.0018310546875
0.084991455078125
-0.0032958984375
0.084625244140625
0.005859375
0.1212158203125
0.0054931640625
0.114990234375
0.0
0.0904541015625
-0.00146484375
0.0780029296875
0.0025634765625
0.082794189453125
-0.0322265625
0.274322509765625
0.041015625
0.1527099609375
0.046875
-0.0926513671875
-0.0333251953125
-0.0333251953125
0.0025634765625
-0.0069580078125
-0.00439453125
-0.031494140625
-0.0106201171875
-0.015380859375
-0.0069580078125
0.03076171875
-0.0113525390625
0.035888671875
0.0018310546875
0.01611328125
0.018310546875
0.0208740234375
0.008056640625
0.0662841796875
-0.0010986328125
0.0604248046875
-0.00439453125
0.057525634765625
-0.0032958984375
0.066314697265625
-0.0047607421875
0.08642578125
-0.0113525390625
0.1072998046875
-0.0076904296875
0.0911865234375
0.000732421875
0.1036376953125
0.002197265625
0.119781494140625
-0.0018310546875
0.073272705078125
-0.0025634765625
0.01318359375
-0.03515625
0.0
0.0142822265625
0.0
0.0498046875
0.0
-0.0084228515625
0.0
-0.0120849609375
-0.0062255859375
-0.002197265625
0.0003662109375
0.00146484375
0.0062255859375
-0.0032958984375
-0.0003662109375
-0.0032958984375
0.0
0.000732421875
-0.033721923828125
0.005859375
-0.103302001953125
0.01171875
-0.0816650390625
0.012451171875
-0.0146484375
0.0091552734375
-0.041748046875
0.005859375
-0.072509765625
0.0047607421875
-0.1021728515625
-0.00439453125
-0.073974609375
-0.0018310546875
-0.0146484375
0.00732421875
0.0076904296875
0.0062255859375
-0.005126953125
0.0003662109375
-0.064483642578125
-0.0025634765625
-0.064117431640625
-0.0150146484375
-0.0677490234375
-0.00146484375
0.176177978515625
0.046875
-0.06005859375
0.0128173828125
-0.297393798828125
-0.0267333984375
-0.0443115234375
-0.0010986328125
-0.0509033203125
-0.000732421875
-0.0347900390625
-0.0047607421875
-0.047607421875
-0.0032958984375
-0.0413818359375
-0.0029296875
-0.0377197265625
0.0098876953125
-0.0230712890625
0.01171875
0.016845703125
0.0087890625
0.025634765625
0.0062255859375
0.01318359375
0.0018310546875
-0.018310546875
0.003662109375
-0.0289306640625
-0.0010986328125
-0.046905517578125
-0.003662109375
-0.026397705078125
0.0032958984375
0.003662109375
0.01025390625
0.0040283203125
0.00146484375
-0.013916015625
-0.0054931640625
-0.0289306640625
0.0
-0.0234375
-0.0377197265625
0.189361572265625
0.0362548828125
0.0047607421875
0.0457763671875
-0.250518798828125
-0.0340576171875
-0.0498046875
-0.008056640625
-0.021240234375
-0.0010986328125
-0.0230712890625
-0.000732421875
-0.01318359375
-0.0098876953125
-0.047607421875
-0.0047607421875
-0.06005859375
0.0025634765625
-0.0479736328125
0.0087890625
0.0003662109375
0.0084228515625
0.01171875
0.0018310546875
-0.0047607421875
0.0003662109375
0.0010986328125
0.000732421875
-0.010986328125
-0.0047607421875
-0.0025634765625
-0.005126953125
0.005126953125
0.00732421875
0.0377197265625
0.0003662109375
0.052734375
-0.0029296875
0.0380859375
-0.00146484375
0.01171875
-0.005859375
0.00146484375
-0.0450439453125
0.213165283203125
0.0303955078125
0.06005859375
0.0465087890625
-0.160430908203125
-0.0325927734375
-0.0274658203125
-0.005126953125
-0.008056640625
-0.0069580078125
-0.0098876953125
-0.0098876953125
0.0029296875
-0.003662109375
0.005126953125
-0.005859375
-0.0003662109375
0.002197265625
0.02197265625
0.012451171875
0.041015625
0.008056640625
0.06298828125
0.0047607421875
0.0347900390625
0.0032958984375
0.016845703125
-0.0029296875
0.00732421875
-0.006591796875
-0.0194091796875
-0.0054931640625
-0.0087890625
0.000732421875
0.0069580078125
0.0062255859375
0.028228759765625
0.00146484375
0.0062255859375
0.000732421875
-0.009185791015625
-0.000732421875
0.0
-0.0340576171875
0.043609619140625
0.018310546875
0.212066650390625
0.0501708984375
-0.074737548828125
-0.0157470703125
-0.240631103515625
-0.0205078125
-0.0194091796875
-0.0029296875
-0.01318359375
0.0
-0.017578125
-0.006591796875
-0.0260009765625
-0.01318359375
-0.0384521484375
-0.00439453125
-0.050537109375
0.00732421875
-0.01318359375
0.0069580078125
0.031494140625
0.0098876953125
0.0377197265625
0.0029296875
-0.0003662109375
-0.0029296875
-0.00146484375
0.0
-0.016845703125
-0.0010986328125
-0.01904296875
-0.00439453125
0.0113525390625
0.0
0.021240234375
0.0106201171875
0.01611328125
0.0010986328125
-0.0146484375
-0.0047607421875
-0.0172119140625
-0.009521484375
-0.021240234375
-0.0281982421875
0.214996337890625
0.0384521484375
-0.00146484375
0.027099609375
-0.242462158203125
-0.029296875
-0.03955078125
-0.002197265625
-0.073974609375
-0.00439453125
-0.081298828125
-0.005859375
-0.090850830078125
-0.006591796875
-0.102935791015625
-0.0054931640625
-0.13037109375
0.0032958984375
-0.11572265625
0.01318359375
-0.0655517578125
0.0003662109375
-0.0479736328125
0.0
-0.0487060546875
0.0084228515625
-0.077301025390625
0.00439453125
-0.056793212890625
-0.0040283203125
-0.0377197265625
-0.00732421875
-0.0135498046875
0.0003662109375
0.022705078125
0.005859375
0.0296630859375
0.0032958984375
0.009521484375
-0.0010986328125
-0.017578125
0.0
-0.005859375
-0.0399169921875
0.132965087890625
0.041748046875
0.091949462890625
0.04541015625
-0.142852783203125
-0.044677734375
-0.097076416015625
-0.005859375
-0.005126953125
-0.003662109375
0.0
-0.005126953125
0.00732421875
-0.005126953125
-0.003662109375
-0.005859375
0.0120849609375
0.0003662109375
0.0062255859375
0.009521484375
0.039215087890625
0.0135498046875
0.061187744140625
0.006591796875
0.05126953125
0.002197265625
0.0428466796875
-0.0025634765625
0.03076171875
-0.0032958984375
0.049072265625
-0.0054931640625
0.0399169921875
-0.0025634765625
0.063720703125
0.0047607421875
0.08056640625
0.008056640625
0.0853271484375
0.0018310546875
0.093414306640625
-0.0047607421875
0.067047119140625
-0.019775390625
0.032958984375
-0.0150146484375
0.241363525390625
0.0450439453125
0.050537109375
0.013916015625
-0.145416259765625
-0.027099609375
0.029296875
-0.00439453125
-0.07470703125
-0.00732421875
-0.064453125
-0.0076904296875
0.0025634765625
-0.006591796875
-0.00439453125
-0.0003662109375
-0.0018310546875
0.003662109375
0.0164794921875
0.0113525390625
0.068115234375
0.0113525390625
0.0743408203125
0.003662109375
0.027099609375
0.0018310546875
0.00146484375
0.005126953125
-0.01025390625
0.0025634765625
-0.024169921875
-0.009521484375
-0.0333251953125
-0.0032958984375
0.0047607421875
0.0084228515625
0.0146484375
0.002197265625
0.0032958984375
0.0
-0.0245361328125
-0.0029296875
-0.0172119140625
-0.043212890625
0.1468505859375
0.0347900390625
0.14208984375
0.0531005859375
-0.134765625
-0.0380859375
-0.18017578125
-0.0146484375
-0.063720703125
0.0010986328125
-0.038818359375
-0.005859375
-0.009521484375
-0.0120849609375
-0.0318603515625
-0.0087890625
-0.061553955078125
0.005859375
-0.043975830078125
0.0091552734375
-0.005126953125
0.0054931640625
0.049468994140625
0.01318359375
0.014312744140625
0.01025390625
-0.0157470703125
-0.0025634765625
-0.001495361328125
-0.0018310546875
-0.017608642578125
-0.005126953125
-0.0208740234375
-0.0084228515625
0.0
0.0047607421875
0.038116455078125
0.008056640625
0.025299072265625
-0.000732421875
-0.026397705078125
-0.0047607421875
-0.072174072265625
-0.0274658203125
-0.02783203125
0.0010986328125
0.235504150390625
0.0487060546875
0.017578125
-0.000732421875
-0.195220947265625
-0.029296875
0.01171875
-0.0025634765625
0.048004150390625
-0.0032958984375
0.052764892578125
-0.0029296875
0.0260009765625
-0.0047607421875
0.0
-0.00732421875
0.003662109375
0.005126953125
0.05859375
0.009521484375
0.112060546875
0.005126953125
0.117919921875
0.0018310546875
0.04248046875
0.0054931640625
-0.0003662109375
0.002197265625
0.0087890625
0.0003662109375
0.0142822265625
-0.0062255859375
0.0325927734375
-0.002197265625
0.054229736328125
0.008056640625
0.054229736328125
0.0029296875
0.0377197265625
0.002197265625
0.078369140625
0.0040283203125
0.0845947265625
-0.03369140625
0.205474853515625
0.0311279296875
0.0802001953125
0.046875
-0.172515869140625
-0.0281982421875
-0.0340576171875
-0.0113525390625
0.05712890625
-0.0029296875
0.0516357421875
-0.005126953125
0.041748046875
-0.0029296875
0.01171875
-0.0010986328125
-0.0157470703125
0.0018310546875
0.0010986328125
0.008056640625
0.032958984375
0.006591796875
0.031494140625
0.009521484375
0.012451171875
-0.000732421875
-0.008056640625
-0.00439453125
0.002197265625
-0.000732421875
-0.038818359375
-0.005126953125
-0.0758056640625
-0.005126953125
-0.0545654296875
0.008056640625
-0.04248046875
0.005859375
-0.0560302734375
-0.005859375
-0.0955810546875
0.0029296875
-0.126739501953125
-0.010986328125
-0.136993408203125
-0.0245361328125
0.213165283203125
0.0406494140625
0.07470703125
0.019775390625
-0.250152587890625
-0.0355224609375
-0.1512451171875
-0.008056640625
-0.2288818359375
0.002197265625
-0.1131591796875
0.0003662109375
-0.060821533203125
-0.0106201171875
-0.092315673828125
-0.008056640625
-0.065185546875
0.0047607421875
-0.1102294921875
0.0146484375
-0.1025390625
0.0087890625
-0.0084228515625
0.0010986328125
0.01318359375
0.0025634765625
0.0201416015625
0.0018310546875
0.150146484375
-0.0010986328125
0.1768798828125
-0.0087890625
0.164459228515625
-0.0040283203125
0.090118408203125
0.0047607421875
-0.0054931640625
0.0054931640625
-0.066650390625
-0.0010986328125
-0.128936767578125
-0.00439453125
0.0150146484375
-0.0406494140625
0.210968017578125
0.029296875
0.407989501953125
0.0465087890625
0.251983642578125
-0.0369873046875
0.027099609375
-0.012451171875
0.005126953125
-0.0003662109375
-0.0234375
-0.0047607421875
-0.005859375
-0.0150146484375
-0.0208740234375
-0.0113525390625
0.0380859375
0.003662109375
0.08642578125
0.00439453125
0.121978759765625
0.0018310546875
0.129302978515625
0.0084228515625
0.0966796875
0.003662109375
0.0736083984375
-0.0040283203125
0.0933837890625
-0.003662109375
0.1124267578125
-0.0029296875
0.0673828125
-0.003662109375
0.057525634765625
-0.0047607421875
0.042510986328125
0.00439453125
0.00439453125
0.0091552734375
0.0
0.006591796875
0.0
-0.0025634765625
0.0
-0.0498046875
0.0
0.0311279296875
-0.0003662109375
0.046142578125
0.0
-0.031494140625
0.0003662109375
-0.0076904296875
-0.0047607421875
-0.0054931640625
0.0
-0.0040283203125
0.0047607421875
-0.0025634765625
-0.015380859375
-0.002197265625
-0.063385009765625
-0.0018310546875
-0.087921142578125
0.0087890625
-0.0263671875
0.005859375
0.010986328125
0.0032958984375
-0.005859375
0.00439453125
-0.034423828125
0.0025634765625
-0.046142578125
0.0
-0.046142578125
-0.0062255859375
-0.04248046875
-0.0010986328125
-0.0076904296875
0.0113525390625
-0.0018310546875
0.010986328125
-0.0076904296875
-0.0047607421875
-0.0260009765625
-0.0025634765625
-0.0362548828125
-0.0087890625
-0.038818359375
-0.0157470703125
0.18603515625
0.041015625
-0.0618896484375
0.0179443359375
-0.337310791015625
-0.0281982421875
-0.136993408203125
-0.0054931640625
-0.1541748046875
-0.000732421875
-0.1219482421875
-0.0047607421875
-0.105865478515625
-0.0087890625
-0.138824462890625
-0.006591796875
-0.163330078125
-0.0010986328125
-0.1446533203125
0.01171875
-0.07177734375
0.0091552734375
-0.042144775390625
0.00439453125
-0.045440673828125
0.005126953125
-0.0728759765625
0.00439453125
-0.0875244140625
-0.005126953125
-0.123046875
-0.0106201171875
-0.1409912109375
0.0047607421875
-0.106231689453125
0.0106201171875
-0.152374267578125
0.0040283203125
-0.240966796875
-0.0040283203125
-0.199249267578125
-0.000732421875
-0.056060791015625
-0.0377197265625
0.042877197265625
0.035888671875
0.149810791015625
0.0509033203125
-0.013580322265625
-0.0435791015625
-0.147979736328125
-0.013916015625
-0.029296875
-0.000732421875
-0.0018310546875
-0.0025634765625
0.0
-0.0069580078125
0.0
-0.0098876953125
0.0
0.0010986328125
0.0
0.0120849609375
0.0
0.005126953125
0.0
-0.002197265625
0.0
0.0003662109375
0.0
0.002197265625
0.0
0.0040283203125
0.058990478515625
-0.0084228515625
0.138092041015625
-0.009521484375
0.2252197265625
0.0098876953125
0.213531494140625
0.0084228515625
0.133331298828125
-0.0025634765625
0.1256103515625
-0.0010986328125
0.0732421875
0.0025634765625
0.0216064453125
-0.0413818359375
0.173248291015625
0.0318603515625
0.069580078125
0.046875
-0.170318603515625
-0.03515625
-0.07177734375
-0.0069580078125
-0.0087890625
-0.0032958984375
-0.01611328125
-0.0032958984375
-0.009521484375
-0.0062255859375
-0.03076171875
-0.0069580078125
-0.024169921875
0.0003662109375
-0.0179443359375
0.0047607421875
0.0098876953125
0.0054931640625
0.043212890625
0.0040283203125
0.017578125
0.0047607421875
0.0157470703125
0.0040283203125
0.031494140625
-0.00439453125
0.03076171875
-0.0029296875
-0.0113525390625
0.0003662109375
0.0
0.0029296875
0.0208740234375
0.0087890625
-0.015380859375
0.0003662109375
-0.1175537109375
-0.003662109375
-0.098876953125
-0.0003662109375
0.10400390625
-0.027099609375
0.353057861328125
0.03515625
-0.05859375
0.030029296875
-0.56256103515625
-0.034423828125
-0.280181884765625
-0.005126953125
0.0618896484375
-0.00146484375
0.157867431640625
-0.002197265625
-0.0604248046875
-0.009521484375
-0.286773681640625
-0.0087890625
-0.1358642578125
0.0010986328125
0.0791015625
0.01025390625
0.1146240234375
0.0047607421875
0.0230712890625
0.0029296875
-0.178009033203125
0.0029296875
-0.140655517578125
0.0029296875
0.0
0.0003662109375
0.0
-0.008056640625
0.0
-0.0010986328125
0.041778564453125
0.0091552734375
0.111358642578125
0.008056640625
0.22412109375
0.0032958984375
0.224151611328125
0.0018310546875
0.0098876953125
-0.029296875
-0.166656494140625
0.000732421875
0.075836181640625
0.0498046875
0.019775390625
-0.0025634765625
-0.221954345703125
-0.022705078125
-0.182037353515625
-0.01025390625
-0.129669189453125
-0.0069580078125
-0.006591796875
-0.00146484375
0.0
-0.0091552734375
0.0
-0.0032958984375
0.0
0.005126953125
0.0
0.0084228515625
0.0
0.005859375
0.0
0.0069580078125
0.0
0.0018310546875
0.0
-0.0032958984375
0.0
0.0003662109375
0.0
-0.01025390625
0.0
-0.0003662109375
0.0
0.0054931640625
0.0
-0.0069580078125
0.0
-0.0098876953125
0.0
-0.006591796875
0.657073974609375
-0.0428466796875
0.9024658203125
0.029296875
0.267730712890625
0.0421142578125
0.2523193359375
-0.0450439453125
0.390777587890625
-0.0186767578125
0.289337158203125
-0.0003662109375
0.0703125
-0.005126953125
-0.167724609375
-0.009521484375
0.110992431640625
-0.00439453125
0.220123291015625
-0.005126953125
-0.0003662109375
0.0032958984375
0.0
0.0135498046875
0.0
0.008056640625
0.0
0.0047607421875
0.0
0.002197265625
0.0
-0.0076904296875
0.0
-0.002197265625
0.0
0.0025634765625
-0.094879150390625
0.0029296875
-0.696624755859375
0.003662109375
-0.54095458984375
0.0029296875
0.44317626953125
0.0
0.634735107421875
-0.0029296875
0.253448486328125
-0.03369140625
0.0010986328125
0.0340576171875
0.0
0.0439453125
-0.0032958984375
-0.0362548828125
-0.106964111328125
-0.01171875
-0.37249755859375
-0.0054931640625
-0.377960205078125
-0.00146484375
-0.55377197265625
0.002197265625
-0.57354736328125
-0.0087890625
0.059356689453125
-0.00146484375
0.261505126953125
0.0069580078125
0.1142578125
0.0084228515625
0.068115234375
0.0084228515625
-0.11279296875
0.00732421875
-0.283843994140625
0.00439453125
-0.147247314453125
-0.006591796875
0.0948486328125
-0.00146484375
0.132232666015625
0.000732421875
-0.0205078125
0.0084228515625
-0.124176025390625
0.010986328125
-0.15966796875
-0.0025634765625
-0.1669921875
0.0047607421875
-0.226348876953125
-0.01611328125
-0.30548095703125
0.00439453125
-0.172149658203125
0.0472412109375
-0.01611328125
-0.0047607421875
0.0
-0.019775390625
0.0
0.00439453125
0.0
-0.0157470703125
0.0
-0.018310546875
0.0
-0.01171875
0.0
-0.01171875
0.0
0.00732421875
0.0
0.01611328125
0.0
0.0
0.0
-0.00439453125
0.0
0.0029296875
0.0
0.0106201171875
0.0
-0.00146484375
0.0
-0.0194091796875
0.0
0.0047607421875
0.0
0.02197265625
0.0
0.00732421875
0.0
0.010986328125
0.0
0.0142822265625
0.0
-0.030029296875
0.0
0.03662109375
0.0
0.0399169921875
0.0
-0.0377197265625
0.0
-0.01025390625
0.0
-0.0084228515625
0.0
-0.0135498046875
0.0
-0.0120849609375
0.0
-0.002197265625
0.0
0.0069580078125
0.0
0.0098876953125
0.0
0.00732421875
0.0
0.0029296875
0.0
0.00439453125
0.0
0.010986328125
0.0
-0.0029296875
0.0
-0.015380859375
0.0
-0.00146484375
0.0
0.009521484375
0.0
0.00732421875
0.0
0.0018310546875
0.0
-0.01171875
0.0
-0.0267333984375
0.0
0.0172119140625
0.0
0.04248046875
0.0
-0.0032958984375
0.0
-0.0274658203125
0.0208740234375
-0.037353515625
0.57464599609375
-0.03076171875
0.44500732421875
-0.0194091796875
-0.57464599609375
-0.0032958984375
0.191192626953125
0.0087890625
1.0
0.0106201171875
0.839447021484375
0.005126953125
-0.42193603515625
-0.0322265625
0.0
-0.0556640625
0.42193603515625
-0.060791015625
0.0
-0.058990478515625
0.0
-0.047637939453125
0.0
-0.0347900390625
0.0
-0.0029296875
0.0
0.0054931640625
-0.0003662109375
0.0003662109375
0.0
0.009521484375
0.0
0.0032958984375
0.0
-0.0267333984375
0.0003662109375
0.048004150390625
0.0
0.046905517578125
0.0
-0.0164794921875
0.0
0.0142822265625
-0.0003662109375
0.0032958984375
0.0
0.005859375
0.0003662109375
0.0128173828125
0.0
0.0201416015625
0.0
0.01611328125
0.0
0.0098876953125
0.0
0.018310546875
0.0
0.013916015625
0.0
0.008056640625
0.0
0.013916015625
0.0
0.01025390625
0.0
0.0069580078125
0.0
0.0120849609375
0.0
0.0186767578125
0.0
0.0216064453125
0.0
0.0164794921875
0.0
0.0120849609375
0.0
-0.0223388671875
0.0
0.0435791015625
0.0
0.0435791015625
0.0
-0.0322265625
0.0
-0.0010986328125
0.0
0.005859375
0.0
0.000732421875
0.0
-0.01025390625
0.0
-0.0047607421875
0.0
0.0029296875
0.0
0.008056640625
0.0
0.00732421875
0.0
0.002197265625
0.0
0.0047607421875
0.0
-0.0029296875
0.0
-0.0087890625
0.0
-0.0091552734375
0.0
-0.0047607421875
0.0
0.009521484375
0.0
0.0047607421875
0.0
-0.000732421875
0.0
0.0054931640625
0.0
-0.0069580078125
0.0
-0.024169921875
0.0
0.032958984375
0.0
0.025634765625
0.0
-0.0260009765625
0.0
-0.0062255859375
-0.002197265625
0.0
0.0
-0.0032958984375
0.002197265625
-0.01025390625
0.0
-0.006591796875
0.0
0.005126953125
0.0
0.0113525390625
0.0
0.0054931640625
0.0
0.0032958984375
0.0
0.00439453125
0.0
0.0003662109375
0.0
-0.0025634765625
0.0
-0.00732421875
0.0
0.0
0.0
0.0054931640625
-0.0003662109375
-0.002197265625
0.0
0.000732421875
0.0003662109375
-0.0032958984375
0.0
-0.0377197265625
0.0
0.030029296875
0.0
0.0465087890625
-0.084991455078125
-0.0267333984375
-0.119415283203125
-0.017578125
-0.062255859375
0.0003662109375
-0.064453125
-0.002197265625
-0.0758056640625
-0.013916015625
-0.07763671875
-0.005859375
-0.0904541015625
-0.0047607421875
-0.072174072265625
0.00439453125
-0.019805908203125
0.01318359375
0.0091552734375
0.005859375
-0.0029296875
-0.000732421875
-0.0362548828125
-0.0018310546875
-0.037353515625
-0.005859375
-0.0487060546875
-0.0069580078125
-0.041015625
-0.0047607421875
-0.0142822265625
0.0047607421875
-0.0150146484375
0.0054931640625
-0.0172119140625
-0.0032958984375
-0.029296875
0.000732421875
-0.0274658203125
-0.0201416015625
-0.0260009765625
0.0054931640625
0.192657470703125
0.0465087890625
-0.03662109375
-0.006591796875
-0.266998291015625
-0.02490234375
-0.056396484375
-0.003662109375
-0.056396484375
-0.00732421875
-0.037017822265625
-0.0029296875
-0.043975830078125
0.003662109375
-0.06298828125
-0.0003662109375
-0.062255859375
0.00146484375
-0.013916015625
0.0084228515625
0.0355224609375
0.009521484375
0.041748046875
0.0062255859375
0.0260009765625
0.00439453125
0.0135498046875
0.003662109375
0.0362548828125
0.00146484375
0.036651611328125
-0.002197265625
0.058258056640625
0.000732421875
0.082763671875
0.010986328125
0.063720703125
0.0032958984375
0.041015625
-0.0029296875
0.0234375
0.0069580078125
0.0194091796875
-0.03076171875
0.132568359375
0.0234375
0.175811767578125
0.0413818359375
-0.139892578125
-0.030029296875
-0.187164306640625
-0.009521484375
-0.01171875
-0.0018310546875
-0.016845703125
-0.005126953125
-0.01904296875
-0.0040283203125
-0.041015625
-0.0018310546875
-0.0552978515625
-0.0025634765625
-0.052001953125
0.008056640625
-0.012451171875
0.0091552734375
0.01904296875
-0.002197265625
0.0120849609375
0.005126953125
-0.01611328125
0.006591796875
-0.02783203125
-0.0029296875
-0.037750244140625
-0.009521484375
-0.038848876953125
-0.00439453125
-0.0069580078125
0.005126953125
0.0029296875
0.005126953125
0.00439453125
-0.0003662109375
-0.0069580078125
-0.0025634765625
-0.008056640625
-0.0076904296875
-0.0010986328125
-0.0260009765625
0.251983642578125
0.0399169921875
-0.01318359375
0.0281982421875
-0.303253173828125
-0.03515625
-0.03955078125
-0.0084228515625
-0.0267333984375
-0.0018310546875
-0.0322265625
-0.000732421875
-0.0322265625
-0.00439453125
-0.03955078125
0.0
-0.03369140625
0.00732421875
-0.0087890625
0.0087890625
0.046142578125
0.009521484375
0.052001953125
0.0146484375
0.02197265625
0.0069580078125
0.01025390625
0.003662109375
0.0032958984375
0.0084228515625
-0.0135498046875
-0.003662109375
-0.013916015625
-0.009521484375
0.0194091796875
0.0040283203125
0.0234375
0.01025390625
0.0179443359375
0.0
0.0128173828125
-0.005126953125
0.0135498046875
-0.0347900390625
0.070709228515625
0.0205078125
0.216461181640625
0.046142578125
-0.080230712890625
-0.0216064453125
-0.237701416015625
-0.015380859375
0.0018310546875
-0.0062255859375
-0.005126953125
-0.0113525390625
-0.0135498046875
-0.01025390625
-0.038818359375
-0.003662109375
-0.0531005859375
0.0010986328125
-0.0281982421875
0.003662109375
0.0157470703125
0.0076904296875
0.0531005859375
0.00146484375
0.0340576171875
0.000732421875
0.000732421875
0.0003662109375
-0.00732421875
-0.006591796875
-0.0069580078125
-0.002197265625
-0.0142822265625
-0.01171875
0.0018310546875
-0.005859375
0.0252685546875
0.005859375
0.01171875
0.0032958984375
-0.0003662109375
-0.002197265625
-0.0032958984375
-0.0091552734375
0.0010986328125
-0.037353515625
0.223419189453125
0.03076171875
0.0230712890625
0.0369873046875
-0.243927001953125
-0.03369140625
-0.0538330078125
-0.0062255859375
-0.0238037109375
-0.0087890625
-0.03515625
-0.0098876953125
-0.0318603515625
-0.0029296875
-0.04248046875
0.0047607421875
-0.046142578125
0.0076904296875
-0.0234375
0.00146484375
0.0084228515625
0.0029296875
0.018310546875
0.00439453125
-0.006591796875
0.0
-0.01171875
0.002197265625
-0.0157470703125
0.0010986328125
-0.032958984375
-0.008056640625
-0.0230712890625
0.0029296875
0.005859375
0.012451171875
0.0208740234375
0.0010986328125
0.008056640625
-0.0010986328125
-0.0025634765625
0.0047607421875
-0.0186767578125
-0.03662109375
0.0472412109375
0.0322265625
0.1622314453125
0.052001953125
-0.106597900390625
-0.029296875
-0.212799072265625
-0.009521484375
-0.0076904296875
0.0029296875
0.0025634765625
0.00146484375
-0.00732421875
-0.002197265625
-0.012451171875
0.0
-0.0289306640625
0.00732421875
-0.0263671875
0.01025390625
0.0201416015625
0.009521484375
0.0487060546875
0.0069580078125
0.0289306640625
0.005126953125
0.0
0.005126953125
0.003692626953125
-0.0010986328125
-0.0054931640625
-0.003662109375
-0.020904541015625
-0.0047607421875
-0.0091552734375
0.005859375
0.024566650390625
0.0120849609375
0.028228759765625
0.002197265625
0.0032958984375
0.0040283203125
0.0029296875
0.002197265625
0.0047607421875
-0.035888671875
0.2384033203125
0.038818359375
0.031494140625
0.0498046875
-0.260040283203125
-0.02490234375
-0.070343017578125
-0.0040283203125
-0.021240234375
-0.00146484375
-0.0157470703125
-0.005859375
-0.0267333984375
-0.01171875
-0.0311279296875
-0.01025390625
-0.0380859375
-0.0018310546875
-0.0164794921875
0.0054931640625
0.02197265625
0.00439453125
0.0362548828125
0.0003662109375
0.024169921875
-0.0018310546875
0.003662109375
-0.0029296875
0.002197265625
-0.0084228515625
-0.0128173828125
-0.0091552734375
-0.000732421875
-0.0062255859375
0.022705078125
-0.0018310546875
0.021240234375
0.0
0.0029296875
-0.0054931640625
-0.012451171875
-0.0084228515625
-0.0040283203125
-0.0296630859375
-0.0084228515625
-0.0076904296875
0.225616455078125
0.04541015625
-0.0281982421875
0.00146484375
-0.268829345703125
-0.028564453125
-0.032958984375
-0.0076904296875
-0.0296630859375
-0.013916015625
-0.021240234375
-0.0113525390625
-0.0303955078125
-0.0040283203125
-0.0509033203125
-0.0025634765625
-0.075439453125
0.0029296875
-0.0355224609375
0.00146484375
0.024169921875
0.0003662109375
0.015380859375
0.0040283203125
-0.050537109375
0.0062255859375
-0.068115234375
0.0029296875
-0.0355224609375
-0.0025634765625
-0.026397705078125
-0.0010986328125
0.0003662109375
0.0076904296875
0.017608642578125
0.010986328125
0.0157470703125
0.00439453125
0.015380859375
0.0062255859375
0.01318359375
0.000732421875
0.019775390625
-0.0421142578125
0.2449951171875
0.0369873046875
0.0732421875
0.047607421875
-0.2113037109375
-0.025634765625
-0.0369873046875
-0.0018310546875
0.0091552734375
-0.006591796875
0.0113525390625
-0.0029296875
-0.0010986328125
-0.0084228515625
-0.0384521484375
-0.0084228515625
-0.0406494140625
0.0003662109375
-0.0120849609375
0.005126953125
0.044677734375
0.0025634765625
0.0618896484375
0.00146484375
0.037353515625
0.0084228515625
0.0150146484375
0.0069580078125
0.025634765625
-0.0010986328125
0.0322265625
-0.0062255859375
0.0216064453125
-0.005859375
0.044677734375
-0.0018310546875
0.050537109375
0.005126953125
0.0369873046875
0.005126953125
0.0157470703125
-0.0076904296875
0.017578125
-0.0369873046875
0.0234375
-0.0245361328125
0.287506103515625
0.0347900390625
0.0098876953125
-0.0032958984375
-0.280548095703125
-0.04833984375
0.002197265625
-0.0208740234375
-0.0062255859375
-0.01025390625
-0.0311279296875
-0.015380859375
-0.0399169921875
-0.016845703125
-0.046875
-0.0087890625
-0.0457763671875
-0.00439453125
-0.025634765625
-0.00146484375
0.0355224609375
0.0003662109375
0.052001953125
0.005126953125
0.0201416015625
0.0025634765625
-0.0054931640625
0.00146484375
0.0025634765625
0.0029296875
0.0098876953125
-0.005859375
0.027099609375
-0.00439453125
0.0531005859375
0.006591796875
0.040313720703125
0.0062255859375
0.034088134765625
0.002197265625
0.032958984375
0.002197265625
0.04833984375
-0.0311279296875
0.125244140625
0.0384521484375
0.1937255859375
0.0538330078125
-0.0904541015625
-0.0238037109375
-0.1768798828125
-0.0062255859375
0.0208740234375
-0.0040283203125
-0.00439453125
-0.0032958984375
-0.012451171875
-0.00439453125
-0.0289306640625
-0.000732421875
-0.049072265625
0.00146484375
-0.0355224609375
0.006591796875
0.003662109375
0.0216064453125
0.0457763671875
0.0179443359375
0.03515625
0.0062255859375
0.013916015625
0.0003662109375
-0.00732421875
0.005859375
-0.02197265625
-0.0003662109375
-0.0087890625
-0.0003662109375
0.0164794921875
0.0146484375
0.0098876953125
0.008056640625
-0.0098876953125
-0.0040283203125
-0.005126953125
0.0003662109375
-0.02197265625
-0.0146484375
-0.0347900390625
0.005126953125
0.2010498046875
0.04833984375
-0.0076904296875
0.009521484375
-0.23291015625
-0.0172119140625
-0.013916015625
-0.000732421875
-0.0018310546875
0.0010986328125
0.0029296875
-0.000732421875
-0.00146484375
-0.006591796875
-0.023101806640625
0.003662109375
-0.028228759765625
0.018310546875
-0.0025634765625
0.0128173828125
0.055328369140625
0.005126953125
0.076202392578125
0.002197265625
0.028564453125
0.00146484375
-0.0179443359375
-0.0003662109375
-0.0362548828125
-0.003662109375
-0.01904296875
-0.0106201171875
0.0106201171875
-0.000732421875
0.0399169921875
0.0106201171875
0.0018310546875
0.0029296875
-0.035888671875
-0.0010986328125
-0.025634765625
-0.000732421875
-0.029693603515625
-0.0406494140625
0.157470703125
0.031494140625
0.046905517578125
0.044677734375
-0.231842041015625
-0.03662109375
-0.126007080078125
-0.009521484375
-0.0245361328125
-0.0029296875
-0.031494140625
-0.003662109375
-0.0615234375
-0.0025634765625
-0.06298828125
-0.01171875
-0.054931640625
0.0010986328125
-0.0252685546875
0.0164794921875
0.00732421875
0.0113525390625
0.008056640625
-0.0010986328125
-0.015380859375
-0.0047607421875
-0.016845703125
0.003662109375
-0.0010986328125
-0.0062255859375
-0.0113525390625
-0.017578125
0.0113525390625
-0.00732421875
0.01025390625
0.0076904296875
-0.006591796875
0.0040283203125
-0.0047607421875
0.000732421875
-0.0267333984375
-0.0054931640625
-0.0538330078125
-0.03955078125
-0.084259033203125
0.0128173828125
0.1270751953125
0.0428466796875
-0.0908203125
-0.0186767578125
-0.290069580078125
-0.0201416015625
-0.0611572265625
-0.0087890625
-0.0556640625
-0.008056640625
-0.071044921875
-0.0047607421875
-0.0633544921875
-0.0040283203125
-0.0230712890625
0.000732421875
-0.048736572265625
0.0069580078125
-0.030059814453125
0.003662109375
0.0311279296875
0.005126953125
0.044708251953125
0.008056640625
0.024932861328125
0.0025634765625
0.046875
-0.005859375
0.090087890625
0.000732421875
0.0970458984375
0.005126953125
0.1171875
0.008056640625
0.08056640625
0.0047607421875
0.0234375
0.0003662109375
-0.0435791015625
0.0128173828125
-0.087890625
-0.0003662109375
-0.0263671875
-0.0391845703125
0.285308837890625
0.0391845703125
0.0494384765625
0.04248046875
-0.263702392578125
-0.029296875
-0.034423828125
-0.0032958984375
-0.00732421875
-0.002197265625
0.010986328125
0.0025634765625
-0.0531005859375
0.0010986328125
-0.234405517578125
-0.008056640625
-0.160430908203125
-0.0003662109375
0.0
0.01025390625
0.143218994140625
0.0003662109375
0.210968017578125
0.0010986328125
0.15380859375
0.0076904296875
0.08203125
0.0098876953125
-0.1171875
0.0596923828125
0.032989501953125
0.066650390625
0.362213134765625
-0.0040283203125
0.076904296875
-0.0823974609375
-0.199951171875
-0.0823974609375
-0.153106689453125
-0.027099609375
-0.186798095703125
-0.01025390625
-0.116455078125
-0.012451171875
-0.07177734375
-0.0150146484375
-0.08349609375
-0.0040283203125
-0.083526611328125
-0.0010986328125
-0.049835205078125
0.0201416015625
0.0
0.04541015625
0.0
0.0234375
0.0
-0.0010986328125
0.0
-0.00732421875
0.0
-0.005859375
0.0
0.005126953125
0.0
-0.0047607421875
0.0
-0.0128173828125
0.0
0.0
0.0
0.0018310546875
0.0
-0.00439453125
0.0
-0.00439453125
0.0
-0.006591796875
0.0
-0.00146484375
0.0
0.0069580078125
0.0
0.0
0.0
-0.0062255859375
0.0
-0.024169921875
0.0
0.00146484375
0.0
0.047607421875
0.0
0.003662109375
0.0
-0.025634765625
0.0
-0.012451171875
0.0
-0.0150146484375
0.0
-0.0047607421875
0.0
0.0003662109375
0.0
-0.0040283203125
0.0
0.003662109375
0.0
0.0087890625
0.0
0.0069580078125
0.0
0.0054931640625
0.0
0.010986328125
0.0
0.0128173828125
0.0
0.00439453125
0.0
-0.002197265625
0.0
0.0098876953125
0.143585205078125
0.0142822265625
0.35308837890625
0.005859375
0.380889892578125
0.0098876953125
0.339141845703125
0.0091552734375
0.319366455078125
-0.0303955078125
0.52996826171875
0.0384521484375
0.36663818359375
0.056396484375
0.0087890625
-0.0230712890625
0.010986328125
-0.0047607421875
-0.0303955078125
0.0018310546875
-0.049468994140625
0.00146484375
-0.074005126953125
-0.005126953125
-0.1102294921875
-0.0128173828125
-0.1651611328125
-0.000732421875
-0.1541748046875
0.0113525390625
-0.086822509765625
0.0054931640625
-0.025665283203125
0.0032958984375
-0.02783203125
0.0018310546875
-0.0574951171875
0.0003662109375
-0.0113525390625
-0.00146484375
0.005859375
-0.0054931640625
0.0479736328125
0.0
0.03955078125
0.006591796875
-0.05126953125
0.0010986328125
-0.088623046875
-0.0025634765625
-0.0736083984375
-0.0003662109375
-0.065185546875
-0.037353515625
-0.0992431640625
0.0106201171875
0.0648193359375
0.0439453125
-0.210235595703125
-0.0164794921875
-0.392608642578125
-0.0157470703125
-0.1241455078125
0.0029296875
-0.089385986328125
-0.0062255859375
-0.055328369140625
-0.015380859375
-0.1146240234375
-0.0029296875
-0.142822265625
0.0029296875
-0.094482421875
0.0076904296875
0.0673828125
0.009521484375
0.1973876953125
0.0084228515625
0.126739501953125
0.006591796875
0.015380859375
-0.0003662109375
0.07177734375
0.00146484375
0.155670166015625
-0.0025634765625
0.07177734375
-0.00439453125
0.021240234375
0.002197265625
0.0750732421875
0.002197265625
0.208770751953125
0.0029296875
0.220489501953125
0.0032958984375
0.104736328125
-0.040283203125
0.1131591796875
0.0164794921875
0.286041259765625
0.0479736328125
0.031158447265625
-0.0216064453125
-0.198516845703125
-0.019775390625
-0.036285400390625
-0.0084228515625
-0.044677734375
-0.0032958984375
-0.0377197265625
-0.01025390625
-0.027099609375
-0.0087890625
-0.0362548828125
-0.0018310546875
-0.0340576171875
0.0
-0.018310546875
0.0069580078125
0.0164794921875
0.00146484375
0.015380859375
-0.0054931640625
0.0010986328125
0.0018310546875
-0.0084228515625
-0.0054931640625
-0.0062255859375
-0.01171875
0.0369873046875
-0.0047607421875
0.066650390625
0.0
0.0552978515625
-0.0047607421875
0.0263671875
-0.00439453125
0.031524658203125
0.0010986328125
0.063018798828125
-0.0322265625
0.1644287109375
0.0135498046875
0.416778564453125
0.05859375
0.42559814453125
-0.0010986328125
0.137725830078125
-0.0146484375
0.0
-0.0047607421875
0.0
-0.005859375
0.0
-0.0040283203125
0.0
-0.01171875
0.0
-0.0047607421875
0.0
0.0062255859375
0.0
0.003662109375
0.0
0.0
0.0
-0.0003662109375
0.0
0.0032958984375
0.0
0.0
0.0
-0.0091552734375
0.0
-0.010986328125
0.0
0.0003662109375
0.0
0.000732421875
0.0
-0.0062255859375
0.0
-0.005126953125
0.0
-0.030029296875
0.0
0.0025634765625
0.0
0.0443115234375
0.0
-0.0087890625
0.0
-0.0245361328125
0.0
-0.002197265625
0.0
-0.003662109375
0.0
-0.012451171875
0.0
-0.0084228515625
0.0
-0.00439453125
0.0
-0.0018310546875
0.0
0.0098876953125
0.0
0.005859375
0.0
-0.0040283203125
0.0
0.0010986328125
0.0
-0.000732421875
0.0
-0.0025634765625
0.0
-0.005859375
0.0
-0.0025634765625
0.0
0.0069580078125
0.0
0.0029296875
0.0
-0.0018310546875
0.0
-0.034423828125
0.0
0.0128173828125
0.0
0.0501708984375
0.0
-0.0150146484375
0.0
-0.0205078125
0.0
-0.0029296875
-0.000732421875
-0.0003662109375
0.0
-0.0029296875
0.000732421875
-0.010986328125
0.0
-0.006591796875
0.0
0.00732421875
0.0
0.00732421875
-0.198516845703125
0.0018310546875
-0.9925537109375
-0.0029296875
-1.0
-0.006591796875
-0.50396728515625
-0.0054931640625
0.0
-0.00732421875
0.0
-0.0010986328125
0.0
0.00732421875
0.0
0.0087890625
0.0
0.002197265625
0.0
-0.008056640625
0.0
-0.0355224609375
0.0
0.012451171875
0.0
0.0509033203125
0.0
-0.0091552734375
0.0
-0.01611328125
0.0
-0.000732421875
0.0
-0.0032958984375
0.0
0.0003662109375
0.0
-0.0032958984375
0.0
-0.003662109375
0.0
0.008056640625
0.0
0.0098876953125
0.0
0.0076904296875
0.0
0.0106201171875
0.0
0.005859375
0.0
0.0003662109375
0.0
-0.0047607421875
0.0
-0.0032958984375
0.0
0.0062255859375
0.0
0.0087890625
0.0
0.0032958984375
0.0
0.00146484375
0.0
-0.02490234375
0.0
-0.00439453125
0.0
0.0567626953125
0.0
0.008056640625
0.0
-0.02783203125
0.0
-0.0010986328125
0.0
0.0040283203125
0.0
-0.002197265625
0.0
-0.0076904296875
0.0
0.0
0.0
0.0
0.0
0.00439453125
0.0
0.0062255859375
0.0
0.0025634765625
0.0
0.00146484375
0.0
-0.0040283203125
0.0
-0.00439453125
0.0
0.0010986328125
0.0
0.00439453125
0.0
0.00439453125
0.0
-0.005126953125
0.0
-0.00732421875
0.0
-0.0260009765625
0.0
-0.02490234375
0.0
0.0311279296875
0.0
0.0062255859375
0.0
-0.0322265625
0.0
-0.0194091796875
0.0
-0.018310546875
0.0
-0.0205078125
0.107696533203125
-0.0245361328125
0.230010986328125
-0.0146484375
0.223052978515625
-0.0018310546875
0.352325439453125
0.0018310546875
0.549713134765625
0.006591796875
0.44976806640625
0.005859375
0.192291259765625
0.00732421875
0.068115234375
0.0128173828125
0.0677490234375
0.00732421875
0.154571533203125
0.005859375
0.218658447265625
0.02197265625
0.1563720703125
0.0296630859375
0.050537109375
0.0194091796875
0.0032958984375
0.0201416015625
0.024169921875
-0.0062255859375
0.0238037109375
0.012451171875
0.062652587890625
0.0706787109375
0.057525634765625
0.03076171875
0.0
-0.0120849609375
-0.0010986328125
-0.00732421875
-0.009521484375
-0.0003662109375
0.0018310546875
0.0029296875
0.009521484375
-0.0003662109375
0.0
0.00146484375
0.0
0.005126953125
0.0
0.0076904296875
0.0
0.005126953125
0.0
0.0018310546875
0.0
-0.0029296875
0.0
-0.00732421875
0.0
-0.0069580078125
0.0
-0.0032958984375
0.0
0.002197265625
0.0
0.0062255859375
0.0
-0.0010986328125
0.0
-0.0003662109375
0.0
-0.0223388671875
0.0
-0.0234375
0.0
0.0450439453125
0.0
0.016845703125
0.0
-0.029296875
-0.0032958984375
-0.0098876953125
-0.0003662109375
-0.008056640625
0.0032958984375
-0.0076904296875
0.0003662109375
-0.0106201171875
0.0
-0.0054931640625
-0.0010986328125
-0.0003662109375
-0.059356689453125
0.0010986328125
-0.057159423828125
-0.005126953125
-0.03369140625
-0.0087890625
-0.0611572265625
-0.0010986328125
-0.0703125
-0.0047607421875
-0.0706787109375
-0.0201416015625
-0.03955078125
-0.019775390625
-0.0260009765625
0.0003662109375
-0.018310546875
0.008056640625
-0.03369140625
0.0025634765625
-0.053466796875
0.0018310546875
-0.0640869140625
-0.0205078125
-0.072174072265625
-0.0084228515625
0.1439208984375
0.04248046875
-0.0838623046875
0.0128173828125
-0.296661376953125
-0.0234375
-0.053466796875
-0.0289306640625
-0.010986328125
-0.0443115234375
-0.0208740234375
-0.0146484375
-0.090087890625
0.032958984375
-0.153472900390625
0.041015625
-0.123077392578125
0.017578125
-0.0047607421875
0.0179443359375
0.08642578125
0.025634765625
0.100006103515625
0.021240234375
0.078033447265625
0.0216064453125
0.1314697265625
0.008056640625
0.18896484375
-0.005859375
0.202545166015625
-0.0025634765625
0.221588134765625
0.015380859375
0.229278564453125
0.0010986328125
0.115386962890625
-0.010986328125
0.0
0.0054931640625
0.0003662109375
-0.0106201171875
0.0
-0.037353515625
0.0
0.038818359375
0.0
0.03515625
0.0
-0.027099609375
0.0
-0.00439453125
-0.0062255859375
-0.0084228515625
0.0
-0.006591796875
0.0062255859375
-0.00439453125
0.0
-0.005126953125
0.0
0.000732421875
0.0
0.01025390625
0.0
0.0047607421875
0.0
0.00439453125
0.0
0.0069580078125
0.0
-0.0069580078125
0.0
-0.0106201171875
0.0
-0.0018310546875
0.0
0.0
0.0
-0.00146484375
0.0
-0.0054931640625
0.0
0.0003662109375
0.0
0.0029296875
0.0
-0.043212890625
0.0
0.0267333984375
0.0
0.0421142578125
0.0
-0.0311279296875
0.0
-0.010986328125
-0.0029296875
-0.00732421875
-0.0003662109375
-0.005126953125
0.0025634765625
-0.008056640625
-0.035186767578125
-0.0062255859375
-0.072174072265625
0.00146484375
-0.060791015625
0.0040283203125
-0.0120849609375
0.00439453125
0.0084228515625
0.0029296875
-0.0157470703125
-0.000732421875
-0.0322265625
-0.00146484375
-0.03369140625
-0.0029296875
-0.0355224609375
-0.0069580078125
-0.0135498046875
-0.0025634765625
0.025634765625
-0.0018310546875
0.0322265625
-0.0025634765625
0.0146484375
-0.00146484375
0.0164794921875
-0.0087890625
0.0443115234375
-0.0457763671875
0.098907470703125
0.0274658203125
0.071075439453125
0.0362548828125
-0.019775390625
-0.0457763671875
-0.0252685546875
-0.0135498046875
-0.018707275390625
-0.0010986328125
-0.030059814453125
-0.0054931640625
-0.031494140625
-0.0142822265625
-0.021240234375
-0.01318359375
-0.0084228515625
-0.0032958984375
0.0205078125
0.0003662109375
0.058624267578125
0.0025634765625
0.055694580078125
0.000732421875
0.0194091796875
-0.003662109375
0.0
-0.0025634765625
0.0003662109375
0.003662109375
0.0003662109375
-0.0018310546875
0.0
-0.008056640625
-0.0003662109375
-0.0032958984375
0.0
0.0040283203125
0.0003662109375
0.0040283203125
0.0
-0.0003662109375
0.0
-0.0274658203125
0.0
0.01611328125
0.0
0.052734375
0.0
-0.0054931640625
0.0
-0.015380859375
-0.000732421875
-0.0032958984375
0.0003662109375
-0.0047607421875
0.000732421875
-0.0040283203125
-0.0003662109375
-0.00732421875
0.0
-0.003662109375
0.0
0.0040283203125
0.0
0.0032958984375
0.0
0.0087890625
0.0
0.00732421875
0.0
0.0047607421875
0.0
0.006591796875
0.0
0.0029296875
0.0
0.0029296875
0.0
0.01318359375
0.0
0.013916015625
0.0
0.002197265625
0.0
-0.0047607421875
0.0
-0.01904296875
0.0
-0.0098876953125
0.0
0.049072265625
0.0
0.025634765625
0.0
-0.0234375
-0.000732421875
-0.002197265625
-0.0003662109375
0.0025634765625
0.000732421875
-0.00439453125
0.0003662109375
-0.00439453125
0.0
0.0
0.0
0.0054931640625
0.0
0.0076904296875
0.0
0.0062255859375
0.0
0.006591796875
0.0
0.0029296875
0.0
-0.0025634765625
0.0
-0.002197265625
0.0
-0.0029296875
0.0
-0.000732421875
0.0
0.00732421875
0.0
0.006591796875
0.0
0.0
0.0
-0.005126953125
0.0
-0.038818359375
0.0
0.031494140625
0.0
0.041015625
0.0
-0.03369140625
0.0
-0.0135498046875
-0.0069580078125
-0.0084228515625
0.0
-0.0069580078125
0.0069580078125
-0.0091552734375
0.0
-0.005126953125
0.0
0.0
0.0
0.003662109375
0.0
0.006591796875
0.0
0.0062255859375
0.0
0.00439453125
0.0
0.0018310546875
0.0
0.0
0.0
-0.006591796875
0.0
-0.003662109375
0.0
0.0047607421875
0.0
0.003662109375
0.0
0.0029296875
0.0
-0.0029296875
0.0
-0.0318603515625
-0.0003662109375
0.016845703125
0.0
0.0465087890625
-0.0234375
-0.013916015625
-0.051300048828125
-0.0150146484375
-0.050567626953125
-0.0018310546875
-0.0413818359375
-0.0032958984375
-0.0399169921875
-0.0040283203125
-0.03955078125
-0.006591796875
-0.0523681640625
0.0018310546875
-0.06591796875
0.0069580078125
-0.040283203125
0.0076904296875
-0.0003662109375
0.0106201171875
0.0003662109375
0.008056640625
-0.0281982421875
0.000732421875
-0.0369873046875
-0.0018310546875
-0.0479736328125
0.00146484375
-0.0673828125
-0.003662109375
-0.051300048828125
-0.0003662109375
0.002197265625
0.0062255859375
0.009918212890625
0.00439453125
-0.022369384765625
0.003662109375
-0.029693603515625
0.0029296875
-0.028564453125
-0.03515625
0.164825439453125
0.0311279296875
0.048370361328125
0.04833984375
-0.253082275390625
-0.029296875
-0.152008056640625
-0.01171875
-0.041015625
-0.00146484375
-0.01318359375
-0.0018310546875
-0.0106201171875
-0.005126953125
-0.02197265625
-0.0069580078125
-0.03515625
0.0010986328125
-0.0289306640625
0.0091552734375
0.015380859375
0.00439453125
0.047607421875
0.0010986328125
0.022705078125
0.00732421875
-0.01318359375
0.00146484375
-0.0186767578125
-0.0260009765625
-0.253814697265625
-0.0208740234375
-0.245391845703125
