0.0238037109375
0.0604248046875
0.0223388671875
0.0589599609375
-0.0029296875
-0.0032958984375
-0.00439453125
0.0018310546875
0.00146484375
0.0003662109375
0.00732421875
-0.0032958984375
0.0076904296875
-0.0029296875
0.01025390625
-0.01171875
0.008056640625
-0.012451171875
0.0029296875
-0.0087890625
0.005859375
-0.016845703125
0.0087890625
-0.0128173828125
-0.0025634765625
-0.0010986328125
-0.0113525390625
-0.0032958984375
-0.0069580078125
-0.0054931640625
-0.003662109375
0.000732421875
-0.0120849609375
0.0087890625
-0.01611328125
0.0062255859375
-0.0084228515625
-0.00732421875
-0.01318359375
0.0010986328125
-0.015380859375
0.01904296875
-0.0106201171875
0.01025390625
-0.010986328125
-0.0032958984375
-0.0054931640625
-0.0025634765625
-0.0091552734375
0.0032958984375
-0.021240234375
0.0084228515625
-0.01611328125
0.0091552734375
-0.0098876953125
0.002197265625
-0.0146484375
-0.0047607421875
-0.012451171875
-0.017578125
-0.009521484375
-0.019775390625
-0.0054931640625
-0.01171875
-0.008056640625
-0.00732421875
-0.010986328125
-0.002197265625
-0.0076904296875
-0.002197265625
-0.0032958984375
-0.002197265625
-0.0069580078125
0.005859375
-0.009521484375
0.0091552734375
-0.0062255859375
0.003662109375
-0.009521484375
0.0010986328125
-0.0047607421875
-0.005126953125
-0.006591796875
-0.005859375
-0.0062255859375
-0.003662109375
-0.000732421875
-0.005859375
0.0010986328125
-0.01025390625
0.00146484375
-0.009521484375
0.0029296875
-0.00732421875
-0.0032958984375
-0.010986328125
-0.0047607421875
-0.00732421875
-0.002197265625
0.005126953125
-0.003662109375
0.003662109375
0.0025634765625
-0.0047607421875
0.0018310546875
-0.0032958984375
0.00439453125
-0.0076904296875
-0.000732421875
0.0098876953125
0.0113525390625
-0.010986328125
0.000732421875
-0.0289306640625
-0.018310546875
-0.0076904296875
0.00439453125
-0.0142822265625
0.013916015625
-0.0157470703125
0.012451171875
-0.0142822265625
0.0113525390625
-0.0106201171875
0.009521484375
-0.008056640625
0.005859375
-0.0076904296875
0.003662109375
-0.005859375
0.005859375
-0.0054931640625
0.00439453125
-0.0025634765625
0.00146484375
-0.00146484375
0.0003662109375
-0.000732421875
0.000732421875
0.000732421875
0.00146484375
0.006591796875
-0.002197265625
0.0062255859375
-0.00146484375
-0.0003662109375
0.002197265625
0.0025634765625
0.0047607421875
0.0029296875
0.003662109375
0.0025634765625
-0.00146484375
0.0040283203125
-0.0025634765625
0.002197265625
-0.0018310546875
0.0
-0.0003662109375
0.000732421875
0.0010986328125
-0.000732421875
0.000732421875
-0.00439453125
0.0018310546875
-0.0018310546875
0.0032958984375
0.002197265625
0.0040283203125
0.002197265625
-0.0010986328125
0.0069580078125
-0.00439453125
0.008056640625
0.00146484375
0.0025634765625
0.0076904296875
-0.0010986328125
0.003662109375
-0.0032958984375
-0.0054931640625
0.002197265625
-0.00439453125
0.0
0.0040283203125
-0.012451171875
0.005859375
-0.0120849609375
0.00439453125
-0.009521484375
0.010986328125
-0.0113525390625
0.0003662109375
0.008056640625
-0.0032958984375
-0.009521484375
0.002197265625
-0.0260009765625
-0.0076904296875
-0.0069580078125
-0.0029296875
-0.0076904296875
0.005126953125
-0.0087890625
0.002197265625
-0.008056640625
0.00146484375
-0.0054931640625
0.00146484375
0.0003662109375
0.0010986328125
0.00146484375
0.006591796875
-0.0018310546875
0.00732421875
0.0025634765625
0.003662109375
0.0047607421875
-0.0003662109375
0.00439453125
-0.000732421875
0.003662109375
0.00146484375
0.00146484375
-0.000732421875
0.000732421875
-0.00146484375
0.0003662109375
-0.0018310546875
-0.0010986328125
-0.00146484375
-0.0018310546875
-0.0010986328125
0.0
0.0040283203125
-0.0146484375
0.002197265625
-0.027099609375
-0.0029296875
-0.0201416015625
0.000732421875
-0.01025390625
-0.0032958984375
0.0025634765625
-0.002197265625
0.00439453125
-0.00146484375
-0.005859375
-0.0047607421875
-0.002197265625
0.0
0.002197265625
0.00146484375
-0.0010986328125
0.000732421875
0.000732421875
-0.0040283203125
0.0040283203125
-0.0087890625
0.0208740234375
0.0106201171875
0.005126953125
0.012451171875
-0.017578125
-0.000732421875
-0.002197265625
0.002197265625
0.002197265625
0.0047607421875
-0.00146484375
0.006591796875
0.0018310546875
0.0054931640625
-0.0003662109375
0.00146484375
-0.00146484375
0.0025634765625
0.0040283203125
0.005126953125
0.005126953125
0.006591796875
0.00439453125
0.0069580078125
0.0098876953125
0.0062255859375
0.0054931640625
0.0047607421875
0.0032958984375
-0.0003662109375
0.0113525390625
0.00146484375
0.006591796875
0.0032958984375
0.0054931640625
0.002197265625
0.00732421875
0.000732421875
0.0091552734375
0.00146484375
0.01025390625
0.0018310546875
0.01611328125
-0.0010986328125
0.01904296875
0.002197265625
0.0098876953125
0.0025634765625
0.0087890625
0.002197265625
0.0084228515625
0.0047607421875
0.002197265625
-0.0003662109375
0.005859375
-0.002197265625
0.0098876953125
0.002197265625
0.005859375
0.0025634765625
0.00732421875
0.0032958984375
0.002197265625
0.0054931640625
-0.000732421875
0.000732421875
0.003662109375
0.0010986328125
0.0032958984375
0.00439453125
0.0029296875
0.003662109375
0.002197265625
0.0047607421875
-0.00439453125
-0.0018310546875
-0.002197265625
-0.005859375
0.01025390625
0.0
0.0032958984375
0.0010986328125
-0.00146484375
-0.0003662109375
0.0010986328125
-0.005126953125
-0.0025634765625
-0.010986328125
0.00439453125
0.0
0.0025634765625
0.002197265625
-0.0003662109375
-0.0054931640625
0.003662109375
-0.0098876953125
0.0040283203125
-0.0098876953125
0.002197265625
-0.00439453125
-0.002197265625
-0.0029296875
-0.002197265625
0.00146484375
-0.0040283203125
0.00439453125
-0.0062255859375
0.0032958984375
-0.0054931640625
0.00439453125
-0.006591796875
0.005126953125
-0.0029296875
-0.000732421875
0.0003662109375
-0.00732421875
-0.000732421875
-0.008056640625
-0.0018310546875
0.0018310546875
-0.0018310546875
0.0087890625
-0.0025634765625
0.006591796875
-0.005126953125
0.0040283203125
-0.0054931640625
0.00146484375
-0.0018310546875
0.0040283203125
-0.0018310546875
0.0032958984375
-0.0029296875
0.0010986328125
0.005126953125
-0.00146484375
-0.0040283203125
-0.00146484375
-0.0150146484375
0.0003662109375
-0.0040283203125
-0.0003662109375
-0.0003662109375
-0.0003662109375
-0.0040283203125
-0.0010986328125
-0.0087890625
-0.0010986328125
-0.000732421875
-0.00146484375
0.009521484375
0.0018310546875
0.0025634765625
0.0010986328125
-0.000732421875
-0.00146484375
-0.00146484375
-0.0029296875
0.0062255859375
-0.0091552734375
0.0194091796875
0.0040283203125
-0.0135498046875
0.0128173828125
-0.0201416015625
0.0010986328125
0.006591796875
0.00439453125
0.0003662109375
0.010986328125
-0.0010986328125
0.0087890625
-0.00146484375
0.00146484375
0.0003662109375
-0.005859375
0.0025634765625
-0.0054931640625
0.003662109375
-0.0032958984375
0.0047607421875
-0.0032958984375
0.005126953125
-0.005126953125
0.0084228515625
-0.0029296875
0.0047607421875
-0.0003662109375
-0.0018310546875
-0.002197265625
-0.0003662109375
-0.000732421875
0.000732421875
0.00146484375
-0.0010986328125
0.005126953125
-0.002197265625
0.008056640625
-0.0047607421875
0.005859375
-0.0029296875
0.0029296875
0.0
0.0084228515625
-0.0029296875
0.010986328125
-0.003662109375
0.0062255859375
-0.002197265625
0.0029296875
0.0
0.00439453125
0.0010986328125
0.0032958984375
0.0029296875
0.0003662109375
0.00439453125
-0.0010986328125
0.0018310546875
-0.0032958984375
-0.006591796875
-0.003662109375
0.002197265625
-0.0025634765625
0.0084228515625
-0.002197265625
0.0032958984375
-0.0032958984375
0.002197265625
-0.00146484375
-0.0018310546875
-0.008056640625
0.0150146484375
0.003662109375
0.0029296875
0.005859375
-0.01611328125
-0.005859375
-0.0025634765625
0.0
0.0032958984375
0.000732421875
0.000732421875
-0.00146484375
0.003662109375
-0.0040283203125
0.006591796875
-0.003662109375
0.0076904296875
-0.0047607421875
0.010986328125
0.0003662109375
0.008056640625
0.0047607421875
0.006591796875
0.0054931640625
0.00732421875
0.003662109375
0.005126953125
0.0
0.0018310546875
0.0003662109375
0.0
0.0
0.00146484375
-0.0003662109375
-0.00146484375
0.00146484375
-0.0018310546875
0.0010986328125
0.00146484375
-0.000732421875
-0.002197265625
-0.0018310546875
0.0003662109375
-0.000732421875
-0.0003662109375
0.0003662109375
-0.0040283203125
-0.00146484375
-0.0040283203125
-0.00146484375
0.00146484375
0.002197265625
0.002197265625
-0.000732421875
0.002197265625
-0.0032958984375
0.00146484375
-0.002197265625
-0.0018310546875
-0.0069580078125
0.015380859375
0.0113525390625
-0.0062255859375
0.003662109375
-0.0194091796875
-0.0091552734375
0.002197265625
-0.00146484375
0.0010986328125
-0.0029296875
-0.003662109375
0.000732421875
-0.0029296875
-0.0018310546875
0.000732421875
-0.002197265625
-0.000732421875
-0.0029296875
-0.0010986328125
-0.000732421875
-0.002197265625
0.0032958984375
-0.005126953125
0.0
-0.002197265625
-0.00439453125
0.0003662109375
-0.0029296875
-0.00146484375
-0.0025634765625
-0.0029296875
-0.003662109375
-0.002197265625
-0.0003662109375
-0.0029296875
0.00439453125
-0.005859375
-0.0018310546875
-0.0025634765625
-0.0029296875
-0.0018310546875
-0.0047607421875
-0.0032958984375
-0.01025390625
0.0018310546875
-0.0076904296875
0.0029296875
-0.0032958984375
-0.00146484375
-0.0003662109375
0.0003662109375
-0.0003662109375
-0.0040283203125
-0.0040283203125
0.0047607421875
-0.00732421875
0.012451171875
-0.000732421875
0.0025634765625
-0.0010986328125
-0.0003662109375
-0.0018310546875
-0.0029296875
-0.0003662109375
0.0113525390625
0.0054931640625
0.0054931640625
0.0
-0.0179443359375
-0.0076904296875
-0.00732421875
-0.0018310546875
0.0032958984375
0.00146484375
-0.0003662109375
0.0032958984375
0.0010986328125
-0.000732421875
0.0032958984375
-0.000732421875
0.00146484375
-0.00439453125
0.002197265625
-0.005859375
0.0029296875
0.0029296875
-0.0010986328125
0.0029296875
0.000732421875
-0.0010986328125
0.0040283203125
-0.0010986328125
0.002197265625
0.000732421875
0.000732421875
-0.0018310546875
0.0
-0.0069580078125
0.0018310546875
-0.002197265625
0.0
0.002197265625
-0.003662109375
0.00439453125
-0.0032958984375
0.0135498046875
-0.0054931640625
0.0087890625
-0.0025634765625
-0.0032958984375
0.0018310546875
-0.0062255859375
0.0040283203125
-0.0084228515625
0.0054931640625
-0.002197265625
-0.0003662109375
0.0040283203125
-0.00439453125
0.0018310546875
-0.003662109375
0.0
-0.003662109375
0.003662109375
-0.005126953125
0.006591796875
-0.005126953125
0.0062255859375
-0.005126953125
0.002197265625
-0.0029296875
0.002197265625
-0.00146484375
0.00439453125
-0.00146484375
0.0029296875
-0.000732421875
0.0054931640625
-0.005126953125
0.0025634765625
0.0029296875
-0.0010986328125
0.00732421875
0.000732421875
-0.00146484375
0.002197265625
-0.0029296875
-0.0003662109375
0.0
-0.0040283203125
0.0157470703125
0.008056640625
0.0054931640625
0.0040283203125
-0.018310546875
-0.0040283203125
-0.0087890625
-0.0018310546875
0.003662109375
-0.002197265625
0.0040283203125
0.0029296875
0.0010986328125
0.0003662109375
0.0025634765625
-0.0047607421875
0.00732421875
-0.0084228515625
0.005859375
-0.005859375
0.0025634765625
0.00439453125
-0.002197265625
0.0106201171875
-0.006591796875
0.00439453125
-0.000732421875
0.0010986328125
0.0047607421875
-0.0010986328125
0.005126953125
-0.003662109375
0.0087890625
-0.0018310546875
0.009521484375
0.005126953125
0.00439453125
0.00732421875
0.0040283203125
-0.00146484375
0.0076904296875
0.0003662109375
0.000732421875
0.003662109375
-0.0003662109375
0.0029296875
0.0032958984375
0.0040283203125
-0.000732421875
0.00439453125
-0.0029296875
0.000732421875
-0.0018310546875
0.0
-0.0003662109375
0.0032958984375
-0.0029296875
0.0025634765625
-0.0025634765625
0.00439453125
0.000732421875
0.00146484375
0.0
-0.0029296875
0.0003662109375
0.000732421875
-0.0003662109375
-0.0069580078125
0.0084228515625
0.00732421875
-0.0047607421875
0.0040283203125
-0.0150146484375
-0.0135498046875
0.0
-0.000732421875
-0.0025634765625
-0.000732421875
-0.0025634765625
-0.0025634765625
-0.000732421875
0.000732421875
-0.0010986328125
0.0003662109375
-0.000732421875
-0.0054931640625
0.0003662109375
-0.00146484375
-0.000732421875
0.0047607421875
-0.0054931640625
0.0032958984375
-0.0047607421875
-0.0003662109375
-0.0003662109375
-0.00146484375
-0.0018310546875
-0.003662109375
-0.000732421875
-0.00439453125
0.0
-0.0029296875
-0.002197265625
-0.006591796875
-0.00146484375
-0.005859375
-0.000732421875
-0.0069580078125
0.0029296875
-0.00732421875
0.0018310546875
-0.003662109375
-0.0018310546875
-0.005859375
0.00146484375
-0.0025634765625
0.0
-0.0040283203125
-0.0003662109375
-0.0069580078125
0.0018310546875
-0.0054931640625
0.0032958984375
-0.00439453125
0.0047607421875
-0.002197265625
0.0025634765625
-0.003662109375
0.003662109375
-0.000732421875
0.0029296875
-0.0018310546875
0.002197265625
-0.0032958984375
0.0025634765625
0.0029296875
-0.0010986328125
0.003662109375
-0.0025634765625
-0.0003662109375
-0.000732421875
-0.00146484375
0.000732421875
0.0003662109375
-0.0010986328125
0.002197265625
-0.00732421875
0.00439453125
0.0010986328125
0.002197265625
0.0069580078125
0.0
0.0010986328125
0.0003662109375
0.0
0.0018310546875
-0.003662109375
-0.0084228515625
0.0087890625
-0.00146484375
0.000732421875
0.0128173828125
-0.013916015625
0.0040283203125
-0.002197265625
0.00146484375
0.0003662109375
0.0
0.000732421875
-0.0010986328125
0.002197265625
0.0010986328125
0.000732421875
0.0
0.000732421875
-0.0029296875
0.0025634765625
0.0025634765625
0.00146484375
0.00439453125
0.0003662109375
0.0010986328125
0.002197265625
0.002197265625
0.000732421875
-0.0010986328125
0.00146484375
-0.0003662109375
0.0
-0.002197265625
-0.0003662109375
-0.0032958984375
0.0018310546875
0.0062255859375
-0.0032958984375
0.00439453125
-0.002197265625
-0.0003662109375
0.0010986328125
0.00146484375
0.0018310546875
0.0025634765625
0.0
-0.002197265625
0.0
-0.0029296875
0.0010986328125
0.0018310546875
-0.0018310546875
0.00146484375
0.0
-0.0003662109375
0.00146484375
-0.0018310546875
0.00146484375
0.00146484375
0.000732421875
0.005859375
-0.0084228515625
0.0018310546875
-0.000732421875
-0.0018310546875
0.0113525390625
0.0029296875
0.002197265625
0.003662109375
-0.0018310546875
0.000732421875
-0.0003662109375
-0.000732421875
0.0128173828125
0.0025634765625
0.0146484375
0.0054931640625
-0.017578125
-0.000732421875
-0.01611328125
-0.006591796875
0.0047607421875
-0.000732421875
0.0003662109375
0.0029296875
-0.0010986328125
0.00439453125
-0.000732421875
0.005126953125
0.0
-0.0029296875
0.0032958984375
-0.0018310546875
0.002197265625
0.0018310546875
0.000732421875
0.002197265625
0.0
0.0054931640625
-0.000732421875
0.0018310546875
0.00146484375
0.000732421875
0.005859375
0.002197265625
0.0091552734375
0.000732421875
0.0062255859375
0.0040283203125
0.003662109375
0.002197265625
0.0010986328125
0.0003662109375
-0.0010986328125
-0.0003662109375
0.000732421875
-0.0010986328125
0.0025634765625
0.003662109375
0.000732421875
0.000732421875
-0.0018310546875
-0.0003662109375
-0.00146484375
0.0010986328125
-0.0029296875
0.0
-0.0025634765625
0.00146484375
0.006591796875
0.002197265625
0.0054931640625
0.003662109375
-0.0047607421875
0.0010986328125
-0.005126953125
-0.000732421875
-0.0040283203125
-0.0047607421875
0.005126953125
-0.0003662109375
-0.006591796875
0.0018310546875
-0.0113525390625
-0.0025634765625
0.002197265625
0.0029296875
-0.00146484375
0.002197265625
-0.00146484375
-0.0010986328125
-0.0010986328125
-0.003662109375
0.0010986328125
-0.00439453125
0.0040283203125
-0.0054931640625
0.00439453125
-0.00439453125
0.00439453125
0.0025634765625
0.0
0.0
0.000732421875
-0.0025634765625
-0.000732421875
-0.002197265625
-0.0029296875
-0.0018310546875
-0.0029296875
0.000732421875
-0.002197265625
-0.0029296875
0.0010986328125
-0.0029296875
-0.0025634765625
-0.003662109375
0.000732421875
-0.00732421875
0.00439453125
-0.009521484375
0.003662109375
-0.00732421875
-0.0003662109375
-0.0040283203125
-0.0025634765625
-0.0032958984375
-0.00732421875
-0.003662109375
-0.0010986328125
-0.005126953125
0.012451171875
-0.0010986328125
0.0047607421875
0.0
-0.002197265625
-0.0029296875
-0.0018310546875
-0.0062255859375
0.0010986328125
-0.0150146484375
0.0157470703125
-0.0069580078125
0.0040283203125
0.0025634765625
-0.0091552734375
-0.0025634765625
0.0029296875
-0.005126953125
0.006591796875
-0.003662109375
0.003662109375
0.0010986328125
-0.00146484375
-0.003662109375
0.0018310546875
-0.0201416015625
0.013916015625
-0.0245361328125
0.0146484375
-0.01171875
0.0047607421875
-0.0018310546875
0.000732421875
0.0040283203125
-0.0025634765625
0.0084228515625
-0.00732421875
0.010986328125
-0.01171875
0.0047607421875
-0.0069580078125
-0.0047607421875
0.0018310546875
-0.0010986328125
0.0018310546875
0.012451171875
-0.006591796875
0.0208740234375
-0.01171875
0.0157470703125
-0.0098876953125
0.013916015625
-0.0106201171875
0.01171875
-0.0069580078125
0.006591796875
-0.003662109375
0.005859375
-0.0025634765625
0.0
0.002197265625
-0.0040283203125
0.00439453125
0.00146484375
0.0003662109375
0.0054931640625
-0.0029296875
0.00439453125
-0.0018310546875
0.0025634765625
-0.0084228515625
-0.0029296875
0.0010986328125
-0.00146484375
0.0113525390625
0.0
0.005126953125
0.0029296875
-0.0010986328125
0.0047607421875
-0.003662109375
-0.0029296875
0.0135498046875
0.0029296875
0.010986328125
0.0003662109375
-0.017578125
-0.0054931640625
-0.0120849609375
0.0025634765625
0.00146484375
0.0047607421875
-0.0018310546875
0.005126953125
-0.00146484375
0.0087890625
-0.00439453125
-0.0003662109375
0.0010986328125
-0.0084228515625
0.0054931640625
0.0029296875
-0.000732421875
0.0040283203125
-0.000732421875
0.00146484375
0.0010986328125
0.0040283203125
0.00146484375
0.0025634765625
0.0018310546875
0.002197265625
-0.000732421875
-0.002197265625
0.0
-0.00732421875
0.0032958984375
-0.0010986328125
-0.0003662109375
0.00439453125
-0.00146484375
-0.00146484375
0.003662109375
-0.00439453125
0.0018310546875
-0.00439453125
0.00146484375
-0.0062255859375
0.0040283203125
-0.0054931640625
0.0040283203125
-0.0018310546875
0.002197265625
0.0054931640625
-0.0040283203125
0.00732421875
-0.0054931640625
0.0047607421875
-0.00439453125
0.0029296875
-0.002197265625
0.0029296875
-0.002197265625
0.000732421875
0.0010986328125
-0.0032958984375
0.0040283203125
-0.0025634765625
0.0010986328125
0.000732421875
0.00146484375
0.0054931640625
0.002197265625
0.0025634765625
0.0032958984375
0.002197265625
0.0076904296875
0.0069580078125
0.0040283203125
0.002197265625
-0.000732421875
-0.000732421875
-0.002197265625
-0.0018310546875
-0.0040283203125
-0.00732421875
0.0010986328125
-0.0018310546875
0.0076904296875
0.0025634765625
0.002197265625
0.0
-0.0029296875
0.002197265625
0.00146484375
-0.00146484375
0.002197265625
-0.002197265625
0.005126953125
0.0010986328125
0.005126953125
-0.0032958984375
0.003662109375
-0.0029296875
0.0
0.0025634765625
-0.0003662109375
0.00439453125
0.0
0.0003662109375
-0.000732421875
-0.0003662109375
0.002197265625
0.00146484375
0.00146484375
-0.000732421875
0.0
-0.000732421875
-0.0025634765625
-0.002197265625
0.0
-0.0025634765625
0.000732421875
-0.000732421875
-0.002197265625
0.0025634765625
-0.002197265625
0.0010986328125
0.0
0.0
-0.000732421875
-0.002197265625
-0.000732421875
-0.0032958984375
0.00146484375
-0.0010986328125
-0.002197265625
-0.0029296875
0.0040283203125
-0.0003662109375
0.00439453125
0.00439453125
-0.0084228515625
0.002197265625
-0.0091552734375
-0.000732421875
-0.0047607421875
-0.0018310546875
-0.0040283203125
-0.0087890625
0.0062255859375
-0.00146484375
-0.0040283203125
0.00439453125
-0.0120849609375
-0.00146484375
-0.00146484375
-0.0029296875
-0.0003662109375
-0.0029296875
0.00146484375
-0.0010986328125
0.0
-0.0025634765625
0.0010986328125
-0.000732421875
-0.000732421875
-0.0003662109375
-0.0018310546875
-0.0018310546875
0.000732421875
0.0
0.0029296875
-0.0025634765625
0.00439453125
-0.0040283203125
0.003662109375
-0.0010986328125
0.0003662109375
-0.0018310546875
-0.0003662109375
-0.0032958984375
0.0018310546875
-0.003662109375
0.0018310546875
-0.00146484375
0.0003662109375
0.00146484375
-0.0010986328125
0.0003662109375
0.000732421875
-0.002197265625
0.0029296875
-0.003662109375
0.0029296875
0.000732421875
0.0003662109375
0.0010986328125
-0.000732421875
-0.0003662109375
-0.00146484375
-0.0054931640625
0.0025634765625
-0.003662109375
0.00146484375
0.0029296875
-0.0018310546875
-0.0040283203125
0.00439453125
-0.0054931640625
0.005859375
-0.0054931640625
0.0054931640625
-0.0076904296875
0.006591796875
-0.005859375
0.005859375
-0.01025390625
0.006591796875
0.0003662109375
-0.000732421875
0.0150146484375
-0.0084228515625
0.0054931640625
-0.003662109375
0.00439453125
-0.003662109375
0.0032958984375
0.0
-0.0003662109375
-0.0047607421875
0.00439453125
-0.0010986328125
0.0087890625
0.0047607421875
0.009521484375
-0.0047607421875
0.000732421875
-0.002197265625
0.0
0.0
-0.005126953125
0.013916015625
0.005126953125
0.003662109375
0.01171875
-0.0157470703125
0.0018310546875
-0.005126953125
-0.00732421875
0.0135498046875
-0.0069580078125
0.0146484375
0.010986328125
-0.0054931640625
0.0098876953125
-0.0087890625
-0.0018310546875
0.000732421875
-0.0047607421875
0.002197265625
0.0018310546875
-0.003662109375
0.00732421875
-0.0054931640625
0.009521484375
-0.0040283203125
0.009521484375
-0.0062255859375
0.003662109375
-0.00439453125
0.0047607421875
-0.0032958984375
0.0069580078125
-0.0054931640625
0.0029296875
-0.0040283203125
0.0069580078125
-0.005859375
0.009521484375
-0.0062255859375
0.0018310546875
-0.0010986328125
-0.003662109375
0.002197265625
0.000732421875
0.0003662109375
0.00146484375
-0.0010986328125
-0.0025634765625
-0.0003662109375
-0.0003662109375
0.0
0.00146484375
-0.0010986328125
0.0003662109375
-0.00146484375
0.0025634765625
-0.0010986328125
0.0040283203125
-0.005859375
-0.00146484375
-0.00146484375
0.0032958984375
0.00732421875
0.0069580078125
0.0040283203125
-0.0025634765625
0.00146484375
-0.0032958984375
0.0003662109375
-0.0032958984375
0.0091552734375
-0.0032958984375
0.0230712890625
-0.00146484375
-0.0047607421875
-0.0029296875
-0.01318359375
-0.0003662109375
0.003662109375
0.0
0.0010986328125
0.0
-0.0003662109375
-0.0018310546875
0.0029296875
-0.00439453125
0.006591796875
-0.0025634765625
0.003662109375
-0.0029296875
0.0029296875
-0.0010986328125
0.0029296875
0.002197265625
0.0025634765625
0.00146484375
-0.002197265625
-0.002197265625
0.002197265625
-0.00146484375
0.00439453125
-0.000732421875
0.0003662109375
-0.00146484375
0.0
-0.0018310546875
0.000732421875
-0.0003662109375
-0.0029296875
-0.0003662109375
-0.0010986328125
-0.0025634765625
0.003662109375
-0.002197265625
0.00146484375
0.0
-0.000732421875
-0.000732421875
0.000732421875
-0.0010986328125
-0.005859375
0.0
-0.0040283203125
-0.000732421875
0.005859375
0.0
0.0018310546875
-0.0025634765625
-0.003662109375
-0.0029296875
-0.0069580078125
-0.006591796875
0.00732421875
0.0029296875
-0.0003662109375
0.0003662109375
-0.0234375
-0.0113525390625
-0.0120849609375
-0.0029296875
0.0
0.0003662109375
-0.002197265625
0.000732421875
-0.002197265625
-0.002197265625
0.0010986328125
-0.0062255859375
0.0032958984375
-0.005859375
0.0018310546875
-0.0018310546875
-0.000732421875
0.005859375
-0.003662109375
0.00439453125
-0.0018310546875
-0.003662109375
0.0029296875
-0.005859375
0.0047607421875
0.0
-0.00146484375
-0.000732421875
-0.003662109375
-0.0084228515625
0.002197265625
-0.0003662109375
-0.0010986328125
0.0003662109375
0.0
0.0010986328125
-0.0010986328125
0.003662109375
-0.0032958984375
-0.0029296875
0.002197265625
-0.003662109375
0.00439453125
-0.003662109375
0.003662109375
-0.0010986328125
0.000732421875
-0.000732421875
0.0018310546875
-0.0003662109375
0.00146484375
-0.0040283203125
0.0029296875
-0.000732421875
0.0
0.0040283203125
-0.010986328125
-0.0029296875
0.000732421875
0.0032958984375
0.0098876953125
0.0076904296875
-0.000732421875
0.0040283203125
-0.0047607421875
0.0040283203125
-0.0040283203125
-0.00146484375
0.0062255859375
-0.012451171875
0.0238037109375
-0.0069580078125
-0.00439453125
-0.002197265625
-0.01318359375
-0.009521484375
0.0142822265625
-0.012451171875
0.0150146484375
-0.0032958984375
0.00732421875
0.0087890625
-0.0054931640625
0.0047607421875
-0.0047607421875
-0.0018310546875
0.0025634765625
-0.005126953125
0.0069580078125
-0.0062255859375
0.0084228515625
0.0040283203125
0.0003662109375
0.010986328125
-0.005859375
0.010986328125
-0.0084228515625
0.0087890625
-0.00732421875
0.0
0.0
-0.006591796875
0.00439453125
-0.0010986328125
0.0
0.010986328125
-0.00732421875
0.0091552734375
-0.006591796875
0.002197265625
-0.002197265625
0.0003662109375
0.000732421875
0.0047607421875
-0.0029296875
0.0069580078125
-0.0047607421875
-0.0003662109375
0.0003662109375
0.0
0.0
0.0032958984375
-0.0025634765625
0.0018310546875
-0.0025634765625
0.0025634765625
-0.002197265625
-0.0010986328125
0.0003662109375
-0.009521484375
0.0040283203125
-0.005126953125
0.002197265625
0.0025634765625
-0.0018310546875
0.005859375
-0.0029296875
0.00732421875
-0.00439453125
-0.0010986328125
-0.0010986328125
-0.0025634765625
-0.0040283203125
-0.0003662109375
0.003662109375
0.0054931640625
0.0054931640625
0.008056640625
-0.008056640625
0.0
-0.003662109375
-0.0032958984375
0.0003662109375
-0.0032958984375
0.006591796875
-0.0047607421875
0.0216064453125
-0.0018310546875
-0.008056640625
0.0032958984375
-0.0205078125
0.0010986328125
0.0040283203125
0.000732421875
0.00146484375
-0.0018310546875
0.0040283203125
-0.003662109375
0.005859375
0.0010986328125
0.0010986328125
-0.0003662109375
0.002197265625
-0.003662109375
0.008056640625
0.000732421875
0.00439453125
0.00439453125
-0.0003662109375
-0.0003662109375
0.005126953125
-0.0018310546875
0.005859375
0.00146484375
0.0010986328125
0.000732421875
0.00146484375
-0.0018310546875
0.003662109375
0.0010986328125
0.0
0.00146484375
-0.002197265625
-0.0029296875
0.000732421875
-0.000732421875
-0.000732421875
-0.00146484375
-0.0003662109375
-0.0003662109375
0.0018310546875
0.0
0.0
-0.0047607421875
0.0010986328125
-0.00146484375
-0.00146484375
0.0003662109375
-0.0025634765625
-0.0069580078125
0.0054931640625
-0.0018310546875
0.0032958984375
0.005126953125
-0.0069580078125
-0.000732421875
-0.0047607421875
0.0032958984375
-0.0040283203125
-0.002197265625
0.0062255859375
-0.002197265625
0.0091552734375
0.0040283203125
-0.0135498046875
-0.000732421875
-0.0106201171875
-0.000732421875
0.000732421875
-0.0029296875
0.0025634765625
-0.0010986328125
0.002197265625
-0.00146484375
-0.00146484375
-0.0047607421875
-0.0010986328125
-0.0029296875
-0.0029296875
-0.005126953125
-0.00146484375
-0.0018310546875
-0.0029296875
0.0047607421875
-0.0029296875
0.0
0.000732421875
-0.0025634765625
-0.000732421875
-0.0003662109375
-0.002197265625
-0.0040283203125
-0.0003662109375
-0.0029296875
-0.0010986328125
0.000732421875
-0.0029296875
-0.00439453125
0.0003662109375
-0.002197265625
0.0
0.000732421875
-0.0010986328125
-0.000732421875
0.0010986328125
0.00146484375
0.0
0.0010986328125
-0.0003662109375
-0.000732421875
0.0018310546875
0.002197265625
0.0003662109375
0.0054931640625
-0.0032958984375
0.0054931640625
-0.0047607421875
0.0025634765625
-0.0018310546875
-0.0018310546875
0.0003662109375
-0.003662109375
0.0010986328125
-0.000732421875
0.00146484375
0.0
0.000732421875
-0.0003662109375
0.0
0.003662109375
-0.002197265625
-0.0054931640625
0.0040283203125
-0.005859375
0.00439453125
0.0040283203125
-0.0018310546875
0.0018310546875
-0.0018310546875
0.0032958984375
-0.0029296875
0.002197265625
-0.0084228515625
-0.0032958984375
0.0054931640625
0.0
0.0120849609375
0.00439453125
0.00146484375
-0.0018310546875
0.0032958984375
-0.0025634765625
0.00146484375
-0.005859375
0.01611328125
-0.002197265625
0.010986328125
-0.0003662109375
-0.0128173828125
-0.0032958984375
-0.0087890625
-0.006591796875
0.009521484375
-0.008056640625
0.0135498046875
0.008056640625
-0.0003662109375
0.012451171875
-0.0069580078125
0.0069580078125
-0.0047607421875
0.005859375
-0.0029296875
0.0062255859375
-0.0054931640625
0.006591796875
-0.0054931640625
0.0120849609375
-0.006591796875
0.010986328125
-0.0062255859375
0.0032958984375
-0.0010986328125
0.00439453125
-0.002197265625
0.0040283203125
-0.00146484375
-0.0029296875
0.005126953125
0.0032958984375
-0.0029296875
0.0084228515625
-0.0087890625
0.005126953125
-0.0018310546875
0.0018310546875
0.0003662109375
0.0029296875
-0.0040283203125
0.003662109375
-0.00439453125
0.002197265625
-0.00146484375
0.0025634765625
-0.0018310546875
0.0010986328125
-0.00146484375
0.0032958984375
-0.0029296875
-0.000732421875
0.00146484375
-0.005126953125
0.003662109375
-0.0040283203125
0.000732421875
-0.003662109375
0.0091552734375
-0.0025634765625
0.006591796875
-0.00146484375
0.0025634765625
0.000732421875
0.000732421875
-0.002197265625
-0.000732421875
-0.012451171875
0.01025390625
0.00146484375
0.00732421875
0.0054931640625
-0.0029296875
-0.00146484375
-0.00439453125
-0.00146484375
0.003662109375
-0.00439453125
0.005859375
0.0003662109375
0.0040283203125
-0.002197265625
0.003662109375
-0.003662109375
0.0029296875
-0.00439453125
0.005126953125
-0.00146484375
0.0029296875
0.0018310546875
0.000732421875
0.000732421875
0.000732421875
-0.0018310546875
0.00146484375
-0.0029296875
-0.00146484375
0.0
-0.000732421875
-0.0010986328125
0.0025634765625
-0.0025634765625
0.000732421875
-0.0032958984375
-0.000732421875
-0.0003662109375
-0.003662109375
0.0010986328125
-0.0003662109375
-0.002197265625
0.00146484375
0.0
-0.0029296875
-0.0003662109375
-0.00146484375
-0.0025634765625
0.0003662109375
-0.0018310546875
-0.008056640625
0.000732421875
-0.003662109375
-0.0010986328125
0.009521484375
0.000732421875
0.0025634765625
0.0025634765625
-0.00439453125
-0.0018310546875
-0.0029296875
-0.0025634765625
-0.0069580078125
-0.01025390625
0.0029296875
0.0018310546875
-0.0062255859375
0.0087890625
-0.017578125
-0.0018310546875
-0.0040283203125
-0.0010986328125
-0.00146484375
-0.0025634765625
-0.0018310546875
0.00146484375
-0.003662109375
-0.000732421875
-0.000732421875
-0.003662109375
0.000732421875
0.0003662109375
-0.0018310546875
0.0047607421875
-0.003662109375
0.0084228515625
-0.0029296875
0.00146484375
0.002197265625
-0.0054931640625
0.0025634765625
-0.0054931640625
0.000732421875
-0.0018310546875
-0.000732421875
-0.00146484375
-0.0003662109375
-0.002197265625
0.000732421875
0.0
-0.0010986328125
-0.000732421875
-0.000732421875
-0.002197265625
0.002197265625
-0.002197265625
0.002197265625
0.000732421875
-0.000732421875
0.0040283203125
-0.00146484375
0.0047607421875
-0.000732421875
0.006591796875
0.0
0.01025390625
-0.00439453125
0.0084228515625
-0.0062255859375
0.006591796875
-0.005126953125
0.0062255859375
-0.0054931640625
0.00439453125
-0.0062255859375
0.0040283203125
0.0029296875
0.0040283203125
0.0062255859375
0.0025634765625
0.0003662109375
-0.0003662109375
0.0010986328125
0.0010986328125
-0.0018310546875
-0.0087890625
0.0150146484375
0.00146484375
0.0025634765625
0.0076904296875
-0.0157470703125
-0.003662109375
0.0
0.00146484375
0.0025634765625
0.000732421875
0.0029296875
-0.0010986328125
0.003662109375
-0.00146484375
0.002197265625
-0.0040283203125
0.0029296875
-0.0032958984375
0.0029296875
0.000732421875
0.0018310546875
0.00146484375
0.0025634765625
0.0010986328125
0.0025634765625
-0.000732421875
0.0040283203125
-0.0018310546875
0.00439453125
-0.0018310546875
0.0018310546875
-0.000732421875
0.0
0.0
0.000732421875
-0.0025634765625
0.002197265625
-0.002197265625
0.0010986328125
0.0003662109375
0.0
-0.0010986328125
0.0010986328125
0.0003662109375
0.000732421875
0.0
0.0010986328125
-0.00146484375
0.000732421875
-0.000732421875
0.0010986328125
-0.0003662109375
0.002197265625
-0.0003662109375
0.003662109375
-0.0025634765625
0.005859375
-0.0047607421875
0.0054931640625
-0.0029296875
0.0029296875
-0.0010986328125
0.0003662109375
-0.0032958984375
-0.000732421875
-0.00146484375
0.0
0.000732421875
0.0010986328125
-0.000732421875
0.0
-0.0003662109375
0.0003662109375
-0.000732421875
-0.0010986328125
-0.0040283203125
0.002197265625
-0.00146484375
0.00439453125
0.002197265625
0.0029296875
0.0018310546875
0.0029296875
0.0003662109375
0.0018310546875
-0.0076904296875
0.0091552734375
0.0025634765625
0.0069580078125
0.008056640625
-0.006591796875
-0.0010986328125
-0.005126953125
-0.000732421875
0.002197265625
0.0010986328125
-0.000732421875
0.002197265625
0.0010986328125
0.000732421875
0.0032958984375
0.0003662109375
0.00146484375
-0.0010986328125
0.0029296875
0.0003662109375
0.0010986328125
0.0069580078125
-0.0025634765625
0.005859375
-0.0003662109375
0.0003662109375
0.00146484375
-0.0029296875
0.002197265625
0.0003662109375
-0.000732421875
0.0029296875
-0.0047607421875
-0.002197265625
-0.00146484375
0.0
-0.00146484375
-0.0025634765625
0.0003662109375
-0.002197265625
0.0
0.000732421875
-0.0003662109375
0.000732421875
0.0003662109375
0.0032958984375
-0.0025634765625
0.0040283203125
-0.0003662109375
0.005859375
0.0010986328125
0.000732421875
0.0003662109375
-0.005859375
0.005859375
-0.0062255859375
0.002197265625
-0.00439453125
-0.0091552734375
-0.0029296875
-0.0076904296875
-0.002197265625
-0.003662109375
-0.00146484375
-0.00732421875
-0.005126953125
0.0003662109375
0.002197265625
-0.005859375
0.0040283203125
-0.0120849609375
-0.0003662109375
-0.0040283203125
0.0
-0.0047607421875
-0.003662109375
-0.0025634765625
-0.003662109375
0.0
-0.002197265625
-0.00146484375
-0.0025634765625
-0.00439453125
-0.0047607421875
-0.0032958984375
0.000732421875
-0.0047607421875
0.000732421875
-0.0018310546875
-0.0003662109375
0.0
-0.0018310546875
0.0
-0.0040283203125
-0.0018310546875
-0.002197265625
-0.0018310546875
-0.0018310546875
0.0
-0.000732421875
-0.0003662109375
-0.0003662109375
0.000732421875
0.0054931640625
-0.0029296875
0.005126953125
-0.0025634765625
0.0029296875
0.0
0.00146484375
0.000732421875
-0.005126953125
0.0025634765625
-0.006591796875
0.003662109375
-0.0032958984375
0.002197265625
-0.000732421875
0.0
0.0
0.0003662109375
0.0003662109375
0.0
0.000732421875
-0.0003662109375
0.0032958984375
-0.0010986328125
0.00146484375
0.0
-0.0018310546875
0.002197265625
0.0029296875
-0.000732421875
0.005126953125
-0.002197265625
0.0032958984375
-0.000732421875
0.0032958984375
-0.000732421875
-0.00146484375
0.0003662109375
-0.00146484375
0.0029296875
0.002197265625
0.002197265625
0.0010986328125
-0.0010986328125
-0.002197265625
-0.00439453125
-0.0010986328125
0.0029296875
0.005126953125
0.0040283203125
0.0010986328125
0.00146484375
-0.0029296875
0.0010986328125
0.000732421875
-0.00439453125
-0.0076904296875
0.01025390625
0.00146484375
-0.0003662109375
0.009521484375
-0.0142822265625
0.0010986328125
-0.0010986328125
0.000732421875
0.00146484375
-0.003662109375
0.0032958984375
0.0047607421875
-0.0018310546875
0.010986328125
-0.00439453125
-0.0018310546875
0.002197265625
-0.005126953125
0.002197265625
-0.0032958984375
0.0029296875
0.0025634765625
0.000732421875
0.006591796875
0.0003662109375
0.00439453125
0.000732421875
0.002197265625
0.00146484375
-0.006591796875
0.003662109375
-0.00439453125
0.0018310546875
0.0025634765625
0.00146484375
0.006591796875
-0.0018310546875
0.0062255859375
-0.00146484375
-0.0010986328125
0.0032958984375
-0.0018310546875
0.0029296875
0.0032958984375
-0.0003662109375
0.0025634765625
0.000732421875
0.0018310546875
0.0
0.00146484375
-0.000732421875
0.0003662109375
0.0
0.0010986328125
-0.000732421875
0.000732421875
0.000732421875
0.000732421875
0.000732421875
0.0018310546875
-0.008056640625
0.0
0.0003662109375
-0.0010986328125
0.0106201171875
0.000732421875
0.002197265625
-0.0010986328125
0.00146484375
0.0003662109375
-0.0029296875
-0.0010986328125
0.0040283203125
-0.006591796875
0.0245361328125
-0.00146484375
-0.0087890625
0.0029296875
-0.0216064453125
-0.002197265625
0.006591796875
-0.002197265625
0.0018310546875
-0.000732421875
0.0018310546875
-0.0029296875
0.005126953125
-0.0029296875
0.005859375
-0.0032958984375
0.0054931640625
-0.0029296875
0.0010986328125
-0.000732421875
0.000732421875
0.0029296875
0.0010986328125
0.000732421875
0.0025634765625
-0.0029296875
0.0069580078125
-0.0029296875
0.0054931640625
-0.0003662109375
-0.0025634765625
-0.000732421875
-0.0025634765625
-0.0010986328125
0.00146484375
-0.002197265625
0.00146484375
-0.0010986328125
-0.0018310546875
0.0010986328125
-0.002197265625
0.0010986328125
-0.0003662109375
-0.0018310546875
0.00146484375
-0.0029296875
-0.0010986328125
0.00439453125
-0.0106201171875
-0.0029296875
0.0029296875
-0.003662109375
0.0113525390625
0.0029296875
-0.0010986328125
-0.00146484375
0.0010986328125
-0.0010986328125
0.0003662109375
-0.0025634765625
0.002197265625
-0.0018310546875
0.010986328125
-0.0003662109375
-0.0087890625
0.0
-0.0146484375
0.0
0.0
0.0
-0.0010986328125
-0.00146484375
-0.0003662109375
-0.002197265625
-0.0010986328125
-0.0010986328125
0.0
-0.002197265625
0.0003662109375
0.002197265625
-0.005859375
0.00146484375
-0.0062255859375
0.0032958984375
-0.0054931640625
0.0010986328125
-0.0025634765625
-0.00439453125
-0.0003662109375
0.0003662109375
-0.00439453125
-0.00146484375
-0.0010986328125
-0.00146484375
0.0
0.0025634765625
-0.0032958984375
0.0003662109375
0.0
0.0
0.0003662109375
0.0025634765625
-0.0018310546875
0.0003662109375
-0.0018310546875
-0.0032958984375
-0.0003662109375
0.00146484375
-0.00146484375
-0.000732421875
-0.000732421875
-0.0032958984375
-0.000732421875
0.00146484375
-0.003662109375
0.0018310546875
-0.0032958984375
0.0003662109375
-0.005126953125
-0.00146484375
-0.0010986328125
-0.00146484375
0.00732421875
0.0029296875
0.003662109375
0.005126953125
-0.0025634765625
0.0
-0.00146484375
-0.000732421875
-0.00439453125
-0.009521484375
0.0106201171875
0.002197265625
-0.0010986328125
0.012451171875
-0.0157470703125
0.002197265625
0.000732421875
0.00146484375
0.003662109375
0.000732421875
0.003662109375
0.0029296875
0.0003662109375
-0.0018310546875
0.002197265625
-0.0029296875
0.00146484375
-0.0018310546875
0.000732421875
0.0010986328125
0.0
0.0069580078125
-0.0018310546875
0.0029296875
0.002197265625
-0.0003662109375
0.0010986328125
-0.0018310546875
0.0018310546875
-0.00146484375
0.0018310546875
-0.0003662109375
0.0
-0.0003662109375
0.0003662109375
0.000732421875
0.0003662109375
0.0010986328125
0.0018310546875
-0.0003662109375
0.0032958984375
-0.003662109375
0.0032958984375
-0.000732421875
0.002197265625
0.000732421875
0.00439453125
0.00146484375
0.002197265625
0.0029296875
-0.0003662109375
0.00439453125
-0.00146484375
0.0069580078125
-0.0047607421875
0.003662109375
-0.003662109375
0.0032958984375
-0.0076904296875
0.003662109375
-0.005859375
0.0029296875
0.0040283203125
0.0
0.0054931640625
-0.0003662109375
0.0010986328125
0.0
-0.00146484375
-0.0010986328125
-0.0018310546875
-0.00732421875
0.0087890625
0.000732421875
-0.0029296875
0.0069580078125
-0.0120849609375
-0.0018310546875
0.00146484375
-0.00146484375
0.00146484375
-0.0018310546875
0.002197265625
-0.000732421875
0.0010986328125
-0.0010986328125
0.0
-0.0018310546875
-0.0003662109375
-0.002197265625
0.0003662109375
-0.000732421875
0.000732421875
0.005859375
-0.0032958984375
0.005126953125
-0.0029296875
-0.0003662109375
0.00146484375
-0.000732421875
-0.000732421875
-0.0018310546875
-0.0003662109375
-0.0025634765625
0.0003662109375
0.0010986328125
-0.0003662109375
0.0010986328125
0.0040283203125
-0.000732421875
0.0032958984375
0.000732421875
0.00146484375
-0.0025634765625
0.005126953125
-0.0025634765625
0.003662109375
0.00146484375
0.0018310546875
-0.0003662109375
0.003662109375
-0.0040283203125
-0.000732421875
-0.0025634765625
-0.0003662109375
-0.0040283203125
0.01171875
-0.0003662109375
0.0091552734375
0.0018310546875
0.00146484375
-0.0029296875
0.0010986328125
0.00146484375
-0.0029296875
-0.0062255859375
0.0010986328125
0.000732421875
0.003662109375
0.0062255859375
-0.0018310546875
-0.005126953125
0.000732421875
0.0010986328125
-0.000732421875
0.0010986328125
-0.0025634765625
-0.0025634765625
0.0032958984375
-0.0025634765625
0.0047607421875
-0.0025634765625
0.0029296875
-0.0018310546875
-0.000732421875
-0.0010986328125
-0.00146484375
0.0025634765625
0.0018310546875
0.0025634765625
-0.00146484375
-0.00146484375
-0.0018310546875
-0.0010986328125
0.0
-0.0025634765625
0.002197265625
-0.0018310546875
0.0
-0.0010986328125
-0.002197265625
-0.0003662109375
0.0003662109375
-0.0003662109375
0.0003662109375
-0.0029296875
0.0003662109375
0.000732421875
-0.0025634765625
0.0
-0.002197265625
-0.0018310546875
-0.000732421875
0.0
-0.0018310546875
0.0
-0.0106201171875
-0.0029296875
-0.00439453125
-0.0029296875
0.0076904296875
0.0003662109375
-0.0003662109375
0.0010986328125
-0.005859375
-0.00439453125
-0.002197265625
-0.00439453125
-0.003662109375
-0.00732421875
0.0069580078125
-0.000732421875
-0.00732421875
0.0098876953125
-0.0186767578125
0.00146484375
-0.0003662109375
-0.00146484375
0.000732421875
0.0018310546875
-0.00146484375
0.0018310546875
-0.002197265625
-0.0018310546875
0.0
-0.0029296875
0.0003662109375
-0.0018310546875
-0.0003662109375
0.0010986328125
-0.00146484375
0.0047607421875
-0.0018310546875
0.00439453125
-0.0010986328125
-0.0018310546875
0.000732421875
0.0
-0.000732421875
0.000732421875
-0.0003662109375
-0.0032958984375
0.002197265625
0.0018310546875
-0.00146484375
0.0047607421875
-0.0025634765625
0.0018310546875
-0.00146484375
0.0025634765625
-0.002197265625
0.005126953125
-0.002197265625
0.0010986328125
0.0
-0.0018310546875
0.00146484375
0.0
0.0
-0.0032958984375
0.0018310546875
-0.0003662109375
-0.0003662109375
0.002197265625
-0.000732421875
-0.0003662109375
0.00146484375
0.0010986328125
-0.0003662109375
-0.0029296875
0.003662109375
-0.00146484375
0.00439453125
0.005859375
-0.0003662109375
0.0029296875
-0.0010986328125
0.0
-0.0003662109375
0.003662109375
-0.0018310546875
0.0062255859375
-0.003662109375
0.003662109375
-0.0047607421875
0.0029296875
0.0040283203125
0.006591796875
0.0029296875
0.0047607421875
-0.0047607421875
0.0025634765625
-0.0025634765625
-0.0010986328125
-0.00146484375
-0.005859375
0.0113525390625
-0.006591796875
0.0238037109375
0.005859375
-0.015380859375
0.0047607421875
-0.02197265625
-0.0076904296875
0.01318359375
-0.012451171875
0.0208740234375
-0.005859375
0.0128173828125
-0.00146484375
0.003662109375
-0.0179443359375
0.0179443359375
-0.02197265625
0.0223388671875
-0.006591796875
0.005859375
0.0106201171875
-0.01171875
0.012451171875
-0.0113525390625
0.0146484375
-0.0128173828125
0.010986328125
-0.013916015625
0.0032958984375
-0.0069580078125
0.0010986328125
-0.005126953125
0.000732421875
-0.00439453125
0.00146484375
-0.0032958984375
-0.0018310546875
-0.00146484375
0.0025634765625
-0.0032958984375
0.0032958984375
-0.000732421875
0.000732421875
0.002197265625
0.0025634765625
-0.0018310546875
0.0025634765625
0.000732421875
0.003662109375
0.00439453125
0.0032958984375
0.000732421875
-0.0003662109375
0.0
-0.0029296875
0.005126953125
-0.003662109375
0.005126953125
-0.0032958984375
0.0040283203125
-0.002197265625
0.0087890625
0.0018310546875
0.005126953125
0.0003662109375
0.0010986328125
-0.002197265625
0.0032958984375
-0.0029296875
0.0010986328125
-0.0106201171875
0.008056640625
0.0029296875
0.00732421875
0.0040283203125
-0.0010986328125
-0.00439453125
-0.00146484375
0.0
0.0018310546875
-0.0010986328125
0.0029296875
0.0003662109375
0.002197265625
-0.0032958984375
0.0076904296875
-0.005126953125
0.0040283203125
-0.00146484375
0.0003662109375
0.0018310546875
-0.002197265625
0.0029296875
-0.0054931640625
0.0032958984375
-0.0018310546875
0.00146484375
-0.0032958984375
0.0
-0.0010986328125
-0.0018310546875
0.0010986328125
0.0010986328125
-0.0062255859375
0.0
-0.0018310546875
-0.000732421875
0.0010986328125
0.002197265625
-0.003662109375
0.000732421875
-0.0040283203125
-0.000732421875
-0.003662109375
-0.0018310546875
-0.002197265625
-0.0010986328125
-0.0025634765625
-0.0003662109375
-0.002197265625
0.0010986328125
-0.0025634765625
0.00146484375
-0.0029296875
-0.000732421875
-0.003662109375
-0.0029296875
0.0010986328125
-0.0029296875
0.0032958984375
0.0010986328125
-0.0076904296875
0.00146484375
-0.0076904296875
-0.000732421875
-0.0047607421875
0.0003662109375
-0.00732421875
-0.0076904296875
0.009521484375
0.0025634765625
-0.003662109375
0.006591796875
-0.0142822265625
-0.0032958984375
0.0025634765625
0.0018310546875
-0.0003662109375
0.0010986328125
-0.0029296875
0.000732421875
-0.0025634765625
0.0
0.0
-0.0032958984375
0.00146484375
-0.0025634765625
-0.0003662109375
0.000732421875
-0.00146484375
0.0029296875
0.0
0.003662109375
0.000732421875
-0.0010986328125
0.0025634765625
-0.002197265625
0.0018310546875
-0.0010986328125
0.0
-0.0010986328125
-0.00146484375
-0.000732421875
-0.0003662109375
-0.0003662109375
0.0018310546875
-0.0003662109375
0.0
-0.00146484375
0.0
0.000732421875
-0.00146484375
-0.0018310546875
0.0
-0.0010986328125
-0.0003662109375
0.002197265625
-0.0018310546875
0.00146484375
-0.000732421875
0.000732421875
-0.0010986328125
-0.000732421875
0.000732421875
0.0
0.000732421875
0.00146484375
-0.0003662109375
-0.0010986328125
0.002197265625
0.000732421875
0.000732421875
0.0025634765625
-0.000732421875
-0.0025634765625
0.003662109375
-0.0018310546875
0.0029296875
0.000732421875
0.000732421875
0.0
0.0003662109375
-0.0010986328125
0.000732421875
-0.000732421875
-0.008056640625
-0.002197265625
-0.000732421875
-0.000732421875
0.0120849609375
-0.0003662109375
0.0040283203125
0.0
-0.000732421875
0.00146484375
0.0010986328125
-0.0029296875
0.01025390625
-0.0084228515625
0.0223388671875
0.0032958984375
-0.0164794921875
0.010986328125
-0.0296630859375
0.0010986328125
0.0018310546875
-0.0010986328125
0.0018310546875
0.0010986328125
0.0
-0.00146484375
0.0010986328125
0.0025634765625
-0.0010986328125
0.0029296875
-0.00146484375
-0.0018310546875
-0.0018310546875
0.000732421875
-0.00146484375
0.0032958984375
0.00146484375
0.0029296875
0.003662109375
-0.00146484375
0.005859375
-0.003662109375
0.0054931640625
-0.0040283203125
0.005859375
-0.005126953125
0.0062255859375
-0.0025634765625
0.0054931640625
0.0025634765625
0.002197265625
0.00439453125
0.0018310546875
0.00439453125
0.0047607421875
0.0029296875
0.0076904296875
0.0018310546875
0.0054931640625
0.002197265625
0.0032958984375
0.0029296875
0.0010986328125
0.0003662109375
0.0025634765625
0.0
0.005126953125
-0.00146484375
-0.0003662109375
-0.0047607421875
0.0069580078125
-0.003662109375
0.016845703125
-0.000732421875
0.0084228515625
-0.0003662109375
0.0029296875
0.00146484375
0.00146484375
0.009521484375
0.0003662109375
0.0098876953125
0.0120849609375
-0.008056640625
-0.006591796875
-0.0223388671875
-0.0186767578125
-0.0146484375
-0.00439453125
-0.0029296875
-0.0087890625
0.00439453125
-0.013916015625
0.013916015625
-0.0205078125
0.012451171875
-0.0186767578125
0.0054931640625
-0.012451171875
0.010986328125
-0.015380859375
0.016845703125
-0.0179443359375
0.017578125
-0.016845703125
0.0179443359375
-0.0179443359375
0.016845703125
-0.01904296875
0.0076904296875
-0.0087890625
0.0047607421875
-0.005126953125
0.0069580078125
-0.0091552734375
0.0025634765625
-0.0047607421875
0.0
-0.002197265625
0.0040283203125
-0.00732421875
0.00439453125
-0.00732421875
-0.0025634765625
-0.000732421875
-0.0047607421875
0.0018310546875
-0.0069580078125
0.0047607421875
-0.009521484375
0.0076904296875
-0.0098876953125
0.0091552734375
-0.008056640625
0.005859375
-0.006591796875
-0.000732421875
-0.0084228515625
0.0098876953125
-0.0032958984375
0.0098876953125
0.0025634765625
-0.0003662109375
0.0010986328125
0.0
-0.0018310546875
-0.0018310546875
-0.01171875
0.016845703125
0.002197265625
0.0040283203125
0.0062255859375
-0.018310546875
-0.005859375
-0.0032958984375
-0.0025634765625
0.005859375
-0.005859375
0.0076904296875
-0.0113525390625
0.0120849609375
-0.01171875
0.01318359375
-0.00732421875
0.008056640625
-0.005859375
0.0047607421875
-0.0018310546875
0.0025634765625
0.00146484375
0.00146484375
0.002197265625
0.0018310546875
-0.000732421875
0.003662109375
-0.002197265625
0.0025634765625
-0.000732421875
0.0010986328125
-0.0003662109375
0.00146484375
-0.00146484375
0.0010986328125
-0.00146484375
0.000732421875
0.0003662109375
0.0
-0.0003662109375
0.0
-0.0003662109375
0.0003662109375
-0.000732421875
0.002197265625
-0.0010986328125
0.0018310546875
0.0
0.0
-0.0003662109375
0.000732421875
0.0003662109375
0.000732421875
-0.0032958984375
0.00439453125
-0.0069580078125
0.0069580078125
-0.003662109375
0.005126953125
-0.00146484375
0.0003662109375
-0.0003662109375
-0.005859375
-0.000732421875
0.005126953125
-0.000732421875
0.0087890625
0.0
0.00146484375
0.0
-0.000732421875
0.0010986328125
-0.003662109375
-0.0069580078125
0.01318359375
0.0029296875
0.003662109375
0.0069580078125
-0.0172119140625
-0.0040283203125
-0.0047607421875
-0.0003662109375
0.002197265625
0.0
0.0010986328125
-0.000732421875
0.0003662109375
-0.0003662109375
-0.0003662109375
-0.0032958984375
0.0040283203125
-0.01025390625
0.0098876953125
-0.0069580078125
0.00732421875
0.0025634765625
0.00146484375
0.0054931640625
0.000732421875
0.0029296875
0.0003662109375
-0.000732421875
0.0018310546875
-0.0010986328125
0.002197265625
-0.0018310546875
0.0040283203125
-0.0018310546875
0.0054931640625
0.0029296875
-0.0010986328125
0.0029296875
-0.000732421875
-0.000732421875
0.00439453125
-0.0003662109375
0.0047607421875
0.002197265625
0.00439453125
0.002197265625
0.002197265625
-0.0010986328125
0.0032958984375
0.000732421875
0.000732421875
0.0025634765625
-0.00732421875
0.0
-0.0003662109375
0.000732421875
0.0106201171875
0.0040283203125
0.003662109375
0.005126953125
-0.005859375
0.000732421875
-0.005126953125
0.0032958984375
-0.0084228515625
0.0010986328125
-0.00439453125
0.0010986328125
0.000732421875
0.0
-0.000732421875
-0.002197265625
0.0010986328125
0.0029296875
-0.00146484375
0.00146484375
-0.0010986328125
-0.0010986328125
0.0018310546875
-0.0032958984375
0.0025634765625
0.0
0.0010986328125
0.0047607421875
-0.0054931640625
0.01171875
-0.012451171875
0.0087890625
-0.0098876953125
0.0018310546875
-0.00439453125
0.002197265625
-0.0029296875
-0.0010986328125
0.0010986328125
-0.0010986328125
0.00146484375
0.000732421875
-0.0003662109375
0.000732421875
-0.002197265625
0.000732421875
-0.000732421875
-0.0003662109375
0.0
-0.000732421875
0.0
-0.0018310546875
0.0
-0.00146484375
-0.003662109375
-0.0025634765625
-0.0018310546875
-0.002197265625
-0.0025634765625
0.0062255859375
-0.013916015625
0.0106201171875
-0.010986328125
0.006591796875
-0.0018310546875
0.0040283203125
-0.002197265625
0.0040283203125
-0.0040283203125
0.0040283203125
-0.0069580078125
-0.000732421875
0.0091552734375
0.0029296875
0.006591796875
0.0018310546875
-0.0150146484375
-0.0047607421875
-0.005859375
-0.002197265625
0.005859375
-0.0029296875
0.0032958984375
-0.0062255859375
0.003662109375
-0.00732421875
0.00439453125
-0.005859375
0.0025634765625
-0.00439453125
0.0003662109375
-0.00146484375
-0.0003662109375
0.0018310546875
-0.0010986328125
0.0040283203125
-0.0010986328125
0.0047607421875
-0.0025634765625
0.0025634765625
-0.0025634765625
0.0029296875
-0.002197265625
0.0025634765625
-0.0032958984375
-0.003662109375
0.002197265625
-0.00439453125
0.0032958984375
0.0
-0.0003662109375
0.0025634765625
-0.00146484375
0.0
-0.0018310546875
-0.00439453125
0.000732421875
-0.0047607421875
0.0025634765625
-0.0018310546875
0.0010986328125
0.0003662109375
0.0
-0.0003662109375
0.0003662109375
0.0003662109375
-0.0003662109375
0.0003662109375
0.0
0.0
0.000732421875
0.0018310546875
-0.0003662109375
0.00146484375
0.0003662109375
-0.0003662109375
0.000732421875
-0.0032958984375
0.0018310546875
-0.006591796875
0.005859375
-0.0087890625
0.0087890625
-0.0062255859375
0.0069580078125
-0.0018310546875
0.0040283203125
0.0
-0.002197265625
-0.000732421875
0.0010986328125
-0.0010986328125
0.006591796875
0.0003662109375
0.0018310546875
0.0003662109375
-0.0010986328125
0.0018310546875
-0.00439453125
-0.0054931640625
0.0098876953125
0.0047607421875
-0.0032958984375
0.0087890625
-0.0157470703125
-0.0025634765625
0.0025634765625
-0.0010986328125
0.00439453125
-0.005859375
0.005126953125
-0.002197265625
0.002197265625
0.0010986328125
0.000732421875
-0.002197265625
0.0032958984375
-0.002197265625
0.0018310546875
0.0003662109375
-0.002197265625
0.0029296875
-0.003662109375
0.0047607421875
-0.0018310546875
0.0029296875
-0.000732421875
0.000732421875
0.0003662109375
-0.000732421875
0.002197265625
-0.0018310546875
0.000732421875
-0.0003662109375
-0.00146484375
0.0
0.0
0.0010986328125
0.0
0.0018310546875
0.0003662109375
0.00146484375
0.0010986328125
0.002197265625
-0.0003662109375
0.002197265625
-0.0003662109375
0.002197265625
-0.00146484375
0.000732421875
0.000732421875
-0.0025634765625
0.0025634765625
0.000732421875
0.0
0.002197265625
0.0018310546875
0.0
0.0029296875
0.0003662109375
0.0047607421875
0.0029296875
0.0054931640625
0.0032958984375
0.00146484375
0.0
-0.0003662109375
-0.002197265625
0.0003662109375
-0.005859375
0.0135498046875
0.0113525390625
0.0003662109375
0.003662109375
-0.0128173828125
-0.0087890625
-0.0010986328125
0.005126953125
-0.000732421875
0.0032958984375
0.0003662109375
0.0003662109375
0.000732421875
-0.002197265625
0.0025634765625
-0.0025634765625
0.0029296875
-0.005126953125
0.005126953125
-0.002197265625
0.0010986328125
0.0032958984375
-0.002197265625
0.0091552734375
-0.006591796875
0.0087890625
-0.010986328125
0.0010986328125
-0.0062255859375
0.0003662109375
-0.00439453125
0.0029296875
-0.0054931640625
0.0040283203125
-0.006591796875
0.00439453125
-0.0054931640625
0.006591796875
-0.0040283203125
0.0025634765625
0.0018310546875
0.000732421875
0.0010986328125
0.0018310546875
-0.0032958984375
-0.0003662109375
0.0
0.0
0.0003662109375
-0.0018310546875
0.000732421875
-0.0025634765625
0.00146484375
-0.00146484375
-0.0010986328125
-0.0040283203125
0.00439453125
-0.0032958984375
0.0047607421875
0.000732421875
-0.005859375
0.000732421875
-0.0062255859375
-0.003662109375
-0.0003662109375
-0.0040283203125
-0.00146484375
-0.0098876953125
0.0087890625
0.0029296875
-0.0029296875
0.008056640625
-0.01171875
-0.0047607421875
0.0025634765625
-0.002197265625
0.0032958984375
-0.0025634765625
0.0032958984375
-0.003662109375
0.0010986328125
-0.005859375
0.0032958984375
-0.0076904296875
0.005126953125
-0.0047607421875
0.0018310546875
0.0018310546875
-0.00146484375
0.003662109375
-0.0025634765625
0.0025634765625
-0.0018310546875
0.0010986328125
0.0
0.0
-0.0003662109375
0.0
-0.0018310546875
-0.003662109375
0.0
-0.0040283203125
0.0010986328125
-0.000732421875
0.0
-0.00146484375
-0.00146484375
-0.00146484375
-0.0032958984375
0.0
-0.0032958984375
0.0010986328125
-0.0018310546875
-0.0032958984375
0.0047607421875
-0.006591796875
0.0087890625
-0.0054931640625
0.008056640625
-0.0025634765625
0.005859375
0.0010986328125
0.00146484375
0.0
-0.0018310546875
-0.000732421875
-0.0025634765625
0.000732421875
-0.00146484375
0.000732421875
-0.0010986328125
0.0025634765625
-0.00146484375
0.0018310546875
-0.002197265625
-0.000732421875
-0.0010986328125
0.0010986328125
-0.000732421875
-0.0003662109375
0.000732421875
-0.0025634765625
0.0029296875
-0.0032958984375
-0.0025634765625
-0.005859375
0.005859375
-0.00439453125
0.0128173828125
0.0
0.002197265625
0.00146484375
-0.0018310546875
0.0003662109375
-0.002197265625
-0.0029296875
0.0032958984375
-0.0098876953125
0.017578125
0.003662109375
-0.0128173828125
0.01171875
-0.024169921875
0.000732421875
0.0029296875
0.002197265625
0.0025634765625
0.0003662109375
0.0025634765625
-0.0025634765625
0.0018310546875
0.000732421875
0.000732421875
0.002197265625
0.000732421875
0.0003662109375
-0.0003662109375
0.0010986328125
-0.0010986328125
0.005126953125
-0.0010986328125
0.0047607421875
-0.0003662109375
0.0032958984375
0.0
0.0018310546875
0.0003662109375
0.000732421875
-0.0018310546875
-0.0003662109375
-0.0025634765625
0.0
0.0
0.000732421875
-0.0003662109375
-0.00146484375
0.0
-0.0018310546875
0.0029296875
-0.005859375
0.0054931640625
-0.0098876953125
0.006591796875
-0.012451171875
0.010986328125
-0.0234375
0.024169921875
-0.021240234375
0.02490234375
-0.0076904296875
0.0098876953125
-0.00439453125
0.0098876953125
-0.002197265625
0.01611328125
0.00146484375
0.0157470703125
0.000732421875
0.015380859375
0.0010986328125
0.008056640625
0.008056640625
-0.003662109375
0.0047607421875
0.0091552734375
0.019775390625
-0.005126953125
0.0234375
-0.0296630859375
0.0047607421875
-0.0106201171875
0.005126953125
-0.003662109375
0.0018310546875
-0.0054931640625
-0.0018310546875
-0.0010986328125
0.0003662109375
-0.000732421875
0.002197265625
-0.0032958984375
0.0018310546875
-0.005859375
0.0025634765625
-0.002197265625
0.005859375
0.0
0.00439453125
-0.00146484375
0.0003662109375
-0.0010986328125
0.0010986328125
-0.0010986328125
0.000732421875
-0.0018310546875
-0.0010986328125
-0.003662109375
-0.0018310546875
-0.003662109375
0.0
-0.0029296875
0.0025634765625
-0.00439453125
0.00146484375
-0.00439453125
-0.003662109375
-0.003662109375
-0.0087890625
-0.0032958984375
-0.00732421875
-0.00439453125
-0.003662109375
-0.0054931640625
-0.0010986328125
-0.0084228515625
0.005126953125
-0.02197265625
0.0047607421875
-0.0120849609375
0.0029296875
-0.0010986328125
0.003662109375
-0.0062255859375
0.0025634765625
-0.0091552734375
0.0087890625
-0.016845703125
0.006591796875
0.0029296875
0.0157470703125
-0.008056640625
0.0076904296875
-0.0194091796875
-0.0062255859375
-0.000732421875
0.0018310546875
-0.00146484375
0.0010986328125
-0.0018310546875
0.0029296875
-0.0029296875
0.0025634765625
-0.0029296875
0.0010986328125
-0.00146484375
0.0
0.000732421875
0.00146484375
-0.0003662109375
0.0040283203125
-0.0025634765625
0.00439453125
-0.0003662109375
0.0032958984375
0.0010986328125
0.0029296875
-0.0003662109375
0.0010986328125
0.000732421875
-0.0010986328125
0.0010986328125
-0.000732421875
0.0010986328125
0.0
0.0010986328125
0.0003662109375
0.0
-0.0010986328125
0.0018310546875
-0.0010986328125
0.0010986328125
0.0003662109375
0.0
0.0
0.00146484375
-0.0003662109375
0.0010986328125
-0.0003662109375
0.0010986328125
0.0
0.000732421875
-0.0029296875
0.0018310546875
-0.0018310546875
-0.005126953125
-0.002197265625
0.0003662109375
-0.00439453125
0.013916015625
-0.0032958984375
0.0087890625
-0.0032958984375
0.0018310546875
-0.0018310546875
-0.0010986328125
-0.0018310546875
-0.0025634765625
-0.006591796875
0.008056640625
0.0025634765625
-0.006591796875
0.0062255859375
-0.01171875
-0.0018310546875
0.0062255859375
-0.0062255859375
0.0091552734375
-0.0091552734375
0.0113525390625
-0.0062255859375
0.0084228515625
-0.003662109375
0.0054931640625
-0.00146484375
0.0018310546875
0.000732421875
-0.0003662109375
0.0025634765625
-0.0010986328125
0.0047607421875
-0.00146484375
0.00439453125
-0.00146484375
0.0
0.002197265625
-0.000732421875
0.0032958984375
-0.002197265625
0.003662109375
-0.002197265625
0.0018310546875
-0.0018310546875
-0.0003662109375
-0.000732421875
-0.000732421875
0.0003662109375
-0.000732421875
-0.0003662109375
-0.000732421875
0.00146484375
-0.0010986328125
0.0018310546875
-0.00146484375
0.0018310546875
-0.0018310546875
0.0
-0.0003662109375
0.0
-0.0018310546875
0.002197265625
-0.0091552734375
0.0
0.0018310546875
0.0003662109375
0.0076904296875
0.0
0.0010986328125
-0.000732421875
0.000732421875
0.0003662109375
-0.002197265625
-0.005126953125
0.0142822265625
0.0084228515625
-0.00146484375
0.0062255859375
-0.0216064453125
-0.008056640625
-0.0032958984375
0.0
0.0018310546875
0.00146484375
0.0
0.0003662109375
0.0
-0.0010986328125
-0.0003662109375
-0.0018310546875
0.00146484375
-0.0010986328125
0.00146484375
0.0
0.0
0.0029296875
-0.00146484375
0.0040283203125
-0.000732421875
0.0003662109375
0.00146484375
-0.0018310546875
0.002197265625
-0.0018310546875
0.0025634765625
0.0003662109375
0.0
0.00146484375
-0.000732421875
0.0018310546875
-0.00146484375
0.00146484375
0.0
0.0
0.00146484375
-0.0003662109375
0.0003662109375
-0.0003662109375
0.0
0.000732421875
-0.0003662109375
-0.000732421875
0.0003662109375
-0.000732421875
0.0
0.00146484375
-0.0069580078125
-0.0010986328125
0.0010986328125
-0.002197265625
0.012451171875
-0.000732421875
0.0040283203125
-0.000732421875
-0.0018310546875
-0.000732421875
-0.000732421875
-0.0018310546875
0.0076904296875
-0.0087890625
0.017578125
0.000732421875
-0.01318359375
0.00732421875
-0.019775390625
-0.0025634765625
0.0054931640625
-0.002197265625
0.00146484375
0.0
0.0003662109375
0.0
-0.00146484375
-0.002197265625
-0.000732421875
-0.0032958984375
0.003662109375
-0.00146484375
0.0010986328125
0.00146484375
-0.0010986328125
0.0029296875
0.0003662109375
0.00146484375
0.0010986328125
0.0
0.0018310546875
-0.002197265625
0.002197265625
-0.0029296875
0.0054931640625
-0.0025634765625
0.005126953125
-0.0003662109375
0.000732421875
0.0018310546875
0.000732421875
0.0
0.0025634765625
-0.0018310546875
0.0025634765625
-0.00732421875
0.0087890625
-0.006591796875
0.0128173828125
0.000732421875
0.003662109375
0.0040283203125
-0.00439453125
0.002197265625
-0.0062255859375
0.00146484375
0.003662109375
0.00439453125
0.0047607421875
-0.0025634765625
0.0076904296875
-0.0054931640625
0.0087890625
-0.0025634765625
-0.0010986328125
-0.005859375
0.0087890625
0.0135498046875
-0.0069580078125
0.0128173828125
-0.02197265625
-0.0018310546875
-0.0062255859375
0.00439453125
-0.000732421875
0.0025634765625
0.0
-0.0029296875
0.005126953125
-0.005859375
0.0091552734375
-0.00439453125
0.00439453125
-0.0029296875
0.00146484375
-0.0010986328125
0.0029296875
-0.00146484375
0.005126953125
-0.002197265625
0.00732421875
-0.002197265625
0.0076904296875
-0.005126953125
0.0062255859375
-0.00732421875
0.0054931640625
-0.0018310546875
0.0029296875
0.0
0.0003662109375
-0.0029296875
0.0003662109375
-0.002197265625
-0.0018310546875
0.00146484375
-0.0040283203125
0.0010986328125
-0.0025634765625
-0.00146484375
-0.005126953125
0.000732421875
-0.009521484375
0.000732421875
-0.006591796875
-0.0098876953125
0.0003662109375
-0.0150146484375
0.0087890625
-0.00732421875
0.008056640625
-0.002197265625
0.000732421875
-0.0010986328125
-0.0025634765625
0.000732421875
-0.0062255859375
0.0032958984375
-0.01025390625
-0.0025634765625
-0.0003662109375
0.006591796875
-0.006591796875
0.010986328125
-0.0172119140625
0.00146484375
-0.0054931640625
0.002197265625
-0.0029296875
0.000732421875
-0.0032958984375
0.002197265625
-0.002197265625
0.0025634765625
-0.0025634765625
0.000732421875
-0.0003662109375
0.00146484375
-0.0010986328125
0.002197265625
-0.00146484375
0.0040283203125
-0.0003662109375
-0.000732421875
0.00439453125
-0.009521484375
0.0113525390625
-0.009521484375
0.01025390625
-0.003662109375
0.0054931640625
0.00146484375
0.000732421875
0.00146484375
-0.0003662109375
0.0003662109375
0.0003662109375
0.000732421875
0.000732421875
0.000732421875
0.0010986328125
0.0003662109375
0.00146484375
-0.0018310546875
0.00439453125
-0.0025634765625
0.0040283203125
-0.000732421875
0.0018310546875
0.0
0.0003662109375
-0.0003662109375
0.0018310546875
-0.0010986328125
0.0025634765625
-0.0003662109375
0.0003662109375
0.00146484375
0.0
0.000732421875
-0.0003662109375
0.0
-0.0003662109375
0.002197265625
-0.000732421875
0.0010986328125
0.0003662109375
0.0
0.0
0.0003662109375
-0.00146484375
-0.000732421875
0.0003662109375
0.0003662109375
-0.0047607421875
0.0003662109375
0.0
0.00146484375
0.0047607421875
0.002197265625
-0.0003662109375
0.000732421875
-0.00146484375
0.0003662109375
-0.0040283203125
-0.006591796875
0.0106201171875
0.000732421875
-0.0018310546875
0.00732421875
-0.0172119140625
0.0003662109375
-0.002197265625
0.0
0.0003662109375
0.0
0.000732421875
0.0
0.000732421875
0.000732421875
-0.002197265625
0.0003662109375
-0.0010986328125
-0.000732421875
0.00146484375
-0.000732421875
0.00146484375
0.000732421875
0.00146484375
0.00439453125
-0.0003662109375
0.002197265625
-0.0003662109375
0.0003662109375
-0.0010986328125
0.0003662109375
-0.000732421875
-0.000732421875
0.0
-0.00146484375
-0.0010986328125
-0.00146484375
-0.0003662109375
0.000732421875
-0.0018310546875
0.0018310546875
-0.00146484375
0.002197265625
-0.0010986328125
0.0010986328125
-0.0003662109375
0.000732421875
0.0
0.0003662109375
-0.0003662109375
0.002197265625
-0.0010986328125
0.0025634765625
-0.002197265625
0.002197265625
-0.0018310546875
0.00146484375
-0.0010986328125
-0.0003662109375
0.0018310546875
0.00439453125
0.00439453125
0.005859375
0.000732421875
0.006591796875
-0.0047607421875
0.0054931640625
-0.0047607421875
0.0029296875
-0.006591796875
-0.0032958984375
0.000732421875
0.0003662109375
0.0029296875
0.0047607421875
-0.002197265625
-0.0010986328125
0.002197265625
0.000732421875
0.002197265625
-0.00146484375
0.00146484375
-0.003662109375
0.00439453125
-0.0025634765625
0.0047607421875
-0.0032958984375
0.0029296875
-0.0029296875
0.00146484375
0.0010986328125
0.0
0.0062255859375
-0.0032958984375
0.00439453125
-0.002197265625
0.0010986328125
-0.000732421875
0.0
-0.0018310546875
0.0010986328125
-0.002197265625
0.0018310546875
-0.0040283203125
0.00146484375
-0.00439453125
0.0032958984375
-0.00439453125
0.0
-0.000732421875
-0.000732421875
-0.0040283203125
0.0003662109375
-0.0054931640625
0.0
0.0003662109375
0.0003662109375
-0.0010986328125
-0.002197265625
-0.00146484375
-0.0025634765625
0.0003662109375
-0.003662109375
0.0032958984375
-0.0047607421875
0.000732421875
-0.0062255859375
0.0069580078125
-0.00439453125
0.0091552734375
-0.0003662109375
-0.00439453125
-0.0003662109375
-0.006591796875
-0.000732421875
-0.0040283203125
-0.0018310546875
-0.003662109375
-0.0069580078125
0.0062255859375
0.0032958984375
-0.00732421875
0.009521484375
-0.016845703125
0.0010986328125
-0.0025634765625
0.0069580078125
-0.00732421875
0.00732421875
-0.00732421875
0.00146484375
-0.00439453125
0.00146484375
-0.0047607421875
0.00439453125
-0.0040283203125
0.0084228515625
-0.0084228515625
0.00146484375
0.0
-0.003662109375
0.0069580078125
-0.0003662109375
0.0029296875
-0.0025634765625
0.0032958984375
-0.0018310546875
0.00146484375
0.000732421875
-0.00146484375
0.000732421875
-0.0010986328125
0.0032958984375
-0.00146484375
0.00732421875
-0.005126953125
0.0054931640625
-0.0029296875
0.0018310546875
0.0
0.0003662109375
0.0003662109375
0.0
0.002197265625
0.0003662109375
0.002197265625
-0.0003662109375
0.00146484375
-0.0003662109375
0.000732421875
0.0
0.0003662109375
-0.0003662109375
-0.0018310546875
0.0
-0.003662109375
-0.0010986328125
-0.000732421875
0.0
0.0
0.0010986328125
0.0003662109375
0.0003662109375
0.000732421875
-0.000732421875
0.00146484375
-0.0018310546875
0.0018310546875
-0.000732421875
0.0
-0.0003662109375
0.0
-0.00146484375
0.00146484375
-0.0018310546875
0.002197265625
-0.002197265625
-0.003662109375
-0.003662109375
0.005859375
-0.0003662109375
0.008056640625
0.000732421875
0.000732421875
-0.0003662109375
0.000732421875
0.0
-0.0025634765625
-0.005859375
0.01318359375
0.0018310546875
-0.0010986328125
0.00439453125
-0.0157470703125
-0.0029296875
0.0010986328125
-0.00146484375
0.0047607421875
-0.0025634765625
0.0047607421875
-0.0029296875
0.0032958984375
-0.00146484375
0.002197265625
-0.0025634765625
0.0018310546875
-0.0025634765625
0.0025634765625
0.0003662109375
0.0018310546875
0.0025634765625
-0.000732421875
0.00439453125
-0.000732421875
0.0003662109375
0.0018310546875
-0.002197265625
0.0025634765625
-0.002197265625
0.0018310546875
-0.0029296875
0.00146484375
0.0003662109375
0.0
0.000732421875
-0.0003662109375
0.0
-0.0018310546875
-0.00146484375
-0.0003662109375
-0.0029296875
0.00146484375
-0.002197265625
0.0029296875
-0.000732421875
0.0010986328125
-0.0003662109375
-0.00146484375
0.0010986328125
-0.000732421875
0.003662109375
-0.0018310546875
-0.000732421875
0.0
-0.0018310546875
-0.0054931640625
-0.0032958984375
-0.002197265625
-0.00439453125
0.0120849609375
0.0003662109375
0.0098876953125
-0.0003662109375
0.0040283203125
-0.0025634765625
0.0025634765625
-0.0010986328125
-0.0010986328125
-0.00439453125
0.000732421875
0.002197265625
-0.0003662109375
0.0029296875
-0.003662109375
-0.003662109375
-0.00146484375
0.00732421875
-0.006591796875
0.0091552734375
-0.0091552734375
0.000732421875
-0.0018310546875
-0.0010986328125
0.0003662109375
-0.0029296875
0.00146484375
-0.0018310546875
0.0032958984375
0.000732421875
0.0
0.003662109375
-0.0025634765625
0.0047607421875
-0.0025634765625
0.0018310546875
0.0
-0.0003662109375
0.00146484375
-0.0029296875
0.00146484375
-0.0010986328125
0.00146484375
0.000732421875
0.0
0.0
-0.0010986328125
-0.000732421875
-0.0003662109375
0.0
0.000732421875
0.0029296875
-0.000732421875
0.0032958984375
-0.0025634765625
0.00146484375
-0.002197265625
0.0003662109375
0.0010986328125
-0.005859375
0.0062255859375
-0.0098876953125
0.005859375
-0.003662109375
-0.0010986328125
-0.0010986328125
0.003662109375
0.000732421875
0.00439453125
0.0025634765625
-0.0025634765625
-0.0003662109375
-0.00146484375
0.0003662109375
-0.003662109375
-0.0076904296875
0.0113525390625
0.0091552734375
-0.0032958984375
0.017578125
-0.02490234375
0.002197265625
-0.009521484375
0.000732421875
0.0003662109375
-0.0003662109375
0.000732421875
0.0
-0.0040283203125
-0.0029296875
-0.002197265625
-0.0018310546875
-0.0029296875
-0.0003662109375
-0.0062255859375
0.0010986328125
-0.0062255859375
0.0029296875
-0.0054931640625
0.003662109375
-0.0040283203125
0.0025634765625
-0.0029296875
0.0003662109375
-0.000732421875
0.00146484375
-0.0010986328125
0.00439453125
-0.0025634765625
0.0018310546875
-0.0025634765625
-0.0025634765625
-0.0029296875
-0.0029296875
0.0
-0.002197265625
0.0010986328125
-0.0029296875
0.0003662109375
0.0
0.0
0.003662109375
-0.0003662109375
-0.00146484375
0.0
-0.006591796875
0.0
-0.0062255859375
0.0
-0.005126953125
0.0003662109375
-0.0040283203125
0.00146484375
-0.002197265625
0.00146484375
-0.0018310546875
-0.0062255859375
-0.0040283203125
0.0054931640625
-0.0040283203125
0.013916015625
-0.0010986328125
0.00439453125
-0.0025634765625
0.000732421875
-0.003662109375
-0.000732421875
-0.006591796875
0.018310546875
0.005126953125
0.0054931640625
0.00439453125
-0.0164794921875
-0.00732421875
-0.00146484375
-0.0040283203125
0.006591796875
-0.005859375
0.0069580078125
-0.0062255859375
0.0069580078125
-0.0069580078125
0.0076904296875
-0.005859375
0.0084228515625
-0.0032958984375
0.006591796875
0.0
0.0047607421875
0.00439453125
0.0010986328125
0.00439453125
0.00146484375
0.0018310546875
0.003662109375
-0.0010986328125
0.0025634765625
-0.000732421875
0.0018310546875
0.00146484375
0.00146484375
0.000732421875
0.0010986328125
0.000732421875
0.0010986328125
-0.0010986328125
0.0032958984375
-0.0018310546875
0.0047607421875
0.0
0.0040283203125
0.0003662109375
0.0047607421875
-0.00146484375
0.0062255859375
0.0018310546875
0.0025634765625
0.0032958984375
0.0010986328125
0.0003662109375
0.002197265625
0.00439453125
-0.006591796875
0.00439453125
-0.0040283203125
0.002197265625
0.0076904296875
0.0032958984375
0.0032958984375
0.0025634765625
-0.000732421875
0.002197265625
-0.003662109375
0.0
-0.0032958984375
-0.0010986328125
0.009521484375
0.0040283203125
-0.00146484375
0.0062255859375
-0.0098876953125
0.0025634765625
0.000732421875
0.0
0.0
-0.000732421875
0.00146484375
-0.0032958984375
0.0040283203125
-0.003662109375
0.002197265625
-0.000732421875
0.0
0.0003662109375
-0.0010986328125
0.0010986328125
-0.00146484375
0.0018310546875
0.0010986328125
0.0069580078125
-0.00732421875
0.0098876953125
-0.01025390625
0.00439453125
-0.002197265625
0.0003662109375
-0.0010986328125
0.0003662109375
-0.0003662109375
0.0
-0.00146484375
0.0025634765625
-0.0040283203125
0.00146484375
-0.0018310546875
0.0
0.000732421875
-0.0010986328125
0.0010986328125
-0.0032958984375
-0.00146484375
-0.0091552734375
0.0040283203125
-0.010986328125
0.008056640625
-0.002197265625
-0.0018310546875
0.0018310546875
-0.01025390625
0.000732421875
0.0010986328125
0.0010986328125
0.0047607421875
0.00439453125
-0.002197265625
0.0047607421875
0.0
0.00439453125
-0.0025634765625
-0.0032958984375
0.015380859375
0.0084228515625
-0.00146484375
0.00439453125
-0.0194091796875
-0.0091552734375
-0.000732421875
0.0018310546875
0.0018310546875
0.000732421875
0.0029296875
-0.0010986328125
0.0
-0.00146484375
-0.0010986328125
-0.0029296875
0.00146484375
-0.0029296875
0.0010986328125
0.0010986328125
-0.0018310546875
0.0098876953125
-0.0029296875
0.009521484375
-0.0010986328125
0.0003662109375
0.000732421875
-0.0025634765625
0.0010986328125
0.0
-0.000732421875
0.000732421875
-0.00146484375
0.0
-0.0018310546875
0.0
-0.003662109375
-0.0003662109375
-0.003662109375
0.0018310546875
-0.0047607421875
-0.0010986328125
-0.0032958984375
-0.0047607421875
-0.0029296875
-0.0029296875
-0.0025634765625
-0.0010986328125
0.0
0.0003662109375
-0.00146484375
-0.000732421875
0.0
-0.0010986328125
0.00146484375
-0.00146484375
0.0003662109375
-0.002197265625
0.0
-0.000732421875
-0.0003662109375
-0.002197265625
0.0
-0.0032958984375
0.000732421875
-0.0029296875
0.0010986328125
-0.0040283203125
0.000732421875
-0.0029296875
0.0010986328125
0.0025634765625
-0.0003662109375
0.00439453125
-0.00146484375
-0.000732421875
-0.0003662109375
-0.0047607421875
0.00146484375
-0.003662109375
0.0025634765625
0.0010986328125
-0.0032958984375
0.0003662109375
-0.0029296875
-0.000732421875
0.0003662109375
0.0010986328125
0.0
-0.00732421875
0.0150146484375
0.0
-0.0062255859375
0.00439453125
-0.015380859375
-0.0054931640625
0.005859375
-0.006591796875
0.00439453125
-0.0054931640625
0.0040283203125
0.0
0.0018310546875
0.0010986328125
0.00146484375
-0.0025634765625
0.000732421875
-0.003662109375
0.000732421875
0.0003662109375
-0.0003662109375
0.0047607421875
-0.000732421875
0.005859375
0.0
0.0003662109375
0.00146484375
-0.0018310546875
0.0010986328125
-0.0010986328125
0.000732421875
-0.0032958984375
0.0003662109375
-0.0032958984375
0.000732421875
-0.0010986328125
0.0010986328125
0.0029296875
-0.002197265625
0.0032958984375
-0.0010986328125
0.0010986328125
0.0018310546875
0.0
0.0003662109375
0.000732421875
-0.000732421875
0.0018310546875
-0.0003662109375
0.000732421875
0.0
0.0010986328125
-0.0010986328125
0.00146484375
-0.0003662109375
0.0029296875
-0.0003662109375
0.0018310546875
-0.000732421875
0.0003662109375
-0.002197265625
-0.0018310546875
0.00439453125
-0.0010986328125
0.0069580078125
0.005126953125
-0.005126953125
0.003662109375
-0.0047607421875
0.000732421875
0.0
-0.0025634765625
0.0062255859375
-0.0025634765625
0.017578125
-0.0010986328125
-0.0062255859375
-0.0029296875
-0.012451171875
-0.0018310546875
0.003662109375
-0.0018310546875
0.0025634765625
-0.000732421875
0.0029296875
-0.002197265625
0.0010986328125
-0.0032958984375
0.003662109375
-0.0018310546875
0.0032958984375
0.0
0.0
0.00439453125
-0.003662109375
0.0047607421875
-0.0018310546875
0.0047607421875
-0.000732421875
0.002197265625
-0.0003662109375
-0.0018310546875
0.0040283203125
-0.0010986328125
0.000732421875
0.0032958984375
-0.00439453125
0.0040283203125
-0.00146484375
0.0010986328125
0.0010986328125
0.000732421875
0.0003662109375
0.0018310546875
-0.0003662109375
0.0029296875
-0.00146484375
0.0025634765625
-0.0018310546875
0.0018310546875
-0.000732421875
0.0010986328125
0.0
0.00146484375
0.0
0.0
-0.0010986328125
-0.000732421875
-0.00146484375
0.0
0.0
-0.00146484375
-0.0010986328125
-0.0003662109375
0.0
0.0010986328125
0.0018310546875
0.0025634765625
-0.00146484375
0.0025634765625
-0.003662109375
0.0018310546875
-0.003662109375
-0.006591796875
0.01171875
0.0047607421875
0.0018310546875
0.0062255859375
-0.0128173828125
-0.0076904296875
0.00146484375
-0.0003662109375
0.0047607421875
-0.0018310546875
0.00439453125
-0.0029296875
0.0029296875
-0.002197265625
0.0018310546875
-0.002197265625
0.00146484375
0.0010986328125
-0.002197265625
0.0029296875
-0.0025634765625
0.005126953125
-0.002197265625
0.0047607421875
-0.0010986328125
0.0003662109375
0.0010986328125
-0.0010986328125
0.0
0.0
-0.0010986328125
0.0003662109375
-0.002197265625
0.0
-0.002197265625
-0.0003662109375
-0.00146484375
-0.0003662109375
0.0
0.0018310546875
-0.0003662109375
0.0010986328125
-0.00146484375
-0.0018310546875
-0.000732421875
-0.0010986328125
-0.00146484375
-0.0003662109375
-0.0040283203125
0.0010986328125
-0.0047607421875
0.0029296875
-0.0029296875
0.0018310546875
-0.0010986328125
-0.0003662109375
0.0
0.00146484375
-0.00146484375
0.000732421875
0.0
0.0003662109375
0.0
0.002197265625
-0.0010986328125
-0.0003662109375
0.0
-0.0003662109375
-0.0010986328125
0.0
-0.000732421875
-0.0003662109375
0.0003662109375
0.0
0.0
0.0
-0.000732421875
-0.00146484375
-0.000732421875
0.00146484375
-0.0091552734375
0.0
0.0003662109375
-0.00146484375
0.01171875
0.00146484375
0.0025634765625
0.0
0.0
0.0003662109375
-0.0010986328125
-0.0054931640625
0.0146484375
0.00439453125
0.0069580078125
0.0054931640625
-0.0194091796875
-0.006591796875
-0.0087890625
-0.0040283203125
0.0029296875
-0.0040283203125
0.0010986328125
-0.0029296875
-0.0003662109375
-0.000732421875
0.0003662109375
-0.0003662109375
0.00146484375
-0.0018310546875
0.0
-0.0010986328125
-0.000732421875
0.00146484375
-0.00146484375
0.003662109375
-0.0018310546875
0.0025634765625
-0.000732421875
-0.0010986328125
-0.0003662109375
-0.000732421875
-0.000732421875
0.00146484375
-0.000732421875
0.0010986328125
-0.000732421875
0.0003662109375
-0.00146484375
0.0003662109375
-0.000732421875
0.00146484375
0.0003662109375
-0.0003662109375
0.0025634765625
-0.0010986328125
0.0018310546875
-0.0003662109375
0.00146484375
-0.0029296875
0.00439453125
-0.0029296875
0.0032958984375
-0.000732421875
0.0018310546875
-0.000732421875
0.0003662109375
-0.0025634765625
0.00439453125
-0.00146484375
0.0054931640625
-0.00146484375
-0.0040283203125
-0.0047607421875
0.002197265625
-0.005859375
0.015380859375
-0.0032958984375
0.0084228515625
-0.0029296875
-0.0003662109375
-0.005126953125
0.0010986328125
-0.0054931640625
0.002197265625
-0.006591796875
0.0106201171875
-0.000732421875
-0.0018310546875
0.0003662109375
-0.008056640625
-0.002197265625
0.005859375
0.0
0.002197265625
0.0010986328125
-0.000732421875
0.0029296875
0.000732421875
0.0003662109375
0.0029296875
-0.000732421875
0.002197265625
-0.0003662109375
0.0018310546875
-0.0003662109375
0.0010986328125
0.0040283203125
-0.0003662109375
0.0040283203125
-0.0010986328125
0.0
-0.000732421875
-0.002197265625
0.0025634765625
0.0
0.0025634765625
0.0018310546875
0.0
0.0010986328125
-0.0018310546875
0.00146484375
-0.0029296875
0.000732421875
-0.002197265625
0.0003662109375
0.000732421875
0.0010986328125
0.000732421875
0.0010986328125
-0.00146484375
0.0003662109375
-0.000732421875
0.002197265625
-0.002197265625
0.0010986328125
-0.0025634765625
0.000732421875
-0.005859375
0.0003662109375
-0.0032958984375
0.0
0.005126953125
0.0032958984375
0.0018310546875
0.00146484375
-0.00146484375
0.000732421875
-0.0032958984375
0.0018310546875
-0.005859375
-0.005859375
0.0069580078125
0.0062255859375
-0.002197265625
0.0098876953125
-0.0150146484375
-0.0032958984375
-0.000732421875
-0.000732421875
0.003662109375
0.0010986328125
0.002197265625
0.000732421875
0.000732421875
-0.0010986328125
0.0003662109375
-0.0010986328125
0.0003662109375
0.0003662109375
-0.0025634765625
0.0025634765625
-0.0029296875
0.0047607421875
-0.002197265625
0.0040283203125
-0.0018310546875
0.0003662109375
0.000732421875
-0.000732421875
-0.000732421875
0.0
-0.00146484375
0.000732421875
-0.0018310546875
0.00146484375
-0.0032958984375
0.000732421875
-0.0018310546875
0.0003662109375
-0.0003662109375
0.0003662109375
-0.0029296875
0.0003662109375
-0.0029296875
-0.0003662109375
0.0
-0.0003662109375
-0.00146484375
-0.0010986328125
-0.00146484375
-0.000732421875
-0.00146484375
0.000732421875
-0.00146484375
0.0003662109375
-0.00146484375
0.0003662109375
-0.00146484375
0.0
-0.0003662109375
0.000732421875
-0.0010986328125
0.0003662109375
-0.003662109375
0.0003662109375
-0.0040283203125
-0.0010986328125
0.005859375
-0.0003662109375
0.00732421875
-0.0003662109375
0.0010986328125
-0.0032958984375
0.0010986328125
-0.0010986328125
-0.00146484375
-0.009521484375
0.0113525390625
-0.000732421875
-0.00146484375
0.005859375
-0.0120849609375
-0.003662109375
0.0029296875
-0.0003662109375
0.002197265625
0.0003662109375
0.002197265625
0.000732421875
0.0003662109375
-0.000732421875
0.0
-0.00146484375
0.000732421875
-0.00146484375
0.0
0.0003662109375
-0.00146484375
0.0040283203125
-0.0018310546875
0.0040283203125
-0.0010986328125
0.00146484375
0.000732421875
-0.000732421875
0.0010986328125
-0.002197265625
0.000732421875
-0.0025634765625
0.000732421875
-0.0010986328125
-0.0003662109375
-0.0003662109375
-0.0003662109375
-0.000732421875
0.0010986328125
0.0003662109375
0.000732421875
0.00146484375
-0.000732421875
0.0025634765625
-0.0029296875
0.00146484375
-0.002197265625
0.0010986328125
-0.000732421875
0.0025634765625
-0.000732421875
0.00146484375
-0.0003662109375
0.0003662109375
0.0
0.000732421875
0.0003662109375
0.0
0.0003662109375
-0.0025634765625
0.000732421875
-0.0025634765625
0.0010986328125
-0.0010986328125
0.0003662109375
0.0010986328125
-0.0010986328125
0.00146484375
-0.000732421875
0.0010986328125
0.000732421875
-0.0003662109375
0.002197265625
-0.00146484375
0.0018310546875
-0.000732421875
0.0
-0.002197265625
0.0062255859375
0.000732421875
0.0040283203125
0.0025634765625
-0.003662109375
-0.0003662109375
-0.0010986328125
-0.0018310546875
0.00146484375
-0.0025634765625
0.0087890625
-0.00146484375
0.0172119140625
0.0
-0.0087890625
-0.000732421875
-0.0142822265625
-0.000732421875
0.0069580078125
-0.0003662109375
0.003662109375
-0.00146484375
0.000732421875
-0.0018310546875
0.00146484375
-0.002197265625
0.0040283203125
-0.0025634765625
0.0029296875
-0.002197265625
0.0018310546875
0.0010986328125
0.0003662109375
0.0069580078125
-0.0032958984375
0.003662109375
-0.000732421875
0.0
0.002197265625
0.0003662109375
0.00146484375
-0.00146484375
0.0025634765625
0.00146484375
0.0010986328125
0.00146484375
0.0
-0.0010986328125
0.0003662109375
-0.000732421875
0.0010986328125
-0.000732421875
0.0010986328125
-0.002197265625
0.00146484375
-0.0025634765625
0.00146484375
-0.0032958984375
0.0010986328125
-0.0040283203125
0.0029296875
-0.00146484375
0.00146484375
0.0
-0.00146484375
0.000732421875
-0.002197265625
0.000732421875
-0.003662109375
-0.0010986328125
-0.0003662109375
0.000732421875
0.0029296875
0.0032958984375
-0.002197265625
0.0018310546875
-0.0054931640625
0.0010986328125
-0.003662109375
-0.0047607421875
0.0142822265625
0.0135498046875
-0.009521484375
0.0098876953125
-0.02490234375
-0.01025390625
0.0018310546875
-0.00146484375
0.003662109375
-0.0010986328125
0.0029296875
0.0003662109375
0.0003662109375
0.000732421875
-0.000732421875
-0.0010986328125
0.0003662109375
-0.0040283203125
0.002197265625
-0.0032958984375
0.0010986328125
0.0029296875
-0.002197265625
0.00439453125
-0.0029296875
0.0029296875
-0.0032958984375
0.000732421875
-0.0025634765625
0.0
-0.0025634765625
0.00146484375
-0.002197265625
0.000732421875
-0.0003662109375
0.0003662109375
0.0
-0.0003662109375
0.000732421875
-0.0010986328125
0.0003662109375
-0.0003662109375
-0.002197265625
0.0
-0.0025634765625
0.000732421875
-0.0010986328125
0.0003662109375
0.0
0.0
-0.0003662109375
0.0
0.0
0.0003662109375
-0.000732421875
0.0010986328125
-0.0025634765625
0.0018310546875
-0.0029296875
0.002197265625
-0.0029296875
0.0010986328125
-0.0018310546875
0.0003662109375
-0.0018310546875
0.0
-0.0003662109375
0.0
-0.0003662109375
-0.0003662109375
-0.000732421875
0.000732421875
-0.0003662109375
0.0
0.000732421875
-0.0010986328125
0.00146484375
0.0
0.0
-0.000732421875
0.0003662109375
-0.000732421875
0.0003662109375
-0.000732421875
-0.0032958984375
-0.00146484375
-0.005126953125
-0.000732421875
-0.009521484375
-0.0003662109375
0.0003662109375
0.0018310546875
0.005859375
0.002197265625
0.0003662109375
-0.0003662109375
0.0018310546875
-0.0003662109375
-0.0010986328125
-0.005859375
0.0135498046875
0.0029296875
0.002197265625
0.006591796875
-0.0208740234375
-0.0010986328125
-0.0091552734375
0.000732421875
0.000732421875
-0.0010986328125
0.0018310546875
-0.00146484375
0.0025634765625
-0.0010986328125
0.00146484375
-0.0029296875
0.00146484375
-0.003662109375
0.0018310546875
-0.0010986328125
0.0003662109375
0.0025634765625
-0.000732421875
0.0047607421875
-0.0010986328125
0.0025634765625
0.0003662109375
0.0
0.0010986328125
-0.000732421875
0.0003662109375
0.0
-0.0010986328125
0.0003662109375
-0.000732421875
0.000732421875
-0.0003662109375
0.0003662109375
0.0
-0.000732421875
0.0018310546875
0.0
0.00146484375
-0.00146484375
0.00146484375
-0.0010986328125
0.0010986328125
0.0
0.00146484375
-0.00146484375
0.0032958984375
-0.002197265625
0.0025634765625
0.0
0.0
0.0003662109375
0.0029296875
-0.002197265625
0.005859375
-0.0032958984375
0.0040283203125
-0.0018310546875
0.0003662109375
-0.00146484375
0.0029296875
-0.0047607421875
0.012451171875
-0.00146484375
0.0087890625
-0.00146484375
0.003662109375
-0.0029296875
0.00146484375
0.0025634765625
-0.0047607421875
-0.0029296875
-0.0018310546875
0.0040283203125
0.0025634765625
0.005859375
-0.0010986328125
-0.0025634765625
-0.0003662109375
0.0018310546875
0.0018310546875
0.0018310546875
-0.000732421875
0.0
0.0003662109375
-0.0018310546875
0.0032958984375
-0.000732421875
0.0029296875
0.0003662109375
-0.0029296875
0.0018310546875
-0.003662109375
0.005126953125
-0.00146484375
0.0062255859375
-0.002197265625
0.0025634765625
-0.0003662109375
-0.0018310546875
0.0003662109375
-0.002197265625
0.002197265625
-0.0010986328125
0.002197265625
0.0
0.0
-0.0003662109375
0.00146484375
-0.0010986328125
0.000732421875
-0.0010986328125
0.0018310546875
-0.002197265625
0.003662109375
-0.0010986328125
0.000732421875
0.0
-0.0003662109375
0.0
0.0003662109375
0.00146484375
-0.000732421875
0.0029296875
-0.0029296875
0.0025634765625
-0.0091552734375
0.0
-0.002197265625
0.0010986328125
0.0084228515625
0.0029296875
0.000732421875
0.0010986328125
-0.00439453125
0.0003662109375
-0.002197265625
-0.0018310546875
0.005126953125
-0.0069580078125
0.016845703125
0.002197265625
-0.0106201171875
0.005859375
-0.0194091796875
-0.0025634765625
0.00439453125
-0.003662109375
0.005859375
-0.0032958984375
0.0054931640625
-0.0018310546875
0.00146484375
-0.00146484375
0.000732421875
-0.0018310546875
-0.0010986328125
-0.0010986328125
-0.0032958984375
0.0025634765625
-0.0032958984375
0.005126953125
-0.0029296875
0.0025634765625
-0.0010986328125
0.0003662109375
-0.002197265625
0.000732421875
-0.0047607421875
0.0029296875
-0.0069580078125
0.0029296875
-0.005126953125
0.0003662109375
-0.0025634765625
-0.0003662109375
-0.0018310546875
-0.00146484375
-0.0003662109375
-0.000732421875
-0.00146484375
0.0010986328125
-0.002197265625
0.0010986328125
-0.0018310546875
0.000732421875
-0.0018310546875
0.000732421875
-0.0018310546875
-0.00146484375
0.0
-0.0010986328125
0.0018310546875
0.0003662109375
0.00146484375
-0.0010986328125
0.000732421875
-0.0010986328125
-0.0010986328125
0.0018310546875
-0.0091552734375
0.0
0.0029296875
-0.000732421875
0.0091552734375
0.0003662109375
0.0010986328125
-0.002197265625
0.002197265625
-0.0010986328125
-0.0003662109375
-0.006591796875
0.017578125
0.0069580078125
0.00146484375
0.0076904296875
-0.0216064453125
-0.0069580078125
-0.0040283203125
-0.000732421875
0.0025634765625
-0.0003662109375
0.0010986328125
-0.000732421875
0.0
-0.0010986328125
0.0
-0.00146484375
-0.0003662109375
-0.0010986328125
-0.0010986328125
0.0
-0.0003662109375
0.0025634765625
-0.0010986328125
0.003662109375
-0.00146484375
0.00146484375
0.000732421875
-0.00146484375
0.00146484375
-0.002197265625
0.0010986328125
-0.0003662109375
0.0
-0.0003662109375
-0.0003662109375
-0.0003662109375
-0.000732421875
-0.000732421875
0.0
-0.0010986328125
0.0010986328125
-0.000732421875
0.0010986328125
-0.0003662109375
0.0003662109375
-0.000732421875
0.0003662109375
-0.00146484375
0.00146484375
-0.0003662109375
-0.0003662109375
0.0003662109375
0.0
0.0003662109375
0.0010986328125
0.000732421875
0.0
0.000732421875
0.0
-0.0010986328125
-0.0029296875
-0.000732421875
-0.00439453125
-0.0010986328125
0.0087890625
-0.000732421875
0.0087890625
0.000732421875
-0.00146484375
-0.0010986328125
0.00146484375
-0.0010986328125
-0.002197265625
-0.009521484375
0.0069580078125
0.00146484375
0.0040283203125
0.005859375
-0.0069580078125
-0.005859375
0.0032958984375
-0.002197265625
0.006591796875
-0.0029296875
0.0062255859375
-0.0040283203125
0.005859375
-0.0029296875
0.0040283203125
0.0010986328125
0.000732421875
0.0
0.000732421875
0.0003662109375
0.00146484375
0.00439453125
-0.000732421875
0.0047607421875
-0.000732421875
0.002197265625
0.0018310546875
-0.002197265625
0.005126953125
-0.002197265625
0.0029296875
-0.00146484375
0.000732421875
-0.0018310546875
0.0029296875
-0.0029296875
0.003662109375
0.000732421875
0.0
0.005126953125
-0.005126953125
0.0003662109375
-0.000732421875
0.0003662109375
0.0003662109375
0.0025634765625
-0.00439453125
0.0018310546875
-0.0040283203125
0.0
-0.0062255859375
-0.002197265625
0.0
-0.0032958984375
0.01318359375
-0.0003662109375
0.0069580078125
0.0010986328125
-0.0025634765625
-0.0010986328125
-0.0018310546875
-0.0003662109375
-0.0029296875
-0.0062255859375
0.0018310546875
-0.0010986328125
0.0029296875
0.002197265625
0.000732421875
-0.0032958984375
0.0025634765625
0.0
-0.0003662109375
0.000732421875
-0.002197265625
0.000732421875
-0.0018310546875
-0.00146484375
0.0
-0.0032958984375
0.000732421875
0.0
-0.0018310546875
0.0032958984375
-0.00439453125
0.006591796875
-0.006591796875
0.0069580078125
-0.00439453125
0.0040283203125
-0.0025634765625
0.00146484375
-0.0025634765625
-0.0003662109375
-0.0029296875
0.00146484375
-0.003662109375
0.0029296875
-0.003662109375
0.0029296875
-0.003662109375
0.0025634765625
-0.0032958984375
0.0018310546875
-0.0018310546875
0.0
-0.0003662109375
-0.0003662109375
-0.0003662109375
0.0
-0.0010986328125
0.000732421875
-0.0025634765625
0.000732421875
-0.00146484375
0.000732421875
-0.00146484375
0.0003662109375
-0.0018310546875
-0.00146484375
0.0
0.000732421875
-0.0084228515625
-0.000732421875
0.0010986328125
0.0
0.0087890625
0.00146484375
0.0029296875
0.0
0.0003662109375
0.000732421875
-0.003662109375
-0.005859375
0.016845703125
0.006591796875
0.002197265625
0.005126953125
-0.0205078125
-0.00732421875
-0.003662109375
-0.0003662109375
0.0029296875
-0.00146484375
0.002197265625
-0.0018310546875
0.002197265625
-0.00146484375
0.0010986328125
-0.0018310546875
0.0003662109375
-0.0010986328125
0.0
0.0018310546875
-0.0010986328125
0.0029296875
-0.0010986328125
0.0032958984375
-0.000732421875
0.0018310546875
0.000732421875
-0.0003662109375
0.00146484375
-0.0010986328125
0.000732421875
-0.000732421875
-0.000732421875
-0.0003662109375
-0.0010986328125
-0.0018310546875
0.0029296875
-0.00146484375
0.003662109375
-0.00146484375
0.0032958984375
-0.000732421875
0.0018310546875
0.0003662109375
0.000732421875
-0.0003662109375
0.0010986328125
-0.0018310546875
0.002197265625
-0.00146484375
0.002197265625
0.0
0.000732421875
-0.0010986328125
0.00146484375
-0.00146484375
0.0
-0.00146484375
0.0
-0.000732421875
0.0003662109375
0.0
-0.0003662109375
0.0018310546875
-0.0069580078125
0.0003662109375
0.0025634765625
-0.0010986328125
0.0087890625
-0.0003662109375
0.000732421875
-0.0025634765625
0.0025634765625
-0.00146484375
0.0
-0.01025390625
0.013916015625
0.003662109375
0.0010986328125
0.009521484375
-0.01904296875
-0.0040283203125
-0.00439453125
0.0018310546875
0.0
0.0003662109375
0.000732421875
-0.0003662109375
0.0010986328125
-0.000732421875
0.0010986328125
-0.002197265625
0.0029296875
-0.00146484375
0.0025634765625
0.0010986328125
-0.0010986328125
0.005859375
-0.0032958984375
0.0069580078125
-0.003662109375
0.002197265625
-0.0025634765625
-0.000732421875
0.0010986328125
-0.0003662109375
0.000732421875
-0.000732421875
0.0003662109375
0.0003662109375
-0.0003662109375
-0.000732421875
0.000732421875
-0.0010986328125
0.0018310546875
0.0003662109375
0.0010986328125
-0.0010986328125
0.0040283203125
-0.002197265625
0.003662109375
-0.0029296875
0.0029296875
-0.0018310546875
0.00146484375
0.0
-0.00146484375
0.000732421875
-0.005126953125
0.00146484375
-0.0029296875
-0.002197265625
0.0084228515625
-0.0010986328125
0.005859375
0.0018310546875
-0.0018310546875
-0.0003662109375
-0.0025634765625
0.000732421875
-0.0029296875
-0.005859375
0.0047607421875
0.0018310546875
0.0032958984375
0.0029296875
-0.0032958984375
-0.00439453125
0.0003662109375
0.0010986328125
-0.0003662109375
0.0
0.0
-0.0010986328125
0.0032958984375
-0.0029296875
0.0040283203125
-0.002197265625
0.003662109375
0.0
-0.0010986328125
0.00146484375
-0.0029296875
0.0032958984375
-0.000732421875
0.003662109375
-0.00146484375
0.0
0.000732421875
-0.0003662109375
0.0
-0.0003662109375
-0.000732421875
-0.00146484375
0.0018310546875
-0.000732421875
0.0003662109375
-0.0018310546875
0.00146484375
-0.0018310546875
0.002197265625
-0.0018310546875
0.0025634765625
-0.000732421875
0.000732421875
0.0003662109375
-0.00146484375
0.0029296875
-0.0029296875
0.0025634765625
-0.0018310546875
-0.000732421875
-0.0003662109375
0.000732421875
-0.002197265625
0.002197265625
-0.0087890625
-0.0003662109375
-0.00146484375
-0.0003662109375
0.0106201171875
0.005126953125
0.0018310546875
0.0040283203125
-0.0040283203125
0.00146484375
-0.0032958984375
-0.0003662109375
0.0076904296875
-0.003662109375
0.0142822265625
0.0040283203125
-0.01904296875
0.0054931640625
-0.0223388671875
-0.0003662109375
0.002197265625
0.0003662109375
0.000732421875
0.0003662109375
0.0
-0.000732421875
0.0
-0.002197265625
0.0003662109375
-0.00146484375
-0.0003662109375
-0.0010986328125
-0.000732421875
0.0025634765625
-0.0032958984375
0.00439453125
-0.0029296875
0.000732421875
0.0003662109375
-0.0010986328125
0.0003662109375
-0.0003662109375
-0.0018310546875
-0.0003662109375
-0.0010986328125
-0.00146484375
0.0010986328125
0.0
-0.0010986328125
-0.000732421875
0.0
-0.002197265625
0.002197265625
0.000732421875
-0.00146484375
0.00439453125
-0.0040283203125
0.0032958984375
-0.002197265625
0.00146484375
-0.0018310546875
0.0010986328125
-0.002197265625
-0.000732421875
-0.0003662109375
0.000732421875
0.0003662109375
0.000732421875
0.0018310546875
-0.0003662109375
0.0003662109375
-0.00146484375
0.0
-0.0032958984375
0.0025634765625
0.0
-0.006591796875
-0.0010986328125
0.000732421875
-0.0010986328125
0.0157470703125
0.00146484375
0.0084228515625
0.0
-0.0010986328125
-0.0003662109375
-0.0018310546875
-0.00439453125
0.0113525390625
-0.00732421875
0.0201416015625
0.0032958984375
-0.017578125
0.0076904296875
-0.025634765625
0.000732421875
0.002197265625
-0.0003662109375
0.00146484375
0.0
0.0
-0.000732421875
0.0
-0.002197265625
0.0003662109375
-0.0029296875
0.0010986328125
0.0
0.0
0.0029296875
-0.0018310546875
0.005126953125
-0.0018310546875
0.00439453125
-0.0003662109375
0.000732421875
0.0003662109375
-0.002197265625
0.00146484375
-0.002197265625
0.000732421875
-0.000732421875
-0.0018310546875
0.0
-0.00146484375
0.000732421875
-0.002197265625
-0.000732421875
-0.000732421875
0.0
0.0003662109375
-0.0003662109375
0.0010986328125
0.0
0.0003662109375
0.0003662109375
0.000732421875
-0.0010986328125
0.0010986328125
-0.000732421875
-0.0010986328125
-0.000732421875
-0.0003662109375
0.0003662109375
0.0
0.0003662109375
0.0
0.0
-0.0003662109375
-0.000732421875
0.0
-0.0010986328125
0.000732421875
0.0003662109375
-0.0003662109375
0.000732421875
-0.0010986328125
0.000732421875
0.0003662109375
-0.000732421875
0.000732421875
-0.000732421875
0.000732421875
-0.0010986328125
-0.0003662109375
-0.0010986328125
0.0
0.0025634765625
-0.000732421875
0.0018310546875
-0.000732421875
-0.000732421875
0.0
-0.000732421875
-0.002197265625
-0.0091552734375
0.006591796875
0.0029296875
-0.005859375
0.0106201171875
-0.0120849609375
-0.003662109375
0.00439453125
-0.002197265625
0.0029296875
0.0
0.00146484375
-0.0018310546875
0.003662109375
-0.0018310546875
0.0029296875
-0.0032958984375
0.0029296875
-0.0040283203125
0.0029296875
-0.000732421875
0.0018310546875
0.0025634765625
0.0003662109375
0.0032958984375
-0.0010986328125
0.0010986328125
-0.0010986328125
-0.0010986328125
0.0
-0.002197265625
0.00146484375
-0.000732421875
-0.0003662109375
0.00146484375
-0.002197265625
0.0010986328125
-0.0010986328125
-0.0003662109375
0.0
0.0003662109375
0.0
0.000732421875
0.0
0.002197265625
-0.000732421875
0.002197265625
-0.00146484375
-0.000732421875
0.000732421875
0.00146484375
-0.0010986328125
0.0
-0.00146484375
-0.00146484375
-0.0003662109375
0.0003662109375
-0.000732421875
-0.0010986328125
-0.000732421875
-0.0010986328125
0.0040283203125
0.0003662109375
0.005126953125
0.0025634765625
-0.0054931640625
0.0010986328125
-0.005859375
-0.0018310546875
0.0
-0.0032958984375
0.01171875
0.005126953125
0.003662109375
0.0047607421875
-0.02197265625
-0.00146484375
-0.0157470703125
0.0025634765625
-0.003662109375
0.002197265625
-0.003662109375
0.000732421875
-0.00146484375
-0.0018310546875
0.002197265625
-0.002197265625
0.0
0.0
-0.00439453125
0.0
-0.00439453125
0.00146484375
-0.0040283203125
0.0029296875
-0.0025634765625
0.0025634765625
-0.0018310546875
-0.000732421875
0.000732421875
-0.0025634765625
0.0010986328125
-0.0018310546875
0.0025634765625
-0.0010986328125
0.0032958984375
-0.0003662109375
0.00146484375
-0.000732421875
0.0010986328125
0.0
0.0003662109375
0.0
0.0003662109375
0.0
-0.0003662109375
-0.0003662109375
0.0010986328125
0.0
0.000732421875
-0.000732421875
0.0003662109375
-0.0025634765625
0.0025634765625
-0.0003662109375
0.0010986328125
0.0003662109375
0.0
0.0
0.0
0.0010986328125
0.0010986328125
0.0018310546875
0.0003662109375
0.0025634765625
-0.00146484375
0.0018310546875
-0.0003662109375
0.002197265625
-0.000732421875
0.002197265625
-0.00146484375
0.0025634765625
-0.0010986328125
0.00146484375
0.0003662109375
0.0018310546875
-0.0003662109375
0.0010986328125
0.0
-0.0010986328125
-0.002197265625
0.00146484375
-0.0047607421875
0.00146484375
0.0025634765625
0.0025634765625
0.0029296875
0.0018310546875
-0.000732421875
-0.0010986328125
0.0
-0.002197265625
-0.0003662109375
-0.0062255859375
0.01025390625
0.0029296875
-0.0047607421875
0.006591796875
-0.012451171875
-0.0003662109375
0.0029296875
0.0018310546875
0.0
0.0029296875
-0.0010986328125
0.00146484375
-0.00146484375
0.0
-0.000732421875
-0.00146484375
0.00146484375
-0.0018310546875
0.000732421875
-0.0018310546875
0.0018310546875
0.0018310546875
0.00146484375
0.0047607421875
-0.000732421875
0.0
0.000732421875
-0.0018310546875
0.0003662109375
-0.0018310546875
0.00146484375
-0.000732421875
0.000732421875
0.0
-0.000732421875
0.0003662109375
-0.0010986328125
0.000732421875
0.0
0.0003662109375
0.0010986328125
0.002197265625
-0.00146484375
0.0010986328125
-0.000732421875
-0.0003662109375
0.0003662109375
-0.002197265625
0.0010986328125
-0.00146484375
0.0018310546875
-0.0003662109375
0.0018310546875
-0.0018310546875
0.002197265625
0.0
0.0
-0.000732421875
0.0
-0.0010986328125
0.000732421875
0.0
-0.008056640625
-0.0018310546875
0.0
-0.0010986328125
0.013916015625
0.00146484375
0.0040283203125
0.00146484375
-0.0025634765625
-0.000732421875
-0.0003662109375
-0.0040283203125
0.005859375
-0.01025390625
0.01904296875
0.0025634765625
-0.0120849609375
0.008056640625
-0.021240234375
-0.00146484375
0.005859375
-0.0003662109375
0.0032958984375
-0.0010986328125
0.0029296875
-0.0010986328125
0.002197265625
-0.0047607421875
0.002197265625
-0.0054931640625
0.000732421875
-0.003662109375
0.0018310546875
-0.0010986328125
0.0018310546875
0.0032958984375
0.0
0.0032958984375
0.0003662109375
0.0010986328125
0.0003662109375
-0.002197265625
0.0018310546875
-0.0025634765625
0.002197265625
-0.0018310546875
0.0029296875
-0.000732421875
0.002197265625
-0.000732421875
0.0010986328125
-0.00146484375
0.000732421875
0.0010986328125
-0.0029296875
0.0003662109375
0.000732421875
-0.000732421875
0.0047607421875
-0.0003662109375
0.0025634765625
0.0018310546875
0.0
0.002197265625
-0.0010986328125
0.0
-0.0003662109375
-0.0018310546875
0.00146484375
-0.00146484375
-0.0047607421875
-0.0018310546875
0.0
-0.002197265625
0.013916015625
0.000732421875
0.0029296875
-0.000732421875
-0.003662109375
-0.002197265625
0.0003662109375
-0.00439453125
0.006591796875
-0.00439453125
0.0157470703125
0.0018310546875
-0.0113525390625
0.0040283203125
-0.0205078125
0.00146484375
-0.0003662109375
-0.0003662109375
0.0029296875
-0.0003662109375
0.0018310546875
-0.0025634765625
0.000732421875
-0.00439453125
0.00439453125
-0.0032958984375
0.0018310546875
-0.00146484375
0.0
-0.0010986328125
0.0018310546875
0.0003662109375
0.0003662109375
0.003662109375
-0.0040283203125
0.00146484375
-0.00146484375
-0.0010986328125
0.002197265625
-0.000732421875
0.002197265625
0.0003662109375
0.0003662109375
-0.0003662109375
-0.0010986328125
-0.0010986328125
0.0
0.0
-0.0003662109375
-0.000732421875
0.00146484375
0.0003662109375
0.0010986328125
0.0003662109375
0.0003662109375
-0.000732421875
0.0
0.0003662109375
-0.000732421875
0.0
-0.000732421875
-0.000732421875
-0.0054931640625
-0.00146484375
0.0032958984375
0.002197265625
0.005126953125
0.002197265625
-0.0003662109375
0.0
-0.000732421875
0.00146484375
-0.003662109375
-0.0047607421875
0.015380859375
0.0128173828125
-0.0069580078125
0.00732421875
-0.021240234375
-0.0087890625
0.002197265625
0.0018310546875
0.00146484375
0.002197265625
0.000732421875
0.00146484375
0.000732421875
0.0
0.0003662109375
-0.0003662109375
0.000732421875
-0.00146484375
0.0010986328125
0.0003662109375
-0.0010986328125
0.0025634765625
-0.002197265625
0.0054931640625
-0.002197265625
0.003662109375
-0.000732421875
0.0003662109375
0.0
0.0
-0.0003662109375
0.000732421875
-0.0010986328125
0.000732421875
-0.0010986328125
0.0
-0.0003662109375
-0.0003662109375
0.0
0.0029296875
-0.0025634765625
0.0047607421875
-0.0062255859375
0.00146484375
-0.002197265625
0.002197265625
-0.000732421875
0.0018310546875
-0.0018310546875
-0.0003662109375
0.0003662109375
-0.000732421875
0.00146484375
0.0
0.0010986328125
0.0010986328125
-0.0003662109375
0.0
0.0003662109375
-0.0003662109375
0.0
0.0003662109375
-0.008056640625
-0.0018310546875
0.0
0.0
0.0091552734375
0.002197265625
0.0029296875
-0.00146484375
0.0
-0.0029296875
-0.0010986328125
-0.006591796875
0.0150146484375
-0.0054931640625
0.0194091796875
0.0025634765625
-0.0201416015625
0.0010986328125
-0.0205078125
-0.0029296875
0.0054931640625
-0.0010986328125
0.0018310546875
0.000732421875
0.0
0.0003662109375
-0.0003662109375
-0.0010986328125
0.0003662109375
-0.000732421875
-0.000732421875
-0.000732421875
-0.0010986328125
0.000732421875
0.0003662109375
0.0040283203125
0.000732421875
0.0029296875
0.000732421875
-0.0003662109375
0.002197265625
-0.0029296875
0.0029296875
-0.0025634765625
0.000732421875
-0.00146484375
0.0003662109375
-0.0010986328125
0.000732421875
-0.00146484375
0.000732421875
-0.0010986328125
0.0018310546875
0.0
0.000732421875
-0.000732421875
-0.0003662109375
-0.0003662109375
0.0
0.0
0.0003662109375
0.0003662109375
-0.0003662109375
-0.000732421875
0.000732421875
-0.002197265625
0.0025634765625
-0.00146484375
-0.0003662109375
-0.00146484375
0.0
0.0
0.00146484375
-0.000732421875
0.0018310546875
-0.0010986328125
-0.003662109375
0.0
0.005126953125
0.0018310546875
0.008056640625
0.0032958984375
-0.0025634765625
0.00146484375
-0.0018310546875
0.000732421875
-0.0032958984375
-0.0062255859375
0.01025390625
0.0054931640625
0.003662109375
0.0029296875
-0.01171875
-0.009521484375
-0.0025634765625
-0.0010986328125
0.002197265625
-0.0018310546875
0.00146484375
-0.0010986328125
0.00146484375
-0.0003662109375
0.0003662109375
-0.002197265625
-0.0003662109375
-0.00439453125
0.000732421875
-0.000732421875
-0.002197265625
0.002197265625
-0.002197265625
0.003662109375
-0.0025634765625
0.002197265625
-0.0010986328125
-0.00146484375
0.0003662109375
0.0
-0.0003662109375
0.0
0.000732421875
-0.0003662109375
-0.002197265625
-0.00146484375
0.0010986328125
-0.000732421875
0.0018310546875
0.0
0.0
0.0
0.0018310546875
0.000732421875
-0.0003662109375
-0.0010986328125
0.0003662109375
-0.002197265625
-0.00146484375
-0.002197265625
-0.0018310546875
-0.0025634765625
0.006591796875
0.0
0.0054931640625
0.000732421875
0.000732421875
-0.000732421875
0.0
-0.0010986328125
-0.000732421875
-0.0098876953125
0.017578125
0.0084228515625
-0.003662109375
0.0091552734375
-0.02197265625
-0.00732421875
0.000732421875
0.002197265625
0.0018310546875
0.0003662109375
0.0018310546875
0.0
0.00146484375
0.0010986328125
0.0010986328125
-0.00146484375
0.0025634765625
-0.0025634765625
0.002197265625
0.0025634765625
-0.00146484375
0.0091552734375
-0.0062255859375
0.009521484375
-0.0054931640625
0.005859375
-0.0029296875
0.0010986328125
-0.00146484375
-0.000732421875
-0.0003662109375
0.0
-0.0003662109375
0.0
0.0003662109375
0.0
0.0
-0.0010986328125
0.0010986328125
0.0010986328125
0.0003662109375
0.00146484375
0.0
-0.0010986328125
0.0003662109375
0.000732421875
0.000732421875
0.0018310546875
0.000732421875
0.0003662109375
-0.000732421875
-0.0003662109375
0.0
0.0
0.0
0.0003662109375
-0.0010986328125
0.0003662109375
-0.0025634765625
0.000732421875
-0.0018310546875
0.00146484375
-0.0010986328125
0.0003662109375
-0.000732421875
0.0
0.0
0.00146484375
-0.00146484375
0.0025634765625
-0.00146484375
0.0029296875
-0.0025634765625
0.002197265625
-0.0029296875
0.000732421875
-0.000732421875
-0.000732421875
-0.0029296875
-0.000732421875
0.0069580078125
0.0
0.008056640625
0.0003662109375
-0.0040283203125
0.0010986328125
-0.0029296875
-0.0003662109375
0.0
-0.0054931640625
0.0146484375
-0.00146484375
0.0172119140625
0.0032958984375
-0.0201416015625
0.0010986328125
-0.0205078125
0.0
0.003662109375
0.0
0.0029296875
-0.0003662109375
0.0029296875
-0.0032958984375
0.0010986328125
-0.00439453125
0.0018310546875
-0.00439453125
0.002197265625
-0.005126953125
0.0029296875
-0.002197265625
0.0025634765625
0.003662109375
-0.0010986328125
0.0040283203125
0.000732421875
0.00146484375
0.0010986328125
-0.0010986328125
0.0003662109375
-0.00146484375
0.000732421875
-0.000732421875
-0.0003662109375
-0.000732421875
-0.0003662109375
0.0018310546875
-0.0010986328125
0.0018310546875
-0.0003662109375
0.0003662109375
-0.0003662109375
0.0003662109375
-0.000732421875
0.000732421875
-0.0003662109375
-0.0003662109375
0.000732421875
-0.0010986328125
0.0010986328125
0.0
0.0
-0.000732421875
0.0
0.0
-0.000732421875
0.0003662109375
-0.0010986328125
0.0003662109375
-0.00146484375
-0.0003662109375
-0.0003662109375
-0.00146484375
0.000732421875
-0.00146484375
0.000732421875
-0.000732421875
-0.00146484375
0.0
-0.0003662109375
-0.000732421875
0.0029296875
-0.0003662109375
0.0
-0.000732421875
0.0003662109375
0.0003662109375
0.0010986328125
0.0
0.0
-0.0018310546875
0.0032958984375
-0.00146484375
0.0018310546875
-0.002197265625
0.0025634765625
-0.00146484375
0.0025634765625
0.000732421875
0.0
0.000732421875
-0.000732421875
-0.0010986328125
-0.0054931640625
-0.00439453125
0.0
-0.00439453125
0.0106201171875
0.0018310546875
0.005859375
0.0018310546875
-0.00146484375
-0.003662109375
0.0
-0.0054931640625
0.0018310546875
-0.0054931640625
0.0150146484375
0.002197265625
-0.0091552734375
0.0032958984375
-0.0186767578125
0.0
0.0025634765625
0.0010986328125
-0.0025634765625
0.0
-0.00146484375
0.0
-0.002197265625
-0.0018310546875
0.0003662109375
-0.0029296875
0.0025634765625
-0.00146484375
-0.0010986328125
-0.000732421875
-0.0018310546875
0.00146484375
-0.0003662109375
0.0047607421875
-0.000732421875
0.00146484375
0.002197265625
-0.0025634765625
0.002197265625
-0.002197265625
0.000732421875
-0.002197265625
0.00439453125
-0.002197265625
0.0010986328125
-0.0032958984375
0.0010986328125
-0.00146484375
0.003662109375
0.0010986328125
0.000732421875
0.00146484375
-0.000732421875
0.003662109375
-0.0025634765625
0.002197265625
-0.0025634765625
0.002197265625
-0.00146484375
0.002197265625
-0.002197265625
0.000732421875
-0.002197265625
0.0032958984375
-0.0025634765625
0.0054931640625
-0.01171875
0.0025634765625
-0.0040283203125
0.0003662109375
0.009521484375
0.00146484375
0.0025634765625
0.000732421875
-0.002197265625
0.0003662109375
-0.002197265625
-0.0032958984375
0.0106201171875
-0.00146484375
0.0135498046875
0.0047607421875
-0.0172119140625
0.0025634765625
-0.01611328125
0.0003662109375
0.0040283203125
0.0
0.0029296875
0.0003662109375
0.0010986328125
0.0003662109375
-0.0003662109375
0.0003662109375
-0.000732421875
-0.0003662109375
0.0
0.0
0.0003662109375
0.0029296875
-0.000732421875
0.0054931640625
-0.0010986328125
0.00439453125
-0.0003662109375
-0.000732421875
0.002197265625
0.00146484375
-0.002197265625
0.005126953125
-0.0062255859375
0.003662109375
-0.0040283203125
0.002197265625
-0.00146484375
0.000732421875
0.0
0.0003662109375
-0.000732421875
0.00146484375
-0.0018310546875
0.0018310546875
-0.0018310546875
0.000732421875
-0.0018310546875
0.0003662109375
-0.00146484375
0.000732421875
-0.000732421875
0.0
0.0
0.0
-0.0003662109375
0.0
-0.0003662109375
-0.000732421875
0.0
-0.002197265625
0.000732421875
-0.000732421875
0.0003662109375
0.0010986328125
-0.0084228515625
0.0
-0.002197265625
0.0003662109375
0.0113525390625
0.0018310546875
0.0040283203125
0.0
-0.0025634765625
-0.0010986328125
-0.0010986328125
-0.0018310546875
0.0025634765625
-0.0087890625
0.017578125
0.0040283203125
-0.0106201171875
0.008056640625
-0.0205078125
-0.003662109375
0.0062255859375
-0.000732421875
0.0025634765625
0.0003662109375
0.0018310546875
-0.0003662109375
0.00146484375
-0.002197265625
0.002197265625
-0.003662109375
0.0018310546875
-0.0025634765625
0.0003662109375
0.0003662109375
-0.000732421875
0.0032958984375
-0.000732421875
0.003662109375
-0.0003662109375
0.0
0.0
-0.0029296875
0.0010986328125
-0.002197265625
0.0018310546875
-0.0010986328125
0.00146484375
0.0003662109375
0.0
-0.0003662109375
0.0003662109375
-0.0010986328125
0.00146484375
-0.000732421875
0.0025634765625
-0.000732421875
0.002197265625
0.0
-0.0003662109375
-0.0018310546875
-0.000732421875
-0.00146484375
0.0
0.0
0.0
0.0
-0.00146484375
0.0
-0.0018310546875
-0.00146484375
0.00146484375
0.0003662109375
0.0018310546875
0.0029296875
-0.008056640625
-0.00146484375
0.0
-0.002197265625
0.0084228515625
0.0003662109375
0.003662109375
-0.00146484375
0.0010986328125
-0.0018310546875
0.0
-0.0047607421875
0.0135498046875
0.00439453125
0.008056640625
-0.00146484375
-0.013916015625
-0.009521484375
-0.008056640625
0.0003662109375
0.0040283203125
-0.0040283203125
0.005859375
-0.0040283203125
0.003662109375
-0.002197265625
0.0025634765625
-0.003662109375
0.0047607421875
-0.0040283203125
0.0029296875
-0.0025634765625
0.0018310546875
0.002197265625
-0.00146484375
0.00439453125
-0.003662109375
0.0029296875
-0.0018310546875
-0.0003662109375
-0.0018310546875
-0.00146484375
-0.00146484375
-0.0003662109375
0.000732421875
0.0
0.0
0.0
-0.00146484375
-0.00146484375
0.0
-0.0010986328125
0.0
0.000732421875
0.0003662109375
0.000732421875
-0.0010986328125
0.0003662109375
-0.0025634765625
-0.000732421875
0.000732421875
-0.0010986328125
-0.0029296875
-0.00146484375
-0.0029296875
-0.0025634765625
0.006591796875
0.0003662109375
0.005859375
0.00146484375
0.000732421875
-0.003662109375
0.0032958984375
-0.0032958984375
0.000732421875
-0.0087890625
0.0113525390625
0.0062255859375
-0.0003662109375
0.00732421875
-0.0135498046875
-0.0076904296875
0.0018310546875
0.00146484375
0.00146484375
0.003662109375
-0.0010986328125
0.00439453125
-0.000732421875
0.0025634765625
0.0
-0.00146484375
0.000732421875
-0.0018310546875
-0.0003662109375
0.00146484375
-0.00146484375
0.005859375
-0.0040283203125
0.0076904296875
-0.0040283203125
0.0054931640625
-0.0029296875
0.0040283203125
-0.0062255859375
0.0018310546875
-0.0040283203125
0.0003662109375
-0.00146484375
0.00146484375
-0.002197265625
0.0025634765625
-0.0010986328125
0.00439453125
-0.002197265625
0.0032958984375
-0.0040283203125
0.0
-0.00146484375
-0.0003662109375
0.0003662109375
0.0
0.000732421875
-0.00146484375
0.0010986328125
-0.0018310546875
0.000732421875
-0.0010986328125
0.0003662109375
0.0003662109375
-0.000732421875
0.0
0.0
0.0
0.0
0.0003662109375
-0.0076904296875
-0.00146484375
-0.00146484375
-0.0018310546875
0.0113525390625
0.0
0.0054931640625
0.0010986328125
-0.0003662109375
0.000732421875
-0.0010986328125
-0.000732421875
-0.003662109375
-0.0084228515625
0.01025390625
0.003662109375
-0.00732421875
0.0084228515625
-0.015380859375
-0.0003662109375
0.009521484375
0.0018310546875
0.0047607421875
