-0.082763671875
0.168487548828125
-0.0765380859375
0.135498046875
-0.064117431640625
0.1571044921875
-0.0010986328125
0.011383056640625
0.069244384765625
-0.182373046875
0.0010986328125
-0.008087158203125
-0.0003662109375
-0.010650634765625
-0.0003662109375
-0.0150146484375
-0.000732421875
-0.0230712890625
-0.0018310546875
-0.02783203125
0.0018310546875
-0.0186767578125
0.003662109375
0.0274658203125
0.0069580078125
0.0516357421875
0.0054931640625
0.0194091796875
0.00146484375
0.0003662109375
0.0029296875
-0.000732421875
0.005859375
-0.0098876953125
-0.005126953125
-0.0069580078125
-0.005126953125
0.005859375
0.01025390625
0.008453369140625
0.00732421875
0.005889892578125
0.003662109375
0.0003662109375
0.0040283203125
-0.002227783203125
0.006591796875
-0.036651611328125
-0.047607421875
0.117584228515625
0.0018310546875
0.0179443359375
0.057861328125
-0.137725830078125
0.0047607421875
-0.0076904296875
0.002197265625
-0.009521484375
0.0010986328125
-0.0142822265625
-0.000732421875
-0.0205078125
-0.0029296875
-0.0230712890625
0.0
-0.012451171875
0.0062255859375
0.0289306640625
0.00732421875
0.0450439453125
0.0040283203125
0.0186767578125
0.0
0.0018310546875
-0.0010986328125
0.003662109375
0.000732421875
-0.003662109375
-0.0069580078125
-0.0018310546875
-0.005859375
0.0142822265625
0.0069580078125
0.015411376953125
0.005859375
0.011749267578125
0.0032958984375
0.005126953125
0.0029296875
0.0025634765625
0.003662109375
-0.022369384765625
-0.0377197265625
0.1219482421875
-0.000732421875
0.0120849609375
0.0413818359375
-0.133697509765625
0.0010986328125
-0.0047607421875
-0.00146484375
-0.01171875
-0.0025634765625
-0.015380859375
-0.006591796875
-0.0245361328125
-0.0084228515625
-0.0281982421875
-0.002197265625
-0.0128173828125
0.00732421875
0.0355224609375
0.0084228515625
0.05126953125
0.00439453125
0.0157470703125
0.00146484375
-0.000732421875
-0.0003662109375
-0.003662109375
-0.0010986328125
-0.0113525390625
-0.009521484375
-0.0069580078125
-0.005859375
0.01025390625
0.0062255859375
0.013946533203125
0.0040283203125
0.007720947265625
0.0
0.0025634765625
0.0
0.000732421875
0.0003662109375
0.000732421875
-0.0303955078125
0.0955810546875
0.000732421875
-0.017608642578125
0.031494140625
-0.116485595703125
-0.0010986328125
-0.00732421875
-0.0018310546875
-0.0091552734375
-0.0029296875
-0.0150146484375
-0.005126953125
-0.0263671875
-0.0054931640625
-0.031494140625
0.000732421875
-0.006591796875
0.00732421875
0.04248046875
0.008056640625
0.0479736328125
0.005126953125
0.01318359375
0.000732421875
-0.0003662109375
0.0
-0.00146484375
-0.0040283203125
-0.0135498046875
-0.00732421875
-0.005859375
-0.0010986328125
0.012451171875
0.008056640625
0.010986328125
0.00732421875
0.0069580078125
0.000732421875
0.0003662109375
0.000732421875
-0.0029296875
-0.0234375
0.068511962890625
-0.01025390625
0.031158447265625
0.0263671875
-0.093048095703125
0.01171875
-0.057891845703125
-0.0018310546875
-0.0098876953125
-0.00146484375
-0.013916015625
-0.00146484375
-0.02197265625
-0.003662109375
-0.03076171875
-0.0040283203125
-0.02783203125
-0.0003662109375
0.005859375
0.00146484375
0.0556640625
0.0032958984375
0.0472412109375
0.0029296875
0.0084228515625
-0.000732421875
-0.003662109375
0.0018310546875
-0.003662109375
-0.002197265625
-0.013916015625
-0.0069580078125
-0.0062255859375
-0.0003662109375
0.0135498046875
0.008056640625
0.0113525390625
0.0062255859375
0.006591796875
0.0
-0.000732421875
0.0003662109375
-0.0029296875
-0.0333251953125
0.098907470703125
-0.0018310546875
0.009521484375
0.035888671875
-0.124176025390625
0.0032958984375
-0.0384521484375
-0.0010986328125
-0.0091552734375
-0.0003662109375
-0.01171875
-0.0010986328125
-0.0179443359375
-0.0040283203125
-0.0267333984375
-0.0047607421875
-0.0252685546875
0.0
0.00732421875
0.003662109375
0.0523681640625
0.0040283203125
0.0443115234375
0.0025634765625
0.008056640625
0.000732421875
-0.0018310546875
0.0025634765625
-0.000732421875
0.0029296875
-0.0091552734375
-0.008056640625
-0.0047607421875
-0.006591796875
0.0098876953125
0.006591796875
0.0091552734375
0.005859375
0.005859375
-0.0003662109375
0.0010986328125
-0.00146484375
-0.000732421875
-0.005126953125
0.0157470703125
-0.0281982421875
0.068878173828125
0.0087890625
-0.0380859375
0.031494140625
-0.095245361328125
-0.0003662109375
-0.0076904296875
-0.0010986328125
-0.0106201171875
-0.00146484375
-0.01611328125
-0.002197265625
-0.0216064453125
-0.0029296875
-0.0238037109375
-0.000732421875
-0.00439453125
0.0025634765625
0.04248046875
0.00439453125
0.049072265625
0.0025634765625
0.0128173828125
-0.000732421875
-0.0025634765625
0.000732421875
0.0
0.0047607421875
-0.0076904296875
-0.0076904296875
-0.005859375
-0.0087890625
0.0076904296875
0.0076904296875
0.01171875
0.0054931640625
0.008056640625
0.0
0.0003662109375
0.0010986328125
-0.0010986328125
0.0084228515625
-0.0325927734375
-0.0498046875
0.117584228515625
-0.000732421875
0.0098876953125
0.05712890625
-0.141754150390625
0.000732421875
-0.0069580078125
-0.0003662109375
-0.009521484375
0.000732421875
-0.0146484375
0.0
-0.021240234375
-0.0032958984375
-0.02197265625
-0.000732421875
-0.010986328125
0.003662109375
0.0311279296875
0.005859375
0.0472412109375
0.0062255859375
0.01904296875
0.00439453125
0.0003662109375
0.0025634765625
-0.0018310546875
0.002197265625
-0.0062255859375
-0.008056640625
-0.0087890625
-0.006591796875
0.0076904296875
0.005859375
0.0146484375
0.005859375
0.008056640625
0.0040283203125
0.0032958984375
0.00146484375
0.0025634765625
0.0032958984375
-0.0333251953125
-0.059326171875
0.131134033203125
-0.000732421875
0.0223388671875
0.0615234375
-0.146881103515625
-0.00146484375
-0.003662109375
-0.0032958984375
-0.005859375
-0.0032958984375
-0.0120849609375
-0.005126953125
-0.016845703125
-0.0084228515625
-0.0223388671875
-0.0040283203125
-0.017578125
0.0062255859375
0.0252685546875
0.00732421875
0.052001953125
0.0032958984375
0.0234375
0.0010986328125
0.0025634765625
-0.00146484375
0.0003662109375
-0.000732421875
-0.005859375
-0.009521484375
-0.0062255859375
-0.0062255859375
0.0054931640625
0.0062255859375
0.0120849609375
0.003662109375
0.0091552734375
0.0018310546875
0.0054931640625
0.0003662109375
0.000732421875
0.0040283203125
-0.0322265625
-0.0472412109375
0.132598876953125
-0.0025634765625
0.016845703125
0.047607421875
-0.148345947265625
-0.003662109375
-0.0040283203125
-0.00439453125
-0.0084228515625
-0.003662109375
-0.0150146484375
-0.0047607421875
-0.0208740234375
-0.008056640625
-0.0296630859375
-0.0029296875
-0.0194091796875
0.005859375
0.0322265625
0.0062255859375
0.054931640625
0.003662109375
0.0216064453125
0.000732421875
0.0
0.0
-0.000732421875
-0.0010986328125
-0.01318359375
-0.0091552734375
-0.008056640625
-0.0040283203125
0.0113525390625
0.0069580078125
0.0142822265625
0.0032958984375
0.0091552734375
0.0003662109375
0.0003662109375
0.0010986328125
-0.0010986328125
-0.000732421875
0.009521484375
-0.03076171875
0.082794189453125
0.0032958984375
-0.03369140625
0.0322265625
-0.108795166015625
-0.0003662109375
-0.008056640625
0.0
-0.0098876953125
-0.0018310546875
-0.0172119140625
-0.002197265625
-0.0289306640625
-0.0029296875
-0.030029296875
-0.000732421875
-0.0054931640625
0.0010986328125
0.0487060546875
0.0010986328125
0.0531005859375
0.0025634765625
0.0135498046875
0.0
-0.0010986328125
-0.0003662109375
-0.0025634765625
-0.0069580078125
-0.0128173828125
-0.0098876953125
-0.0069580078125
-0.000732421875
0.0135498046875
0.005126953125
0.013916015625
0.005126953125
0.0084228515625
0.0
0.00146484375
-0.0003662109375
-0.0047607421875
-0.043212890625
0.121246337890625
-0.0025634765625
0.002197265625
0.041015625
-0.146148681640625
-0.0029296875
-0.027099609375
-0.002197265625
-0.00732421875
-0.00146484375
-0.0113525390625
-0.0025634765625
-0.01904296875
-0.0032958984375
-0.0267333984375
-0.0025634765625
-0.0252685546875
0.0003662109375
0.0106201171875
0.0029296875
0.0567626953125
0.003662109375
0.044677734375
0.002197265625
0.0076904296875
0.000732421875
-0.0025634765625
0.00146484375
-0.003662109375
-0.0040283203125
-0.01171875
-0.005859375
-0.0029296875
0.00146484375
0.0146484375
0.0076904296875
0.0128173828125
0.0054931640625
0.005126953125
0.00146484375
0.0010986328125
0.0040283203125
-0.0076904296875
-0.0560302734375
0.141387939453125
0.0018310546875
-0.005126953125
0.0582275390625
-0.164825439453125
-0.0029296875
-0.012451171875
-0.0003662109375
-0.00732421875
0.0
-0.0106201171875
0.0
-0.018310546875
-0.0025634765625
-0.0245361328125
-0.0032958984375
-0.021240234375
0.00146484375
0.0128173828125
0.0032958984375
0.052001953125
0.0040283203125
0.03662109375
0.005126953125
0.006591796875
0.002197265625
-0.002197265625
0.002197265625
-0.0025634765625
-0.003662109375
-0.0084228515625
-0.0062255859375
0.0003662109375
0.0032958984375
0.0172119140625
0.0087890625
0.013916015625
0.006591796875
0.0084228515625
0.00146484375
0.006591796875
0.0054931640625
-0.006591796875
-0.064453125
0.135162353515625
0.0003662109375
0.009521484375
0.0699462890625
-0.140289306640625
-0.0003662109375
-0.0062255859375
-0.00146484375
-0.006591796875
-0.000732421875
-0.0106201171875
-0.00146484375
-0.013916015625
-0.0054931640625
-0.0201416015625
-0.00439453125
-0.0205078125
0.0025634765625
0.01025390625
0.0069580078125
0.0457763671875
0.006591796875
0.0303955078125
0.003662109375
0.0047607421875
0.0
-0.000732421875
0.0010986328125
-0.01025390625
-0.008056640625
-0.0120849609375
-0.0076904296875
0.002197265625
0.0040283203125
0.0146484375
0.0010986328125
0.010986328125
-0.0018310546875
0.0032958984375
-0.0018310546875
0.0018310546875
0.0032958984375
-0.0311279296875
-0.0618896484375
0.144317626953125
-0.0029296875
0.0194091796875
0.0618896484375
-0.161163330078125
-0.0029296875
-0.0084228515625
-0.0025634765625
-0.0098876953125
-0.003662109375
-0.0146484375
-0.0054931640625
-0.024169921875
-0.008056640625
-0.031494140625
-0.005126953125
-0.0245361328125
0.0062255859375
0.0223388671875
0.0069580078125
0.053466796875
0.002197265625
0.0281982421875
-0.000732421875
0.0032958984375
-0.003662109375
-0.0029296875
-0.005859375
-0.015380859375
-0.009521484375
-0.008056640625
-0.003662109375
0.01171875
0.00732421875
0.01025390625
0.00439453125
0.0098876953125
-0.000732421875
0.0032958984375
0.0003662109375
-0.0018310546875
-0.0003662109375
0.0091552734375
-0.0245361328125
0.080963134765625
0.003662109375
-0.029296875
0.027099609375
-0.101470947265625
-0.0003662109375
-0.00439453125
-0.000732421875
-0.0098876953125
-0.0010986328125
-0.0164794921875
-0.0029296875
-0.0267333984375
-0.0047607421875
-0.0318603515625
0.002197265625
-0.00732421875
0.00732421875
0.0450439453125
0.00732421875
0.050537109375
0.00439453125
0.0128173828125
0.000732421875
-0.0010986328125
0.002197265625
-0.0087890625
-0.0098876953125
-0.0113525390625
-0.0091552734375
0.003662109375
0.0040283203125
0.0135498046875
0.0040283203125
0.0087890625
0.0018310546875
0.0025634765625
-0.0003662109375
-0.0003662109375
0.0047607421875
-0.0318603515625
-0.07177734375
0.181671142578125
-0.005126953125
0.01025390625
0.0714111328125
-0.205841064453125
-0.0003662109375
-0.0076904296875
-0.002197265625
-0.0091552734375
-0.0029296875
-0.013916015625
-0.0018310546875
-0.024169921875
-0.0029296875
-0.0303955078125
-0.00146484375
-0.0201416015625
0.0003662109375
0.0333251953125
0.0018310546875
0.0640869140625
0.003662109375
0.0296630859375
0.00146484375
0.0029296875
0.0018310546875
-0.0029296875
-0.005126953125
-0.01318359375
-0.0076904296875
-0.005126953125
0.000732421875
0.0142822265625
0.005859375
0.013916015625
0.005859375
0.0069580078125
0.002197265625
-0.0003662109375
0.00146484375
-0.0032958984375
-0.0380859375
0.116851806640625
-0.0010986328125
0.003662109375
0.03955078125
-0.139923095703125
0.00146484375
-0.028564453125
0.0003662109375
-0.0069580078125
0.0025634765625
-0.0120849609375
0.0018310546875
-0.021240234375
-0.0032958984375
-0.0263671875
-0.003662109375
-0.025634765625
-0.0003662109375
0.0084228515625
0.0010986328125
0.0545654296875
0.003662109375
0.0450439453125
0.0025634765625
0.01025390625
0.0003662109375
-0.00146484375
0.0010986328125
-0.005859375
-0.00732421875
-0.010986328125
-0.0076904296875
0.0010986328125
0.0040283203125
0.0150146484375
0.0076904296875
0.0106201171875
0.0040283203125
0.0029296875
0.0010986328125
0.0
0.005859375
-0.0205078125
-0.0662841796875
0.162261962890625
0.000732421875
0.0018310546875
0.0736083984375
-0.184600830078125
0.0018310546875
-0.0091552734375
-0.000732421875
-0.010986328125
0.0
-0.01171875
0.0003662109375
-0.016845703125
-0.0025634765625
-0.0245361328125
-0.0003662109375
-0.0230712890625
0.0047607421875
0.012451171875
0.0062255859375
0.047607421875
0.003662109375
0.03369140625
0.0018310546875
0.0069580078125
0.002197265625
-0.002197265625
0.0040283203125
-0.0076904296875
-0.0054931640625
-0.0091552734375
-0.008056640625
0.0040283203125
0.0029296875
0.0142822265625
0.005126953125
0.0106201171875
0.0029296875
0.005859375
-0.0003662109375
0.0032958984375
0.00439453125
-0.028564453125
-0.066650390625
0.142120361328125
-0.0025634765625
0.017578125
0.06884765625
-0.158966064453125
-0.0010986328125
-0.00732421875
-0.0032958984375
-0.0054931640625
-0.003662109375
-0.01025390625
-0.0047607421875
-0.018310546875
-0.0076904296875
-0.0263671875
-0.0054931640625
-0.0223388671875
0.0032958984375
0.0201416015625
0.00732421875
0.05419921875
0.0032958984375
0.03076171875
0.000732421875
0.0040283203125
-0.00146484375
0.0010986328125
-0.0025634765625
-0.0084228515625
-0.010986328125
-0.008056640625
-0.0087890625
0.0076904296875
0.0054931640625
0.01318359375
0.0040283203125
0.0098876953125
0.0010986328125
0.0047607421875
-0.0003662109375
0.003662109375
0.002197265625
-0.027099609375
-0.0472412109375
0.134429931640625
-0.005859375
0.013916015625
0.0439453125
-0.150177001953125
-0.003662109375
-0.0040283203125
-0.0047607421875
-0.00732421875
-0.0040283203125
-0.0120849609375
-0.005859375
-0.0208740234375
-0.0084228515625
-0.027099609375
-0.002197265625
-0.017578125
0.005859375
0.0333251953125
0.0054931640625
0.05712890625
0.002197265625
0.0230712890625
-0.000732421875
0.0018310546875
-0.000732421875
-0.0032958984375
-0.0069580078125
-0.013916015625
-0.0087890625
-0.005126953125
0.0010986328125
0.013916015625
0.0054931640625
0.0142822265625
0.002197265625
0.0091552734375
-0.0010986328125
0.0025634765625
-0.0003662109375
-0.0018310546875
-0.0406494140625
0.114654541015625
-0.0029296875
0.0069580078125
0.0380859375
-0.136993408203125
0.0
-0.0311279296875
-0.0025634765625
-0.0076904296875
-0.0025634765625
-0.0128173828125
-0.0003662109375
-0.0205078125
-0.002197265625
-0.030029296875
-0.0029296875
-0.030029296875
0.0003662109375
0.009521484375
0.002197265625
0.0574951171875
0.0032958984375
0.0472412109375
0.0032958984375
0.0098876953125
0.0025634765625
-0.0010986328125
0.0047607421875
-0.0087890625
-0.008056640625
-0.009521484375
-0.0076904296875
0.005859375
0.00732421875
0.0135498046875
0.005859375
0.0098876953125
0.0029296875
0.0029296875
0.0018310546875
0.0
0.0054931640625
-0.0296630859375
-0.0615234375
0.153472900390625
-0.002197265625
0.0062255859375
0.063720703125
-0.180938720703125
0.0003662109375
-0.008056640625
0.0003662109375
-0.01025390625
0.0
-0.0146484375
-0.0010986328125
-0.021240234375
-0.0025634765625
-0.0267333984375
-0.0003662109375
-0.017578125
0.0010986328125
0.0340576171875
0.0018310546875
0.0589599609375
0.0025634765625
0.0234375
0.00146484375
0.00146484375
0.003662109375
0.000732421875
0.0032958984375
-0.0098876953125
-0.0087890625
-0.0054931640625
-0.006591796875
0.0128173828125
0.0084228515625
0.012451171875
0.0062255859375
0.0069580078125
0.000732421875
-0.000732421875
0.0003662109375
-0.0032958984375
0.000732421875
-0.0003662109375
-0.0322265625
0.0772705078125
0.005859375
-0.0223388671875
0.0391845703125
-0.101806640625
0.00146484375
-0.006591796875
0.0010986328125
-0.010986328125
0.000732421875
-0.017578125
-0.00146484375
-0.0223388671875
-0.00439453125
-0.021240234375
-0.00146484375
-0.005126953125
0.0040283203125
0.0377197265625
0.006591796875
0.047607421875
0.006591796875
0.012451171875
0.0054931640625
-0.0040283203125
0.005859375
-0.0018310546875
-0.0003662109375
-0.01318359375
-0.006591796875
-0.0084228515625
-0.0010986328125
0.01318359375
0.006591796875
0.0135498046875
0.005859375
0.0062255859375
0.0018310546875
0.0018310546875
0.0010986328125
0.00146484375
-0.015380859375
0.009521484375
-0.0135498046875
0.0443115234375
0.01611328125
-0.0281982421875
0.012451171875
-0.064453125
-0.006591796875
-0.005859375
-0.006591796875
-0.0076904296875
-0.0040283203125
-0.0128173828125
-0.0069580078125
-0.0201416015625
-0.0091552734375
-0.0216064453125
-0.0029296875
-0.0047607421875
0.005859375
0.041748046875
0.00732421875
0.04833984375
0.0040283203125
0.01318359375
0.0003662109375
-0.0025634765625
0.0
-0.003662109375
-0.0084228515625
-0.01025390625
-0.01025390625
-0.000732421875
-0.0010986328125
0.0164794921875
0.0025634765625
0.013916015625
0.000732421875
0.0098876953125
-0.0029296875
0.003662109375
0.00146484375
-0.0032958984375
-0.0498046875
0.102569580078125
-0.0010986328125
0.005859375
0.0479736328125
-0.116119384765625
-0.0032958984375
-0.018310546875
-0.0018310546875
-0.006591796875
-0.003662109375
-0.01171875
-0.0032958984375
-0.017578125
-0.0062255859375
-0.027099609375
-0.0054931640625
-0.027099609375
0.0040283203125
0.008056640625
0.00732421875
0.0516357421875
0.005126953125
0.04248046875
0.0025634765625
0.009521484375
-0.000732421875
0.0
0.000732421875
-0.0091552734375
-0.0091552734375
-0.0084228515625
-0.0084228515625
0.00732421875
0.006591796875
0.015380859375
0.0069580078125
0.01171875
0.0029296875
0.00439453125
-0.0003662109375
0.0010986328125
0.0040283203125
-0.03076171875
-0.0655517578125
0.165924072265625
-0.0025634765625
0.01025390625
0.0684814453125
-0.190093994140625
-0.0003662109375
-0.008056640625
-0.00146484375
-0.009521484375
-0.0003662109375
-0.013916015625
-0.0010986328125
-0.0234375
-0.0029296875
-0.0296630859375
-0.0003662109375
-0.0205078125
0.00146484375
0.0303955078125
0.0010986328125
0.06005859375
0.002197265625
0.02783203125
0.000732421875
0.002197265625
0.0
-0.0010986328125
-0.0040283203125
-0.0120849609375
-0.008056640625
-0.0076904296875
-0.002197265625
0.0128173828125
0.0069580078125
0.012451171875
0.005126953125
0.0054931640625
0.0
0.0
0.0003662109375
-0.0010986328125
-0.019775390625
0.0618896484375
-0.0142822265625
0.0391845703125
0.0234375
-0.0838623046875
0.0179443359375
-0.0633544921875
-0.0003662109375
-0.006591796875
-0.0003662109375
-0.0135498046875
-0.000732421875
-0.0201416015625
-0.0018310546875
-0.025634765625
-0.0025634765625
-0.0252685546875
-0.0003662109375
0.0018310546875
0.00146484375
0.0509033203125
0.003662109375
0.05126953125
0.0025634765625
0.01318359375
0.0
-0.00146484375
0.0018310546875
-0.005859375
-0.005859375
-0.012451171875
-0.0069580078125
0.000732421875
0.00146484375
0.0164794921875
0.0047607421875
0.0113525390625
0.003662109375
0.005126953125
0.0003662109375
0.002197265625
0.0040283203125
-0.0157470703125
-0.0604248046875
0.142120361328125
0.00146484375
-0.0003662109375
0.0670166015625
-0.164093017578125
0.0010986328125
-0.0076904296875
0.0
-0.0076904296875
0.0
-0.0113525390625
-0.0025634765625
-0.017578125
-0.0069580078125
-0.021240234375
-0.0062255859375
-0.0186767578125
0.0018310546875
0.0128173828125
0.00732421875
0.0479736328125
0.005126953125
0.031494140625
0.0018310546875
0.0062255859375
0.000732421875
0.0
0.002197265625
-0.00732421875
-0.0087890625
-0.0054931640625
-0.0098876953125
0.0069580078125
0.003662109375
0.0142822265625
0.00146484375
0.010986328125
-0.003662109375
0.005126953125
-0.0029296875
0.0032958984375
0.0025634765625
-0.029296875
-0.056396484375
0.129669189453125
-0.003662109375
0.01904296875
0.054931640625
-0.144317626953125
-0.0025634765625
-0.005126953125
-0.0029296875
-0.006591796875
-0.00439453125
-0.0120849609375
-0.005126953125
-0.017578125
-0.006591796875
-0.022705078125
-0.002197265625
-0.018310546875
0.0084228515625
0.02490234375
0.0087890625
0.0516357421875
0.005126953125
0.0245361328125
0.0032958984375
0.0032958984375
0.003662109375
-0.0010986328125
-0.0003662109375
-0.015380859375
-0.0054931640625
-0.0076904296875
-0.000732421875
0.0128173828125
0.005126953125
0.01318359375
0.0040283203125
0.0069580078125
0.00146484375
-0.002197265625
0.0010986328125
-0.0018310546875
-0.0106201171875
0.0267333984375
-0.02197265625
0.05859375
0.01025390625
-0.0494384765625
0.02197265625
-0.084228515625
0.0003662109375
-0.006591796875
0.0003662109375
-0.01171875
-0.000732421875
-0.018310546875
-0.0032958984375
-0.0252685546875
-0.005126953125
-0.0263671875
-0.0003662109375
-0.0029296875
0.003662109375
0.0465087890625
0.0018310546875
0.0509033203125
0.000732421875
0.0150146484375
0.000732421875
0.0003662109375
0.0029296875
-0.008056640625
-0.0091552734375
-0.012451171875
-0.0106201171875
0.0025634765625
0.000732421875
0.016845703125
0.0054931640625
0.01025390625
0.0113525390625
0.002197265625
0.009521484375
-0.0018310546875
0.013916015625
-0.0281982421875
-0.04541015625
0.145050048828125
0.0274658203125
-0.0113525390625
0.099609375
-0.196319580078125
0.0369873046875
-0.02783203125
0.043212890625
-0.0333251953125
0.0413818359375
-0.0413818359375
0.03076171875
-0.0428466796875
0.015045166015625
-0.041015625
0.013214111328125
-0.0303955078125
0.02197265625
0.01171875
0.018310546875
0.0523681640625
0.0113525390625
0.0377197265625
0.0098876953125
0.00732421875
0.0098876953125
0.0047607421875
0.0076904296875
0.0003662109375
-0.0076904296875
-0.00146484375
-0.009521484375
0.0128173828125
0.0054931640625
0.0186767578125
0.0032958984375
0.0135498046875
-0.0025634765625
0.00732421875
-0.00439453125
0.0047607421875
-0.000732421875
-0.0289306640625
-0.062652587890625
0.135498046875
-0.0062255859375
0.0238037109375
0.054595947265625
-0.14208984375
-0.009521484375
-0.000732421875
-0.010986328125
-0.0029296875
-0.012451171875
-0.006591796875
-0.0150146484375
-0.0142822265625
-0.019073486328125
-0.0194091796875
-0.021270751953125
-0.013916015625
-0.0146484375
0.0303955078125
-0.0087890625
0.0589599609375
-0.0087890625
0.0303955078125
-0.0098876953125
0.006591796875
-0.0098876953125
0.002197265625
-0.0091552734375
-0.0062255859375
-0.0179443359375
-0.0018310546875
-0.0146484375
0.0142822265625
-0.0003662109375
0.0164794921875
-0.0025634765625
0.01318359375
-0.00732421875
0.0062255859375
-0.00439453125
0.0025634765625
-0.0003662109375
-0.0289306640625
-0.0589599609375
0.144317626953125
-0.0032958984375
0.0157470703125
0.0552978515625
-0.161895751953125
-0.0018310546875
-0.0025634765625
-0.0040283203125
-0.0025634765625
-0.005859375
-0.01025390625
-0.0062255859375
-0.0216064453125
-0.005859375
-0.0303955078125
-0.0025634765625
-0.0201416015625
0.0010986328125
0.0296630859375
0.003662109375
0.059326171875
0.003662109375
0.0289306640625
0.00146484375
0.0032958984375
0.00146484375
0.000732421875
0.000732421875
-0.012451171875
-0.0106201171875
-0.00732421875
-0.0084228515625
0.0120849609375
0.0054931640625
0.012451171875
0.0032958984375
0.0076904296875
-0.000732421875
0.002197265625
-0.0018310546875
-0.000732421875
0.0032958984375
-0.0142822265625
-0.05126953125
0.123077392578125
-0.005859375
-0.0084228515625
0.0487060546875
-0.146881103515625
-0.0025634765625
-0.005126953125
-0.002197265625
-0.0076904296875
-0.0025634765625
-0.015380859375
-0.0029296875
-0.0223388671875
-0.00439453125
-0.0263671875
-0.0040283203125
-0.01318359375
-0.00146484375
0.041015625
0.0010986328125
0.057861328125
0.0003662109375
0.0216064453125
-0.002197265625
0.002197265625
0.0018310546875
0.0
-0.000732421875
-0.01171875
-0.00732421875
-0.0076904296875
-0.000732421875
0.0128173828125
0.00732421875
0.0135498046875
0.005126953125
0.0076904296875
-0.000732421875
0.002197265625
-0.000732421875
-0.000732421875
-0.0076904296875
-0.0076904296875
-0.022705078125
0.0596923828125
0.0113525390625
-0.01171875
0.025634765625
-0.0809326171875
-0.0003662109375
-0.0062255859375
-0.0010986328125
-0.00732421875
-0.0018310546875
-0.013916015625
-0.0040283203125
-0.0230712890625
-0.0047607421875
-0.0238037109375
-0.000732421875
-0.0076904296875
0.0032958984375
0.038818359375
0.0040283203125
0.0498046875
0.0018310546875
0.0157470703125
-0.000732421875
0.0003662109375
-0.0003662109375
-0.00146484375
-0.00732421875
-0.0106201171875
-0.012451171875
-0.005126953125
-0.008056640625
0.01318359375
-0.0025634765625
0.015380859375
-0.0032958984375
0.00732421875
-0.005859375
0.0010986328125
-0.0025634765625
0.002197265625
-0.021240234375
0.02783203125
-0.012451171875
0.03955078125
0.0208740234375
-0.0435791015625
0.0098876953125
-0.057861328125
-0.003662109375
-0.00439453125
-0.0029296875
-0.0084228515625
-0.00439453125
-0.01611328125
-0.005126953125
-0.0234375
-0.00439453125
-0.0263671875
0.00146484375
-0.0040283203125
0.006591796875
0.044677734375
0.005859375
0.0479736328125
0.002197265625
0.01318359375
-0.002197265625
0.0
-0.00146484375
-0.005859375
-0.0084228515625
-0.0128173828125
-0.00732421875
0.0018310546875
0.0025634765625
0.0179443359375
0.0047607421875
0.010986328125
0.0040283203125
0.0018310546875
0.000732421875
-0.00146484375
0.0054931640625
-0.0164794921875
-0.0596923828125
0.161895751953125
0.000732421875
0.0003662109375
0.064453125
-0.184600830078125
-0.0003662109375
-0.010986328125
-0.000732421875
-0.008056640625
-0.0003662109375
-0.012451171875
-0.000732421875
-0.0201416015625
-0.00146484375
-0.0274658203125
-0.000732421875
-0.025634765625
0.0
0.01611328125
0.0029296875
0.0589599609375
0.0032958984375
0.038818359375
0.0010986328125
0.006591796875
0.0029296875
0.0003662109375
0.0047607421875
-0.0113525390625
-0.0084228515625
-0.00732421875
-0.0076904296875
0.0084228515625
0.008056640625
0.0087890625
0.0047607421875
0.006591796875
-0.000732421875
0.0018310546875
0.0018310546875
0.003662109375
0.0047607421875
-0.0216064453125
-0.041748046875
0.103271484375
0.000732421875
0.0069580078125
0.04541015625
-0.123046875
0.0003662109375
-0.005859375
-0.0018310546875
-0.0069580078125
0.0029296875
-0.0150146484375
-0.003662109375
-0.0106201171875
-0.002197265625
-0.0216064453125
-0.00732421875
-0.0091552734375
-0.0029296875
0.03662109375
0.01318359375
0.044677734375
0.0
0.0201416015625
-0.0087890625
0.0032958984375
-0.0010986328125
-0.00439453125
-0.0047607421875
-0.0205078125
-0.0281982421875
0.0025634765625
-0.0164794921875
0.0164794921875
-0.008056640625
-0.0003662109375
-0.02490234375
-0.0150146484375
-0.029296875
-0.0281982421875
-0.0128173828125
-0.0567626953125
-0.07763671875
0.0860595703125
-0.0128173828125
-0.040283203125
0.0618896484375
-0.19775390625
-0.006591796875
-0.052001953125
-0.0040283203125
-0.039581298828125
-0.0047607421875
-0.021636962890625
-0.0062255859375
-0.01904296875
-0.0069580078125
-0.04248046875
-0.0172119140625
-0.0333251953125
-0.0128173828125
0.008056640625
-0.009521484375
0.0435791015625
-0.0186767578125
0.0311279296875
-0.0142822265625
-0.0003662109375
-0.003662109375
-0.0054931640625
-0.0032958984375
-0.017578125
-0.005859375
-0.0084228515625
0.0029296875
0.012451171875
0.0069580078125
0.01904296875
0.008056640625
0.0120849609375
0.0084228515625
0.0018310546875
0.0084228515625
0.0054931640625
-0.0087890625
0.010986328125
-0.01318359375
0.061187744140625
0.028564453125
-0.0201416015625
0.030029296875
-0.073272705078125
0.0047607421875
-0.0054931640625
0.005126953125
-0.0135498046875
0.0003662109375
-0.0135498046875
-0.002197265625
-0.0179443359375
0.00146484375
-0.0230712890625
0.0032958984375
0.0
0.0029296875
0.0479736328125
0.005859375
0.054931640625
0.0040283203125
0.020172119140625
0.0010986328125
0.001861572265625
-0.00146484375
-0.005889892578125
-0.000732421875
-0.00146484375
0.0025634765625
0.012847900390625
0.0076904296875
0.0179443359375
0.01025390625
0.0091552734375
0.00439453125
0.005126953125
0.0025634765625
0.003662109375
-0.01904296875
0.0267333984375
-0.0150146484375
0.0531005859375
0.0245361328125
-0.0428466796875
0.022705078125
-0.0670166015625
0.0010986328125
0.00146484375
-0.000732421875
-0.003662109375
0.0010986328125
-0.011383056640625
-0.0003662109375
-0.020538330078125
0.0010986328125
-0.017578125
0.0025634765625
0.0032958984375
0.0069580078125
0.047637939453125
0.0076904296875
0.052398681640625
0.00732421875
0.0157470703125
0.0087890625
0.005859375
0.0040283203125
-0.00732421875
-0.0018310546875
-0.010986328125
-0.0047607421875
0.0146484375
0.0084228515625
0.021240234375
0.0146484375
0.0120849609375
0.0040283203125
0.009521484375
0.0087890625
0.0047607421875
0.00732421875
-0.01904296875
-0.0450439453125
0.09375
0.0062255859375
0.0087890625
0.046142578125
-0.1036376953125
0.0018310546875
-0.00146484375
0.00439453125
-0.0076904296875
0.0003662109375
-0.013916015625
0.0018310546875
-0.0223388671875
-0.0054931640625
-0.0135498046875
-0.005126953125
0.005126953125
0.0
0.0384521484375
0.000732421875
0.0465087890625
-0.000732421875
0.017578125
0.0054931640625
0.0003662109375
0.0087890625
-0.01171875
-0.00439453125
-0.0106201171875
-0.003662109375
0.005126953125
0.006591796875
0.022705078125
0.005859375
0.018310546875
0.0029296875
0.0084228515625
0.0069580078125
0.003662109375
0.0128173828125
-0.0377197265625
-0.0574951171875
0.1343994140625
0.002197265625
0.032958984375
0.0699462890625
-0.1365966796875
0.000732421875
0.0032958984375
0.0040283203125
-0.005859375
0.008056640625
-0.0128173828125
-0.00146484375
-0.0128173828125
-0.0025634765625
-0.0186767578125
0.005859375
-0.0194091796875
0.0010986328125
0.0281982421875
0.0018310546875
0.0516357421875
0.0010986328125
0.0216064453125
-0.0040283203125
0.0
0.00146484375
-0.0333251953125
-0.010986328125
-0.015380859375
-0.0025634765625
0.0318603515625
0.012451171875
0.038818359375
0.0120849609375
0.030029296875
0.0069580078125
0.0260009765625
-0.0040283203125
0.02197265625
0.0010986328125
-0.0128173828125
-0.0802001953125
0.141754150390625
-0.0087890625
0.01904296875
0.0655517578125
-0.139190673828125
-0.008056640625
0.0018310546875
-0.0106201171875
0.0010986328125
-0.017578125
0.0
-0.0106201171875
-0.009521484375
0.0
-0.0223388671875
-0.0076904296875
-0.0098876953125
-0.006591796875
0.03076171875
0.0087890625
0.046875
0.0025634765625
0.0311279296875
0.01025390625
0.0010986328125
0.0087890625
-0.0087890625
-0.006591796875
-0.008056640625
-0.0076904296875
0.009521484375
0.0098876953125
0.0296630859375
0.0208740234375
0.0234375
0.0106201171875
0.0230712890625
0.0084228515625
0.021240234375
0.0069580078125
0.0128173828125
-0.06005859375
0.143585205078125
0.0032958984375
0.002197265625
0.06298828125
-0.137359619140625
0.00146484375
-0.005126953125
0.005126953125
-0.00732421875
0.012451171875
-0.0087890625
0.02490234375
-0.02197265625
0.0245361328125
-0.025634765625
0.0252685546875
-0.0142822265625
0.03369140625
0.0208740234375
0.0296630859375
0.066650390625
0.0230712890625
0.068878173828125
0.026763916015625
0.033355712890625
0.022003173828125
0.02490234375
0.009521484375
0.0205078125
-0.0076904296875
0.0267333984375
-0.051300048828125
0.0662841796875
-0.067047119140625
0.05859375
-0.0399169921875
0.031494140625
-0.0234375
0.0150146484375
0.0029296875
-0.02197265625
0.0120849609375
-0.0472412109375
0.0186767578125
-0.01318359375
0.0322265625
-0.0816650390625
0.0340576171875
-0.144317626953125
0.0164794921875
-0.094146728515625
-0.0029296875
-0.0853271484375
0.0040283203125
-0.088623046875
-0.01318359375
-0.0860595703125
-0.016845703125
-0.08349609375
0.006591796875
-0.0604248046875
0.0054931640625
-0.005126953125
-0.0084228515625
0.0142822265625
-0.0355224609375
-0.0003662109375
-0.0703125
-0.005126953125
-0.0963134765625
-0.0223388671875
-0.0933837890625
-0.0194091796875
-0.0732421875
0.0087890625
-0.040283203125
0.0054931640625
-0.0260009765625
0.0
-0.04541015625
-0.01171875
-0.056793212890625
-0.017578125
-0.057525634765625
0.041015625
-0.0032958984375
-0.011749267578125
0.049072265625
-0.094879150390625
0.0208740234375
-0.0333251953125
0.0
0.000732421875
0.0084228515625
-0.0164794921875
-0.0179443359375
0.0047607421875
-0.024169921875
0.00732421875
0.000732421875
-0.0164794921875
-0.0091552734375
0.01904296875
0.0025634765625
0.0523681640625
0.035552978515625
0.024169921875
0.01611328125
0.007354736328125
-0.003692626953125
0.018707275390625
0.028594970703125
-0.023468017578125
0.0010986328125
0.0069580078125
-0.028594970703125
0.050567626953125
0.041046142578125
-0.008056640625
0.009918212890625
0.0150146484375
0.00732421875
0.022705078125
0.0230712890625
-0.008056640625
-0.084259033203125
0.15087890625
0.021240234375
0.006591796875
0.084991455078125
-0.129638671875
0.0142822265625
0.0040283203125
0.0439453125
-0.0289306640625
0.0413818359375
-0.0274658203125
-0.017578125
0.0076904296875
-0.01318359375
-0.0047607421875
0.00146484375
-0.0029296875
-0.01025390625
0.0281982421875
0.01318359375
0.0369873046875
0.0032958984375
0.0296630859375
0.01318359375
0.003662109375
0.0260009765625
-0.0113525390625
-0.0106201171875
0.01025390625
0.0062255859375
0.008056640625
0.031494140625
0.000732421875
0.0128173828125
0.01318359375
-0.005126953125
0.022705078125
-0.015380859375
0.0303955078125
0.016845703125
-0.028564453125
-0.0509033203125
0.11572265625
-0.0238037109375
0.03369140625
0.04248046875
-0.1080322265625
-0.006591796875
0.012451171875
0.002197265625
-0.0054931640625
-0.0069580078125
-0.0010986328125
-0.010986328125
0.0029296875
-0.0003662109375
-0.0098876953125
0.00439453125
-0.00732421875
0.012451171875
0.0333251953125
-0.006591796875
0.053466796875
-0.0040283203125
0.0186767578125
-0.0010986328125
-0.0032958984375
-0.0208740234375
-0.017578125
0.01611328125
-0.019775390625
-0.0087890625
0.0391845703125
-0.0252685546875
0.0380859375
0.0234375
-0.005126953125
0.0084228515625
-0.0076904296875
0.0087890625
-0.0091552734375
-0.0413818359375
0.1087646484375
-0.0234375
0.0120849609375
0.0260009765625
-0.1080322265625
0.005859375
-0.0164794921875
-0.018310546875
0.0106201171875
-0.0186767578125
0.006591796875
0.005859375
-0.0106201171875
-0.0201416015625
-0.0047607421875
0.0003662109375
-0.0201416015625
0.038818359375
-0.015380859375
-0.008056640625
0.059326171875
-0.0146484375
0.0531005859375
0.02490234375
-0.01904296875
0.0333251953125
-0.0369873046875
-0.012451171875
-0.0010986328125
-0.047607421875
0.0391845703125
0.0029296875
0.0113525390625
0.013916015625
0.0
-0.000732421875
0.00439453125
-0.0113525390625
0.0091552734375
0.0
-0.0234375
-0.0263671875
0.089752197265625
0.002197265625
0.0128173828125
0.04248046875
-0.117584228515625
0.0076904296875
-0.01025390625
0.005126953125
-0.0113525390625
0.005859375
-0.0106201171875
-0.0084228515625
-0.009521484375
-0.0069580078125
-0.0172119140625
0.013916015625
-0.0146484375
-0.0054931640625
0.0311279296875
-0.00439453125
0.0399169921875
-0.0010986328125
0.006591796875
-0.016845703125
-0.0003662109375
-0.022705078125
-0.013916015625
-0.0289306640625
-0.0003662109375
-0.0142822265625
0.01318359375
0.000732421875
0.0091552734375
0.009521484375
0.0098876953125
0.006591796875
0.0032958984375
-0.002197265625
-0.0025634765625
-0.060821533203125
0.104034423828125
0.01025390625
-0.0128173828125
0.042877197265625
-0.116851806640625
-0.0194091796875
-0.00439453125
-0.005859375
-0.000732421875
-0.009521484375
-0.0040283203125
-0.0040283203125
-0.0201416015625
0.0087890625
-0.038818359375
0.0098876953125
-0.031494140625
-0.01611328125
0.0260009765625
0.0146484375
0.03955078125
0.0333251953125
0.017578125
-0.0010986328125
0.0069580078125
-0.0018310546875
-0.005859375
0.00732421875
-0.0205078125
-0.0029296875
-0.009521484375
-0.00439453125
0.0238037109375
0.003662109375
0.018310546875
0.0230712890625
-0.009521484375
-0.006591796875
0.008056640625
-0.0003662109375
-0.03515625
-0.0325927734375
0.112091064453125
0.0010986328125
0.0263671875
0.0611572265625
-0.139923095703125
-0.0029296875
-0.00146484375
-0.0194091796875
0.0091552734375
0.0263671875
-0.029296875
0.008056640625
-0.0289306640625
-0.02490234375
-0.0091552734375
0.0120849609375
-0.01611328125
-0.003662109375
0.041015625
0.0
0.053466796875
0.00439453125
0.0263671875
0.0120849609375
-0.0054931640625
0.043212890625
-0.0501708984375
-0.01318359375
-0.006591796875
-0.0216064453125
0.02197265625
0.01171875
0.012451171875
0.0029296875
0.0146484375
-0.0091552734375
0.008056640625
0.008056640625
-0.01025390625
-0.0087890625
0.087890625
-0.013916015625
0.0047607421875
0.0439453125
-0.1234130859375
0.0146484375
-0.0194091796875
0.0018310546875
-0.0098876953125
-0.009521484375
-0.0032958984375
0.0010986328125
-0.0201416015625
-0.02197265625
-0.0025634765625
-0.031494140625
0.0018310546875
0.0032958984375
0.00439453125
0.0238037109375
0.0340576171875
0.0150146484375
0.030029296875
-0.0069580078125
0.021240234375
0.0263671875
-0.02490234375
0.0029296875
-0.02197265625
-0.0179443359375
0.010986328125
-0.0025634765625
0.019775390625
0.0135498046875
0.005126953125
0.0186767578125
-0.0098876953125
-0.00732421875
0.0040283203125
-0.00146484375
-0.0245361328125
-0.0487060546875
0.10107421875
-0.0040283203125
0.0150146484375
0.0640869140625
-0.126708984375
0.005859375
-0.010986328125
-0.005859375
-0.005126953125
-0.005859375
-0.01171875
0.0003662109375
-0.0238037109375
-0.0025634765625
-0.019775390625
-0.00146484375
-0.0040283203125
0.0029296875
0.0318603515625
0.0069580078125
0.0362548828125
0.0029296875
0.013916015625
0.00439453125
0.0010986328125
-0.0120849609375
-0.00732421875
-0.0128173828125
-0.0003662109375
0.005126953125
0.02197265625
0.010986328125
0.019775390625
0.009521484375
0.00439453125
0.0029296875
0.002197265625
0.010986328125
-0.0274658203125
-0.068115234375
0.131134033203125
-0.0062255859375
0.0106201171875
0.0684814453125
-0.145782470703125
0.0029296875
-0.006591796875
0.000732421875
-0.0054931640625
-0.0087890625
-0.0029296875
-0.010986328125
-0.009521484375
0.01171875
-0.0355224609375
-0.0029296875
-0.0201416015625
-0.018310546875
0.0347900390625
0.0263671875
0.03369140625
0.015380859375
0.0186767578125
-0.005126953125
0.0098876953125
-0.0135498046875
-0.0076904296875
-0.018310546875
-0.0069580078125
0.0084228515625
-0.0010986328125
0.02783203125
0.0010986328125
-0.00439453125
0.0194091796875
-0.0106201171875
0.0076904296875
0.0234375
-0.01611328125
-0.003662109375
-0.0029296875
-0.0322265625
0.060791015625
0.0098876953125
-0.013916015625
0.016845703125
-0.06591796875
0.0047607421875
-0.008056640625
-0.005126953125
-0.0069580078125
-0.00732421875
-0.0128173828125
-0.019775390625
-0.0047607421875
0.0069580078125
-0.0194091796875
0.0076904296875
0.0128173828125
-0.0113525390625
0.0791015625
0.0457763671875
0.0347900390625
-0.0062255859375
0.0384521484375
-0.0098876953125
0.0150146484375
0.0157470703125
-0.0208740234375
0.0003662109375
0.0135498046875
0.009521484375
0.0274658203125
0.0318603515625
0.013916015625
0.0362548828125
0.003662109375
0.0362548828125
-0.0098876953125
0.0325927734375
-0.0318603515625
-0.032958984375
0.116485595703125
0.00732421875
-0.0025634765625
0.0435791015625
-0.139556884765625
0.0098876953125
-0.00732421875
0.0296630859375
-0.006591796875
0.0380859375
-0.008056640625
0.032989501953125
-0.01171875
0.019073486328125
-0.0084228515625
0.0142822265625
0.00146484375
0.017578125
0.035888671875
0.0194091796875
0.04833984375
0.0194091796875
0.021240234375
0.0150146484375
-0.000732421875
0.000732421875
-0.01318359375
-0.0018310546875
0.002197265625
0.0087890625
0.019775390625
0.0113525390625
0.012451171875
0.01025390625
0.005859375
0.0062255859375
0.00146484375
0.00732421875
-0.0281982421875
-0.072540283203125
0.174713134765625
-0.0062255859375
0.005126953125
0.072174072265625
-0.199981689453125
-0.002197265625
-0.006591796875
-0.005126953125
-0.0076904296875
-0.0032958984375
-0.015380859375
-0.0010986328125
-0.024169921875
-0.002197265625
-0.0274658203125
-0.002197265625
-0.019775390625
-0.0018310546875
0.022705078125
-0.00146484375
0.052001953125
-0.0010986328125
0.0263671875
-0.00146484375
0.000732421875
-0.009521484375
-0.0157470703125
-0.0120849609375
-0.0069580078125
-0.0010986328125
0.01171875
0.0029296875
0.010986328125
-0.0018310546875
0.005126953125
-0.0069580078125
-0.0010986328125
-0.005126953125
-0.005859375
-0.056060791015625
0.134429931640625
-0.006591796875
-0.0091552734375
0.045074462890625
-0.164093017578125
-0.0091552734375
-0.01904296875
-0.0087890625
-0.0113525390625
-0.0054931640625
-0.0194091796875
-0.008056640625
-0.0234375
-0.0135498046875
-0.025634765625
-0.012481689453125
-0.02490234375
-0.008087158203125
0.0025634765625
-0.003662109375
0.044677734375
-0.000732421875
0.0347900390625
-0.00146484375
0.0003662109375
-0.000732421875
-0.01171875
-0.010986328125
-0.0091552734375
-0.01171875
0.005126953125
0.000732421875
0.0135498046875
-0.00146484375
0.0113525390625
-0.005859375
0.0062255859375
-0.005859375
0.005126953125
-0.002197265625
-0.0252685546875
-0.0498046875
0.132598876953125
-0.006591796875
0.0135498046875
0.0428466796875
-0.148345947265625
-0.0054931640625
-0.003662109375
-0.00732421875
-0.0076904296875
-0.006591796875
-0.0142822265625
-0.0091552734375
-0.0216064453125
-0.009521484375
-0.0289306640625
-0.0047607421875
-0.0179443359375
-0.0029296875
0.0318603515625
-0.002197265625
0.050537109375
-0.0003662109375
0.0205078125
-0.0025634765625
0.0
-0.0128173828125
-0.01611328125
-0.012451171875
-0.00732421875
-0.0010986328125
0.0135498046875
0.0032958984375
0.0146484375
0.00146484375
0.0069580078125
-0.002197265625
0.0003662109375
0.0
-0.0029296875
-0.049072265625
0.116119384765625
-0.0032958984375
0.0010986328125
0.0435791015625
-0.135528564453125
-0.00439453125
-0.021240234375
-0.003662109375
-0.009521484375
-0.0047607421875
-0.013916015625
-0.005126953125
-0.0201416015625
-0.006591796875
-0.0263671875
-0.00439453125
-0.0260009765625
0.0
0.010986328125
0.0003662109375
0.056396484375
-0.000732421875
0.041015625
-0.0003662109375
0.008056640625
0.002197265625
-0.010986328125
-0.0084228515625
-0.0113525390625
-0.0087890625
0.005859375
0.006591796875
0.01171875
0.00439453125
0.01025390625
-0.000732421875
0.003662109375
-0.00146484375
-0.00146484375
0.0
-0.0238037109375
-0.06005859375
0.154205322265625
-0.0010986328125
0.000732421875
0.0596923828125
-0.179107666015625
-0.002197265625
-0.0069580078125
-0.002197265625
-0.009521484375
-0.00146484375
-0.015380859375
-0.0040283203125
-0.0245361328125
-0.006591796875
-0.0289306640625
-0.0029296875
-0.0157470703125
-0.0003662109375
0.0380859375
-0.000732421875
0.0604248046875
0.0003662109375
0.022705078125
0.0025634765625
0.0003662109375
0.0010986328125
-0.01318359375
-0.01025390625
-0.00732421875
-0.0054931640625
0.0106201171875
0.0098876953125
0.01171875
0.006591796875
0.006591796875
0.000732421875
0.0010986328125
0.0018310546875
-0.0010986328125
-0.008056640625
0.03076171875
-0.0263671875
0.071044921875
0.012451171875
-0.054931640625
0.0303955078125
-0.0966796875
0.000732421875
-0.0069580078125
-0.000732421875
-0.0113525390625
-0.0025634765625
-0.0186767578125
-0.0025634765625
-0.0260009765625
-0.0018310546875
-0.0281982421875
0.0003662109375
-0.0047607421875
0.000732421875
0.049072265625
0.0025634765625
0.0523681640625
0.003662109375
0.013916015625
0.00146484375
0.0
-0.0062255859375
-0.0150146484375
-0.0091552734375
-0.0098876953125
-0.0003662109375
0.0120849609375
0.006591796875
0.0142822265625
0.005126953125
0.0084228515625
0.0
0.0018310546875
0.0003662109375
-0.0003662109375
-0.0230712890625
0.0567626953125
-0.0113525390625
0.030029296875
0.027099609375
-0.0791015625
0.0150146484375
-0.054931640625
0.0003662109375
-0.0084228515625
0.0018310546875
-0.013916015625
0.0
-0.0194091796875
-0.00439453125
-0.0234375
-0.006591796875
-0.024169921875
-0.0029296875
-0.00439453125
0.0010986328125
0.0421142578125
0.002197265625
0.04248046875
0.00146484375
0.008056640625
0.0025634765625
-0.00146484375
-0.0054931640625
-0.01318359375
-0.0091552734375
-0.00732421875
-0.0003662109375
0.012451171875
0.0029296875
0.012451171875
0.0032958984375
0.006591796875
-0.00146484375
0.00146484375
-0.0032958984375
0.0010986328125
-0.0216064453125
0.0274658203125
-0.0106201171875
0.03955078125
0.0201416015625
-0.0413818359375
0.00732421875
-0.0589599609375
-0.00439453125
-0.0076904296875
-0.0029296875
-0.0076904296875
-0.0047607421875
-0.0142822265625
-0.0076904296875
-0.0245361328125
-0.006591796875
-0.02490234375
0.000732421875
-0.0010986328125
0.0062255859375
0.04541015625
0.005126953125
0.046875
0.0029296875
0.01171875
0.0018310546875
0.0003662109375
-0.0091552734375
-0.01025390625
-0.009521484375
-0.0040283203125
0.00146484375
0.0128173828125
0.0047607421875
0.0150146484375
0.00439453125
0.0106201171875
0.0003662109375
0.0025634765625
0.0003662109375
0.00146484375
-0.03076171875
0.0750732421875
-0.0032958984375
0.0172119140625
0.0322265625
-0.0911865234375
0.0025634765625
-0.0362548828125
-0.0029296875
-0.0069580078125
-0.0029296875
-0.01171875
-0.0025634765625
-0.016845703125
-0.0040283203125
-0.0245361328125
-0.0029296875
-0.0260009765625
0.0025634765625
0.00439453125
0.003662109375
0.0531005859375
0.0029296875
0.0465087890625
0.0010986328125
0.0106201171875
0.0003662109375
-0.00146484375
-0.0062255859375
-0.012451171875
-0.0076904296875
-0.0047607421875
0.002197265625
0.0135498046875
0.006591796875
0.0146484375
0.0047607421875
0.0069580078125
0.000732421875
0.000732421875
0.0010986328125
0.0003662109375
-0.0340576171875
0.0948486328125
-0.002197265625
0.0113525390625
0.0355224609375
-0.116455078125
0.0018310546875
-0.03515625
-0.00146484375
-0.00732421875
-0.0018310546875
-0.01171875
-0.0029296875
-0.0194091796875
-0.0032958984375
-0.02783203125
-0.0029296875
-0.0274658203125
-0.000732421875
0.005859375
0.00146484375
0.057861328125
0.0029296875
0.0472412109375
0.0025634765625
0.00732421875
0.00146484375
-0.0018310546875
-0.0032958984375
-0.0150146484375
-0.0076904296875
-0.0069580078125
-0.0025634765625
0.012451171875
0.0054931640625
0.013916015625
0.00439453125
0.0084228515625
-0.0003662109375
0.000732421875
-0.0010986328125
-0.0003662109375
-0.012451171875
0.0025634765625
-0.0274658203125
0.0633544921875
0.0098876953125
-0.02490234375
0.0252685546875
-0.087890625
-0.00439453125
-0.0076904296875
-0.0062255859375
-0.01171875
-0.00439453125
-0.0172119140625
-0.00439453125
-0.0230712890625
-0.005859375
-0.0260009765625
-0.0003662109375
-0.006591796875
0.00439453125
0.03955078125
0.0040283203125
0.0457763671875
0.003662109375
0.0128173828125
0.0003662109375
0.0003662109375
-0.002197265625
-0.0113525390625
-0.0120849609375
-0.0076904296875
-0.0087890625
0.0128173828125
0.006591796875
0.016845703125
0.0047607421875
0.0106201171875
0.0
0.0025634765625
-0.000732421875
0.00146484375
0.0040283203125
-0.02490234375
-0.0465087890625
0.138092041015625
-0.0029296875
0.015380859375
0.0487060546875
-0.150543212890625
-0.0010986328125
-0.003662109375
-0.0018310546875
-0.0076904296875
-0.0018310546875
-0.01318359375
-0.0032958984375
-0.0205078125
-0.0047607421875
-0.029296875
-0.0010986328125
-0.0205078125
0.0054931640625
0.0333251953125
0.006591796875
0.060791015625
0.0054931640625
0.0252685546875
0.0040283203125
0.00146484375
0.0018310546875
-0.0091552734375
-0.0106201171875
-0.01318359375
-0.008056640625
0.0047607421875
0.0062255859375
0.0150146484375
0.005859375
0.0106201171875
0.003662109375
0.0054931640625
0.000732421875
0.00146484375
0.0040283203125
-0.0234375
-0.0604248046875
0.171417236328125
-0.002197265625
0.00732421875
0.0633544921875
-0.194122314453125
-0.000732421875
-0.008056640625
-0.003662109375
-0.0076904296875
-0.002197265625
-0.0135498046875
-0.0025634765625
-0.02197265625
-0.0062255859375
-0.031494140625
-0.0032958984375
-0.0238037109375
0.0018310546875
0.0296630859375
0.0047607421875
0.064453125
0.005126953125
0.032958984375
0.0025634765625
0.0054931640625
0.003662109375
-0.0069580078125
-0.00732421875
-0.0113525390625
-0.00732421875
0.0047607421875
0.0062255859375
0.0150146484375
0.0062255859375
0.009521484375
0.0032958984375
0.0018310546875
0.0003662109375
-0.00146484375
0.003662109375
-0.0263671875
-0.0615234375
0.170318603515625
-0.002197265625
0.0076904296875
0.06298828125
-0.192657470703125
0.0
-0.00732421875
0.0
-0.0091552734375
0.0
-0.0150146484375
-0.0003662109375
-0.022705078125
-0.003662109375
-0.0296630859375
-0.0018310546875
-0.0223388671875
0.0025634765625
0.0289306640625
0.0032958984375
0.06298828125
0.0047607421875
0.0318603515625
0.00439453125
0.00439453125
0.0032958984375
-0.01171875
-0.0084228515625
-0.0091552734375
-0.0069580078125
0.0076904296875
0.008056640625
0.010986328125
0.005859375
0.0091552734375
0.0018310546875
0.003662109375
0.0010986328125
0.0003662109375
0.00439453125
0.00732421875
-0.0450439453125
0.123077392578125
-0.00146484375
-0.0289306640625
0.047607421875
-0.146514892578125
-0.000732421875
-0.005859375
-0.000732421875
-0.01025390625
-0.00146484375
-0.01611328125
-0.0029296875
-0.0234375
-0.003662109375
-0.027099609375
-0.0010986328125
-0.01025390625
0.0018310546875
0.0435791015625
0.003662109375
0.05712890625
0.00439453125
0.01904296875
0.00439453125
0.0029296875
0.0018310546875
-0.0128173828125
-0.01025390625
-0.00732421875
-0.00732421875
0.012451171875
0.0069580078125
0.010986328125
0.0047607421875
0.0062255859375
0.0010986328125
0.002197265625
0.0
-0.000732421875
-0.0010986328125
0.0032958984375
-0.0333251953125
0.0816650390625
0.0025634765625
-0.02783203125
0.03662109375
-0.1080322265625
0.0010986328125
-0.0084228515625
0.0003662109375
-0.0106201171875
0.000732421875
-0.0150146484375
-0.002197265625
-0.021240234375
-0.006591796875
-0.0238037109375
-0.00146484375
-0.009521484375
0.005859375
0.0362548828125
0.00732421875
0.0465087890625
0.0040283203125
0.0150146484375
0.002197265625
0.002197265625
0.0040283203125
-0.01171875
-0.0087890625
-0.0091552734375
-0.0098876953125
0.0069580078125
0.0054931640625
0.01025390625
0.0029296875
0.0091552734375
-0.0010986328125
0.005126953125
0.0
0.0025634765625
0.0018310546875
-0.019775390625
-0.038818359375
0.1256103515625
-0.0029296875
0.0047607421875
0.0369873046875
-0.142822265625
-0.0040283203125
-0.00439453125
-0.005859375
-0.006591796875
-0.005859375
-0.0128173828125
-0.008056640625
-0.021240234375
-0.0106201171875
-0.02783203125
-0.005126953125
-0.015380859375
0.0040283203125
0.0380859375
0.005126953125
0.0545654296875
0.002197265625
0.01904296875
0.0003662109375
0.0025634765625
-0.0003662109375
-0.0087890625
-0.010986328125
-0.008056640625
-0.009521484375
0.0076904296875
0.0062255859375
0.01318359375
0.00439453125
0.0106201171875
-0.000732421875
0.005126953125
0.0003662109375
0.000732421875
0.00439453125
-0.0281982421875
-0.052001953125
0.143951416015625
-0.0040283203125
0.0142822265625
0.0523681640625
-0.161163330078125
-0.000732421875
-0.00439453125
-0.0025634765625
-0.006591796875
-0.0032958984375
-0.01318359375
-0.00439453125
-0.0201416015625
-0.005126953125
-0.02783203125
-0.002197265625
-0.0208740234375
0.003662109375
0.030029296875
0.0054931640625
0.059326171875
0.00439453125
0.0260009765625
0.00146484375
0.0040283203125
0.0
-0.0076904296875
-0.0098876953125
-0.0146484375
-0.0076904296875
0.0047607421875
0.003662109375
0.017578125
0.0069580078125
0.0106201171875
0.005859375
0.0032958984375
0.0010986328125
0.000732421875
0.00439453125
-0.0113525390625
-0.05712890625
0.180206298828125
0.0003662109375
-0.0032958984375
0.06005859375
-0.203643798828125
-0.00146484375
-0.0106201171875
-0.000732421875
-0.008056640625
-0.0003662109375
-0.01318359375
-0.00146484375
-0.021240234375
-0.0029296875
-0.0267333984375
-0.0029296875
-0.022705078125
-0.0010986328125
0.018310546875
0.00146484375
0.062255859375
0.0029296875
0.0413818359375
0.002197265625
0.00732421875
0.0025634765625
-0.0003662109375
-0.0025634765625
-0.0146484375
-0.0084228515625
-0.00732421875
-0.00146484375
0.0146484375
0.0076904296875
0.013916015625
0.0062255859375
0.0069580078125
0.0003662109375
0.0010986328125
-0.0003662109375
-0.0003662109375
-0.002197265625
0.0120849609375
-0.02783203125
0.0721435546875
0.0054931640625
-0.0340576171875
0.030029296875
-0.0963134765625
-0.0003662109375
-0.008056640625
0.0010986328125
-0.010986328125
0.000732421875
-0.0135498046875
-0.002197265625
-0.021240234375
-0.0054931640625
-0.02490234375
-0.0018310546875
-0.0076904296875
0.0047607421875
0.038818359375
0.008056640625
0.0479736328125
0.005126953125
0.01318359375
0.0
0.0010986328125
0.0018310546875
-0.003662109375
-0.005859375
-0.013916015625
-0.00732421875
0.0003662109375
0.0032958984375
0.0179443359375
0.005859375
0.0098876953125
0.00439453125
0.003662109375
0.0010986328125
0.00146484375
0.0040283203125
-0.0054931640625
-0.056396484375
0.1065673828125
0.0
-0.0018310546875
0.0589599609375
-0.1256103515625
-0.0029296875
-0.0150146484375
-0.0029296875
-0.006591796875
-0.0025634765625
-0.009521484375
-0.00439453125
-0.016845703125
-0.008056640625
-0.0245361328125
-0.00732421875
-0.02490234375
0.0003662109375
0.0087890625
0.0062255859375
0.0556640625
0.0047607421875
0.041015625
0.00146484375
0.00732421875
-0.00146484375
0.000732421875
-0.00146484375
-0.00732421875
-0.0098876953125
-0.006591796875
-0.0076904296875
0.00732421875
0.005126953125
0.0135498046875
0.0047607421875
0.01025390625
0.002197265625
0.00439453125
0.0003662109375
0.0003662109375
0.0047607421875
-0.0263671875
-0.062255859375
0.158966064453125
-0.0032958984375
0.0142822265625
0.0633544921875
-0.174346923828125
-0.000732421875
-0.00732421875
-0.0018310546875
-0.0076904296875
-0.0025634765625
-0.0113525390625
-0.003662109375
-0.02197265625
-0.0047607421875
-0.03076171875
-0.0018310546875
-0.0238037109375
0.0029296875
0.0234375
0.00439453125
0.0596923828125
0.0029296875
0.03369140625
0.0003662109375
0.0032958984375
-0.0010986328125
-0.0003662109375
0.0
-0.0120849609375
-0.01025390625
-0.008056640625
-0.0091552734375
0.0128173828125
0.00732421875
0.0128173828125
0.0054931640625
0.006591796875
-0.0003662109375
0.0
0.0
-0.0003662109375
0.005859375
-0.008056640625
-0.04833984375
0.1234130859375
-0.00439453125
-0.01318359375
0.0498046875
-0.147216796875
-0.0003662109375
-0.0054931640625
-0.0010986328125
-0.0091552734375
-0.000732421875
-0.0142822265625
-0.0018310546875
-0.0238037109375
-0.0040283203125
-0.0267333984375
-0.002197265625
-0.0120849609375
0.000732421875
0.038818359375
0.003662109375
0.0589599609375
0.00439453125
0.0230712890625
0.0010986328125
0.0029296875
0.00146484375
0.0010986328125
-0.0003662109375
-0.0120849609375
-0.009521484375
-0.006591796875
-0.0054931640625
0.0135498046875
0.00732421875
0.012451171875
0.0054931640625
0.005859375
0.0
0.0
0.0003662109375
-0.0003662109375
0.0010986328125
0.00439453125
-0.0318603515625
0.078369140625
0.00146484375
-0.0263671875
0.034423828125
-0.101806640625
-0.0003662109375
-0.0047607421875
-0.0010986328125
-0.0091552734375
-0.00146484375
-0.0142822265625
-0.002197265625
-0.0205078125
-0.0032958984375
-0.0234375
-0.0018310546875
-0.009521484375
0.0032958984375
0.0362548828125
0.005126953125
0.0494384765625
0.005126953125
0.015380859375
0.00439453125
-0.000732421875
0.0029296875
0.0
0.006591796875
-0.0091552734375
-0.0069580078125
-0.0062255859375
-0.009521484375
0.0076904296875
0.008056640625
0.009521484375
0.006591796875
0.006591796875
0.0010986328125
0.000732421875
0.0
-0.0010986328125
0.005859375
-0.041015625
-0.05126953125
0.11865234375
-0.0029296875
0.0234375
0.0545654296875
-0.1365966796875
-0.002197265625
-0.00439453125
-0.00439453125
-0.0062255859375
-0.00146484375
-0.01025390625
-0.0025634765625
-0.0186767578125
-0.006591796875
-0.0238037109375
-0.0029296875
-0.019775390625
0.006591796875
0.0208740234375
0.0098876953125
0.05126953125
0.006591796875
0.02490234375
0.0032958984375
0.002197265625
0.00146484375
0.0
0.002197265625
-0.0084228515625
-0.0069580078125
-0.0098876953125
-0.00732421875
0.0062255859375
0.0040283203125
0.0142822265625
0.002197265625
0.0106201171875
-0.0003662109375
0.005859375
-0.000732421875
0.002197265625
0.0029296875
-0.0252685546875
-0.0604248046875
0.145416259765625
-0.0040283203125
0.01318359375
0.0596923828125
-0.161895751953125
-0.002197265625
-0.005859375
-0.0040283203125
-0.0054931640625
-0.0047607421875
-0.0098876953125
-0.0047607421875
-0.017578125
-0.006591796875
-0.0267333984375
-0.003662109375
-0.02490234375
0.003662109375
0.0164794921875
0.0062255859375
0.0560302734375
0.0047607421875
0.0355224609375
0.0025634765625
0.005126953125
-0.0010986328125
0.0
-0.0018310546875
-0.0069580078125
-0.01025390625
-0.0076904296875
-0.00732421875
0.0069580078125
0.0054931640625
0.0146484375
0.005126953125
0.0091552734375
0.00146484375
0.0018310546875
-0.0003662109375
-0.000732421875
0.0047607421875
-0.024169921875
-0.0655517578125
0.166290283203125
-0.0029296875
0.0091552734375
0.0670166015625
-0.184967041015625
-0.000732421875
-0.0069580078125
-0.00146484375
-0.006591796875
-0.002197265625
-0.0120849609375
-0.002197265625
-0.0208740234375
-0.0025634765625
-0.0274658203125
-0.0029296875
-0.0234375
0.0003662109375
0.016845703125
0.00439453125
0.05712890625
0.003662109375
0.0384521484375
0.000732421875
0.0062255859375
0.0003662109375
-0.000732421875
0.0018310546875
-0.0069580078125
-0.008056640625
-0.009521484375
-0.0091552734375
0.005859375
0.00439453125
0.015380859375
0.005859375
0.0091552734375
0.0029296875
0.0029296875
0.000732421875
0.000732421875
0.0040283203125
-0.018310546875
-0.063720703125
0.169586181640625
-0.0018310546875
0.000732421875
0.065185546875
-0.192291259765625
-0.00146484375
-0.0076904296875
-0.0018310546875
-0.0069580078125
-0.00146484375
-0.0113525390625
-0.00146484375
-0.0179443359375
-0.0040283203125
-0.0234375
-0.0032958984375
-0.0223388671875
-0.0003662109375
0.01318359375
0.002197265625
0.0545654296875
0.003662109375
0.038818359375
0.0010986328125
0.0087890625
-0.000732421875
0.0
0.0010986328125
-0.0040283203125
-0.0069580078125
-0.012451171875
-0.0091552734375
-0.00146484375
0.0025634765625
0.0150146484375
0.0069580078125
0.0106201171875
0.0040283203125
0.0054931640625
-0.0003662109375
0.0
0.000732421875
-0.0018310546875
-0.0296630859375
0.05126953125
-0.00146484375
0.0091552734375
0.032958984375
-0.07177734375
0.0025634765625
-0.0303955078125
-0.0018310546875
-0.00439453125
-0.0025634765625
-0.0091552734375
-0.0025634765625
-0.0150146484375
-0.0047607421875
-0.019775390625
-0.005859375
-0.0205078125
-0.0010986328125
-0.0032958984375
0.005126953125
0.040283203125
0.006591796875
0.0443115234375
0.003662109375
0.010986328125
0.000732421875
0.0003662109375
-0.0003662109375
0.0003662109375
0.0032958984375
-0.005859375
-0.0069580078125
-0.008056640625
-0.0087890625
0.0032958984375
0.005126953125
0.01171875
0.0062255859375
0.009521484375
0.002197265625
0.00439453125
-0.0003662109375
0.0029296875
0.00439453125
-0.027099609375
-0.0633544921875
0.136627197265625
-0.0029296875
0.0146484375
0.06591796875
-0.153472900390625
0.0003662109375
-0.003662109375
-0.0029296875
-0.005126953125
-0.0029296875
-0.009521484375
-0.0029296875
-0.016845703125
-0.0054931640625
-0.02490234375
-0.003662109375
-0.022705078125
0.0047607421875
0.01318359375
0.0091552734375
0.0516357421875
0.0062255859375
0.0347900390625
0.0025634765625
0.0054931640625
-0.000732421875
-0.0032958984375
0.0003662109375
-0.0029296875
-0.005126953125
-0.01025390625
-0.00732421875
-0.005859375
0.000732421875
0.01171875
0.005859375
0.01318359375
0.00439453125
0.008056640625
0.000732421875
0.002197265625
-0.0003662109375
-0.000732421875
-0.009521484375
0.012451171875
-0.0157470703125
0.0560302734375
0.0106201171875
-0.0318603515625
0.016845703125
-0.076904296875
-0.0029296875
-0.0054931640625
-0.0025634765625
-0.008056640625
-0.002197265625
-0.013916015625
-0.0040283203125
-0.024169921875
-0.0040283203125
-0.029296875
0.00146484375
-0.0098876953125
0.005126953125
0.04248046875
0.0047607421875
0.0538330078125
0.0040283203125
0.017578125
0.0003662109375
0.0003662109375
-0.002197265625
-0.0010986328125
0.0010986328125
-0.005859375
-0.0084228515625
-0.0076904296875
-0.00732421875
0.005859375
0.0062255859375
0.0135498046875
0.0054931640625
0.00732421875
0.0032958984375
0.00146484375
0.000732421875
0.000732421875
0.005859375
-0.0296630859375
-0.0677490234375
0.178009033203125
-0.0032958984375
0.01171875
0.0714111328125
-0.200714111328125
-0.0003662109375
-0.006591796875
-0.0018310546875
-0.00732421875
-0.0010986328125
-0.013916015625
-0.002197265625
-0.0205078125
-0.00439453125
-0.0263671875
-0.0032958984375
-0.02197265625
0.0
0.0216064453125
0.0029296875
0.06005859375
0.0040283203125
0.0369873046875
0.000732421875
0.005859375
-0.0010986328125
-0.0018310546875
0.00146484375
0.0
-0.0029296875
-0.0098876953125
-0.0087890625
-0.0054931640625
-0.00146484375
0.0135498046875
0.0076904296875
0.0128173828125
0.00439453125
0.005859375
-0.000732421875
0.0003662109375
0.0
-0.00146484375
-0.010986328125
0.0157470703125
-0.0234375
0.05859375
0.0106201171875
-0.0377197265625
0.0216064453125
-0.0816650390625
-0.00146484375
-0.005859375
-0.000732421875
-0.0087890625
-0.00146484375
-0.013916015625
-0.002197265625
-0.0205078125
-0.0040283203125
-0.0238037109375
-0.0018310546875
-0.0084228515625
0.0032958984375
0.038818359375
0.005126953125
0.0494384765625
0.00439453125
0.0157470703125
0.00146484375
0.000732421875
0.0
-0.00146484375
0.00146484375
-0.002197265625
-0.005126953125
-0.0120849609375
-0.0054931640625
-0.0032958984375
0.0032958984375
0.0135498046875
0.0062255859375
0.0098876953125
0.0054931640625
0.0040283203125
0.0018310546875
0.0010986328125
0.0018310546875
-0.0025634765625
-0.041015625
0.059326171875
0.0010986328125
0.0047607421875
0.0439453125
-0.0772705078125
-0.000732421875
-0.0230712890625
-0.0025634765625
-0.006591796875
-0.0032958984375
-0.008056640625
-0.0032958984375
-0.0142822265625
-0.005859375
-0.0216064453125
-0.0069580078125
-0.022705078125
0.0003662109375
-0.00146484375
0.00732421875
0.0421142578125
0.006591796875
0.044677734375
0.003662109375
0.01171875
0.000732421875
-0.0003662109375
-0.002197265625
0.0010986328125
0.0003662109375
-0.0047607421875
-0.00732421875
-0.005859375
-0.008056640625
0.005859375
0.0047607421875
0.0120849609375
0.0032958984375
0.0098876953125
0.0
0.00439453125
0.0
0.0018310546875
0.003662109375
-0.030029296875
-0.0604248046875
0.144317626953125
-0.003662109375
0.01611328125
0.06005859375
-0.161895751953125
-0.002197265625
-0.0062255859375
-0.0032958984375
-0.00732421875
-0.0029296875
-0.0098876953125
-0.00439453125
-0.0179443359375
-0.0069580078125
-0.027099609375
-0.0040283203125
-0.0238037109375
0.0029296875
0.019775390625
0.0069580078125
0.05712890625
0.005126953125
0.0347900390625
0.0010986328125
0.0054931640625
-0.0010986328125
-0.0018310546875
-0.0003662109375
-0.0032958984375
-0.00732421875
-0.0120849609375
-0.0084228515625
-0.002197265625
0.002197265625
0.0135498046875
0.0076904296875
0.010986328125
0.00439453125
0.005126953125
-0.000732421875
-0.000732421875
0.0010986328125
-0.00146484375
-0.0333251953125
0.0897216796875
-0.00146484375
0.0091552734375
0.0355224609375
-0.1109619140625
0.002197265625
-0.0322265625
-0.000732421875
-0.005859375
-0.0018310546875
-0.01025390625
-0.0029296875
-0.0172119140625
-0.0032958984375
-0.02490234375
-0.00439453125
-0.0267333984375
-0.000732421875
-0.0003662109375
0.003662109375
0.0509033203125
0.0032958984375
0.05126953125
0.00146484375
0.0142822265625
-0.0003662109375
0.00146484375
0.00146484375
-0.000732421875
0.0003662109375
-0.01318359375
-0.0087890625
-0.006591796875
-0.0054931640625
0.0135498046875
0.00732421875
0.01171875
0.0062255859375
0.0076904296875
0.0003662109375
0.002197265625
0.0003662109375
-0.00146484375
0.0025634765625
-0.003662109375
-0.0355224609375
0.0882568359375
0.0
-0.0186767578125
0.0369873046875
-0.1109619140625
-0.0010986328125
-0.0040283203125
-0.0010986328125
-0.0091552734375
-0.00146484375
-0.0146484375
-0.002197265625
-0.0205078125
-0.00439453125
-0.024169921875
-0.002197265625
-0.01171875
0.0025634765625
0.0369873046875
0.003662109375
0.054931640625
0.0029296875
0.0208740234375
0.0010986328125
0.0018310546875
-0.0003662109375
-0.00146484375
0.0
-0.0032958984375
-0.0069580078125
-0.0098876953125
-0.00732421875
0.0003662109375
0.003662109375
0.0150146484375
0.006591796875
0.01025390625
0.003662109375
0.0029296875
0.0003662109375
-0.00146484375
0.0025634765625
-0.0040283203125
-0.0450439453125
0.084228515625
0.0010986328125
-0.0025634765625
0.046875
-0.10107421875
-0.0018310546875
-0.0150146484375
-0.0018310546875
-0.00732421875
-0.0018310546875
-0.0098876953125
-0.002197265625
-0.0146484375
-0.005126953125
-0.0201416015625
-0.0062255859375
-0.01904296875
-0.000732421875
-0.000732421875
0.005859375
0.038818359375
0.005859375
0.04248046875
0.00439453125
0.0098876953125
0.0003662109375
-0.0010986328125
-0.000732421875
0.0003662109375
0.0032958984375
-0.0047607421875
-0.0084228515625
-0.008056640625
-0.008056640625
0.003662109375
0.00732421875
0.01318359375
0.0062255859375
0.00732421875
0.002197265625
0.002197265625
0.000732421875
0.000732421875
0.0047607421875
-0.0263671875
-0.06298828125
0.135894775390625
-0.0025634765625
0.0128173828125
0.0648193359375
-0.152374267578125
-0.0010986328125
-0.005859375
-0.0029296875
-0.0062255859375
-0.0032958984375
-0.0098876953125
-0.0040283203125
-0.0172119140625
-0.0069580078125
-0.02490234375
-0.005859375
-0.0238037109375
0.0029296875
0.010986328125
0.008056640625
0.0523681640625
0.0062255859375
0.0384521484375
0.00146484375
0.0069580078125
-0.00146484375
-0.0018310546875
-0.0003662109375
0.0003662109375
-0.003662109375
-0.0087890625
-0.0087890625
-0.00439453125
-0.0029296875
0.012451171875
0.0062255859375
0.0120849609375
0.0040283203125
0.0076904296875
-0.0003662109375
0.0018310546875
0.000732421875
-0.0003662109375
0.002197265625
-0.01171875
-0.0311279296875
0.0941162109375
-0.0010986328125
-0.006591796875
0.0322265625
-0.1138916015625
-0.0010986328125
-0.0054931640625
-0.0040283203125
-0.0091552734375
-0.002197265625
-0.01318359375
-0.0029296875
-0.021240234375
-0.0062255859375
-0.0274658203125
-0.00146484375
-0.0157470703125
0.0054931640625
0.0355224609375
0.006591796875
0.0552978515625
0.0047607421875
0.0194091796875
0.00146484375
-0.0003662109375
-0.000732421875
-0.002197265625
0.0
-0.003662109375
-0.0069580078125
-0.008056640625
-0.006591796875
0.0025634765625
0.003662109375
0.0146484375
0.0069580078125
0.0091552734375
0.005126953125
0.0032958984375
0.0003662109375
0.0
0.0032958984375
-0.0087890625
-0.0523681640625
0.143585205078125
0.0003662109375
-0.0032958984375
0.054931640625
-0.165191650390625
-0.002197265625
-0.01171875
-0.00146484375
-0.0062255859375
-0.0018310546875
-0.012451171875
-0.0025634765625
-0.018310546875
-0.0032958984375
-0.025634765625
-0.003662109375
-0.0263671875
-0.0010986328125
0.005859375
0.0025634765625
0.0556640625
0.0032958984375
0.0479736328125
0.002197265625
0.009521484375
0.000732421875
-0.0003662109375
0.0010986328125
0.0003662109375
0.003662109375
-0.009521484375
-0.008056640625
-0.003662109375
-0.0087890625
0.010986328125
0.0076904296875
0.01171875
0.0069580078125
0.00732421875
0.00146484375
0.0003662109375
0.0003662109375
0.0
0.006591796875
-0.02783203125
-0.0509033203125
0.129669189453125
-0.0032958984375
0.0069580078125
0.05419921875
-0.152740478515625
-0.0010986328125
-0.0047607421875
-0.00146484375
-0.0069580078125
-0.0010986328125
-0.0135498046875
-0.0018310546875
-0.0208740234375
-0.0047607421875
-0.0245361328125
-0.003662109375
-0.016845703125
0.0
0.0296630859375
0.0029296875
0.0567626953125
0.00439453125
0.0274658203125
0.000732421875
0.0025634765625
-0.0003662109375
-0.00146484375
0.002197265625
0.0
-0.0025634765625
-0.01171875
-0.0084228515625
-0.006591796875
-0.002197265625
0.01171875
0.008056640625
0.0120849609375
0.0062255859375
0.0047607421875
0.0
0.0
0.0010986328125
-0.0003662109375
0.0018310546875
-0.027099609375
-0.029296875
0.0736083984375
0.0029296875
0.0084228515625
0.032958984375
-0.0941162109375
-0.00146484375
-0.0054931640625
-0.00146484375
-0.00732421875
-0.0010986328125
-0.012451171875
-0.003662109375
-0.019775390625
-0.0069580078125
-0.0245361328125
-0.0032958984375
-0.0128173828125
0.0047607421875
0.0322265625
0.0062255859375
0.049072265625
0.002197265625
0.0194091796875
-0.000732421875
0.0018310546875
-0.00146484375
-0.0029296875
-0.000732421875
-0.00146484375
-0.0062255859375
-0.0076904296875
-0.0069580078125
-0.0029296875
0.0
0.012451171875
0.0040283203125
0.012451171875
0.00439453125
0.005859375
0.000732421875
0.0003662109375
0.0003662109375
-0.00146484375
-0.0289306640625
0.046875
-0.0025634765625
0.0216064453125
0.030029296875
-0.0640869140625
0.0025634765625
-0.0384521484375
-0.0029296875
-0.0047607421875
-0.003662109375
-0.0069580078125
-0.0032958984375
-0.0142822265625
-0.0062255859375
-0.0234375
-0.008056640625
-0.027099609375
-0.000732421875
-0.008056640625
0.00732421875
0.0439453125
0.0062255859375
0.052001953125
0.002197265625
0.0157470703125
-0.000732421875
-0.000732421875
-0.002197265625
-0.0018310546875
0.0003662109375
-0.0047607421875
-0.008056640625
-0.009521484375
-0.00732421875
0.0032958984375
0.0040283203125
0.0164794921875
0.005859375
0.0113525390625
0.0029296875
0.0032958984375
-0.000732421875
0.000732421875
0.0040283203125
-0.01611328125
-0.057861328125
0.147247314453125
-0.0003662109375
0.0018310546875
0.0604248046875
-0.168121337890625
-0.00146484375
-0.0084228515625
-0.0010986328125
-0.005859375
-0.0010986328125
-0.01025390625
-0.0029296875
-0.018310546875
-0.00439453125
-0.0263671875
-0.0029296875
-0.0274658203125
0.00146484375
0.00732421875
0.0062255859375
0.0552978515625
0.005859375
0.044677734375
0.0018310546875
0.01025390625
-0.000732421875
-0.00146484375
0.0003662109375
0.0
-0.0003662109375
-0.009521484375
-0.0091552734375
-0.0069580078125
-0.0062255859375
0.01025390625
0.006591796875
0.0120849609375
0.005126953125
0.00732421875
0.0010986328125
0.000732421875
0.0003662109375
-0.000732421875
0.0047607421875
-0.01171875
-0.04248046875
0.106201171875
-0.0032958984375
-0.01025390625
0.0439453125
-0.1292724609375
-0.0010986328125
-0.006591796875
-0.00146484375
-0.0098876953125
-0.0010986328125
-0.013916015625
-0.0018310546875
-0.02197265625
-0.00439453125
-0.025634765625
-0.002197265625
-0.0146484375
0.000732421875
0.0355224609375
0.003662109375
0.05859375
0.0040283203125
0.02490234375
0.0003662109375
0.0040283203125
-0.0003662109375
-0.0010986328125
0.0018310546875
-0.0025634765625
-0.006591796875
-0.01025390625
-0.008056640625
-0.00146484375
0.0025634765625
0.013916015625
0.006591796875
0.01171875
0.00439453125
0.005126953125
0.0
0.000732421875
0.000732421875
-0.000732421875
-0.0333251953125
0.073974609375
-0.0010986328125
0.00732421875
0.03515625
-0.09521484375
0.00146484375
-0.029296875
-0.0018310546875
-0.005859375
-0.0018310546875
-0.0098876953125
-0.0025634765625
-0.0146484375
-0.00439453125
-0.0194091796875
-0.0047607421875
-0.0216064453125
-0.0018310546875
-0.0047607421875
0.0029296875
0.03955078125
0.0054931640625
0.046875
0.0032958984375
0.0146484375
0.0
-0.0003662109375
-0.0018310546875
-0.0018310546875
0.00146484375
-0.003662109375
-0.005859375
-0.01025390625
-0.0091552734375
0.000732421875
0.0018310546875
0.0135498046875
0.005126953125
0.0087890625
0.0025634765625
0.0018310546875
0.0
-0.0003662109375
0.0040283203125
-0.006591796875
-0.0582275390625
0.095947265625
0.0
-0.000732421875
0.060791015625
-0.112060546875
-0.0029296875
-0.010986328125
-0.0040283203125
-0.005859375
-0.0047607421875
-0.0087890625
-0.005126953125
-0.013916015625
-0.0084228515625
-0.0205078125
-0.0098876953125
-0.0238037109375
-0.00146484375
-0.0010986328125
0.00732421875
0.0443115234375
0.0054931640625
0.0443115234375
0.000732421875
0.0113525390625
-0.000732421875
-0.000732421875
-0.000732421875
-0.0010986328125
0.0
-0.005859375
-0.0098876953125
-0.0069580078125
-0.0084228515625
0.0062255859375
0.0047607421875
0.0135498046875
0.0047607421875
0.0087890625
0.000732421875
0.0032958984375
0.0
0.0010986328125
0.00439453125
-0.03369140625
-0.054931640625
0.135894775390625
-0.0032958984375
0.018310546875
0.0538330078125
-0.153106689453125
-0.0032958984375
-0.005859375
-0.0032958984375
-0.0084228515625
-0.002197265625
-0.010986328125
-0.0029296875
-0.017578125
-0.0069580078125
-0.025634765625
-0.0054931640625
-0.021240234375
0.00439453125
0.0179443359375
0.0084228515625
0.0545654296875
0.0054931640625
0.0369873046875
0.0025634765625
0.0069580078125
0.0
-0.0010986328125
0.0003662109375
0.000732421875
-0.005126953125
-0.0098876953125
-0.006591796875
-0.005859375
0.0010986328125
0.0128173828125
0.0069580078125
0.013916015625
0.0054931640625
0.008056640625
0.0010986328125
0.0
0.0018310546875
-0.0010986328125
-0.0047607421875
0.005859375
-0.0172119140625
0.05859375
0.0098876953125
-0.0267333984375
0.02197265625
-0.081298828125
-0.0003662109375
-0.0047607421875
-0.0010986328125
-0.0087890625
0.0
-0.015380859375
-0.0025634765625
-0.0234375
-0.005126953125
-0.0281982421875
-0.0003662109375
-0.0120849609375
0.00439453125
0.0413818359375
0.0047607421875
0.05712890625
0.0032958984375
0.0208740234375
0.0003662109375
0.0018310546875
-0.000732421875
0.0
0.00146484375
-0.006591796875
-0.0087890625
-0.0091552734375
-0.00732421875
0.0062255859375
0.0062255859375
0.013916015625
0.005126953125
0.0087890625
0.0025634765625
0.0025634765625
0.0003662109375
-0.0003662109375
0.0062255859375
-0.0325927734375
-0.0692138671875
0.180938720703125
-0.0040283203125
0.0146484375
0.0721435546875
-0.202178955078125
-0.0003662109375
-0.005859375
-0.00146484375
-0.00732421875
-0.000732421875
-0.0135498046875
-0.00146484375
-0.019775390625
-0.0040283203125
-0.027099609375
-0.0029296875
-0.0238037109375
0.0003662109375
0.0186767578125
0.003662109375
0.0604248046875
0.003662109375
0.0406494140625
0.0018310546875
0.006591796875
0.000732421875
-0.000732421875
0.0010986328125
-0.0003662109375
-0.0047607421875
-0.0120849609375
-0.008056640625
-0.0047607421875
0.0
0.0146484375
0.00732421875
0.0120849609375
0.005859375
0.0054931640625
0.000732421875
0.0003662109375
0.0003662109375
-0.0003662109375
-0.0120849609375
0.0216064453125
-0.0172119140625
0.0465087890625
0.0146484375
-0.0435791015625
0.0201416015625
-0.071044921875
-0.0010986328125
-0.00732421875
-0.00146484375
-0.0087890625
-0.0018310546875
-0.0135498046875
-0.003662109375
-0.0208740234375
-0.0054931640625
-0.0234375
-0.002197265625
-0.0098876953125
0.003662109375
0.0355224609375
0.006591796875
0.0487060546875
0.005126953125
0.016845703125
0.00146484375
0.00146484375
-0.000732421875
0.0
0.000732421875
-0.003662109375
-0.0047607421875
-0.010986328125
-0.0076904296875
-0.00146484375
0.0018310546875
0.0120849609375
0.006591796875
0.0098876953125
0.0032958984375
0.0047607421875
0.0010986328125
0.0003662109375
0.0029296875
-0.0010986328125
-0.038818359375
0.0567626953125
0.0003662109375
0.00439453125
0.040283203125
-0.0732421875
-0.0018310546875
-0.022705078125
-0.0029296875
-0.0047607421875
-0.0018310546875
-0.0091552734375
-0.0029296875
-0.013916015625
-0.006591796875
-0.0201416015625
-0.0076904296875
-0.0252685546875
0.0
-0.006591796875
0.008056640625
0.0406494140625
0.0069580078125
0.0472412109375
0.0032958984375
0.0150146484375
-0.0003662109375
0.000732421875
-0.0032958984375
-0.00146484375
-0.0047607421875
-0.009521484375
-0.012451171875
-0.0062255859375
-0.006591796875
0.008056640625
0.009521484375
0.01171875
0.0076904296875
0.009521484375
0.002197265625
0.0032958984375
0.000732421875
0.000732421875
0.005859375
-0.0377197265625
-0.0516357421875
0.126007080078125
-0.0040283203125
0.0230712890625
0.0545654296875
-0.141754150390625
0.0
-0.0040283203125
-0.00146484375
-0.0069580078125
-0.000732421875
-0.0106201171875
-0.002197265625
-0.0179443359375
-0.005126953125
-0.0252685546875
-0.002197265625
-0.0216064453125
0.00439453125
0.018310546875
0.005859375
0.0531005859375
0.0047607421875
0.0325927734375
0.002197265625
0.0047607421875
-0.0010986328125
-0.0029296875
0.000732421875
-0.0069580078125
-0.00732421875
-0.01171875
-0.00732421875
0.0010986328125
0.0047607421875
0.0164794921875
0.00732421875
0.0120849609375
0.00439453125
0.003662109375
0.0003662109375
0.0
0.0047607421875
-0.0087890625
-0.0516357421875
0.135894775390625
0.0003662109375
-0.0029296875
0.05419921875
-0.156768798828125
-0.0029296875
-0.01171875
-0.0018310546875
-0.005859375
-0.00146484375
-0.0113525390625
-0.0010986328125
-0.017578125
-0.0029296875
-0.0267333984375
-0.0040283203125
-0.0289306640625
-0.00146484375
0.003662109375
0.0018310546875
0.0545654296875
0.003662109375
0.0509033203125
0.002197265625
0.01318359375
-0.0010986328125
0.0010986328125
0.000732421875
0.0
-0.0047607421875
-0.012451171875
-0.0087890625
-0.0062255859375
0.0
0.0135498046875
0.005859375
0.0128173828125
0.003662109375
0.00732421875
0.0
0.0018310546875
0.0003662109375
0.0
-0.009521484375
0.03515625
-0.0230712890625
0.0633544921875
0.01171875
-0.05712890625
0.025634765625
-0.088623046875
0.0003662109375
-0.0076904296875
-0.000732421875
-0.0113525390625
-0.0003662109375
-0.0172119140625
-0.002197265625
-0.0263671875
-0.00439453125
-0.0303955078125
-0.0018310546875
-0.010986328125
0.0
0.047607421875
0.0025634765625
0.065185546875
0.0032958984375
0.0234375
0.0003662109375
0.000732421875
0.0018310546875
-0.000732421875
-0.0003662109375
-0.0113525390625
-0.0091552734375
-0.0076904296875
-0.005859375
0.012451171875
0.006591796875
0.0142822265625
0.005859375
0.00732421875
0.0018310546875
0.000732421875
0.00146484375
0.0
-0.002197265625
0.00732421875
-0.0311279296875
0.0765380859375
0.003662109375
-0.029296875
0.0333251953125
-0.1007080078125
0.0
-0.005859375
-0.000732421875
-0.010986328125
-0.00146484375
-0.01611328125
-0.0032958984375
-0.022705078125
-0.003662109375
-0.028564453125
-0.0003662109375
-0.0150146484375
0.00146484375
0.03955078125
0.0029296875
0.060791015625
0.0040283203125
0.0238037109375
0.000732421875
0.00146484375
0.0003662109375
-0.0062255859375
-0.00732421875
-0.0120849609375
-0.006591796875
0.0010986328125
0.0025634765625
0.01611328125
0.005859375
0.0098876953125
0.0047607421875
0.0029296875
0.0003662109375
0.0010986328125
0.00439453125
-0.0186767578125
-0.0673828125
0.184600830078125
-0.00146484375
0.0
0.0699462890625
-0.208404541015625
-0.0010986328125
-0.0076904296875
-0.0018310546875
-0.008056640625
-0.00146484375
-0.0128173828125
-0.00146484375
-0.0194091796875
-0.0032958984375
-0.0252685546875
-0.0025634765625
-0.024169921875
0.0
0.0106201171875
0.00146484375
0.0574951171875
0.0032958984375
0.0443115234375
0.0018310546875
0.0087890625
0.00146484375
0.000732421875
-0.0029296875
-0.0142822265625
-0.0091552734375
-0.00732421875
-0.0029296875
0.0146484375
0.0069580078125
0.0146484375
0.0054931640625
0.00732421875
0.0010986328125
0.000732421875
0.0003662109375
-0.0003662109375
-0.008056640625
0.0216064453125
-0.021240234375
0.0560302734375
0.0106201171875
-0.0435791015625
0.0230712890625
-0.078369140625
-0.0025634765625
-0.0040283203125
-0.00146484375
-0.009521484375
-0.0010986328125
-0.015380859375
-0.002197265625
-0.0201416015625
-0.0032958984375
-0.02197265625
-0.00146484375
-0.0091552734375
0.0010986328125
0.0369873046875
0.002197265625
0.05126953125
0.0032958984375
0.018310546875
0.0010986328125
0.0025634765625
0.0018310546875
-0.006591796875
-0.00732421875
-0.01318359375
-0.008056640625
0.0010986328125
0.0040283203125
0.015380859375
0.0069580078125
0.0091552734375
0.00439453125
0.0029296875
0.0
0.00146484375
0.00439453125
-0.0146484375
-0.069580078125
0.1256103515625
-0.0040283203125
0.0025634765625
0.069580078125
-0.140625
-0.0018310546875
-0.006591796875
-0.0025634765625
-0.0076904296875
-0.0032958984375
-0.0091552734375
-0.0032958984375
-0.0146484375
-0.0054931640625
-0.021240234375
-0.0054931640625
-0.021240234375
0.0025634765625
0.0047607421875
0.006591796875
0.044677734375
0.0062255859375
0.0380859375
0.0025634765625
0.006591796875
-0.00146484375
-0.0003662109375
0.000732421875
-0.0091552734375
-0.0087890625
-0.008056640625
-0.0084228515625
0.008056640625
0.005859375
0.0128173828125
0.003662109375
0.009521484375
0.0
0.0032958984375
0.0
0.0003662109375
0.0054931640625
-0.035888671875
-0.046142578125
0.1234130859375
-0.005126953125
0.0205078125
0.046875
-0.139892578125
-0.000732421875
-0.0029296875
-0.0029296875
-0.0076904296875
-0.0032958984375
-0.01171875
-0.0032958984375
-0.01904296875
-0.005126953125
-0.0260009765625
-0.00146484375
-0.019775390625
0.0047607421875
0.02197265625
0.0062255859375
0.052734375
0.005126953125
0.02783203125
0.00146484375
0.003662109375
0.000732421875
-0.00732421875
-0.0084228515625
-0.01171875
-0.0084228515625
0.00146484375
0.0040283203125
0.0150146484375
0.0069580078125
0.0106201171875
0.0047607421875
0.0032958984375
0.0003662109375
0.00146484375
0.005859375
-0.0263671875
-0.069580078125
0.170684814453125
-0.0032958984375
0.0084228515625
0.07177734375
-0.192657470703125
-0.0003662109375
-0.00732421875
-0.00146484375
-0.0069580078125
-0.002197265625
-0.01171875
-0.0025634765625
-0.0186767578125
-0.0040283203125
-0.0252685546875
-0.0018310546875
-0.0245361328125
0.0003662109375
0.0146484375
0.0010986328125
0.05859375
0.0029296875
0.0413818359375
0.00146484375
0.0069580078125
0.0010986328125
0.0003662109375
-0.0025634765625
-0.01318359375
-0.00732421875
-0.0076904296875
-0.00146484375
0.0142822265625
0.0062255859375
0.013916015625
0.0047607421875
0.0076904296875
0.0010986328125
0.000732421875
0.000732421875
-0.0010986328125
-0.012451171875
0.0391845703125
-0.0146484375
0.0428466796875
0.015380859375
-0.0604248046875
0.0172119140625
-0.0662841796875
-0.0010986328125
-0.005859375
-0.000732421875
-0.0106201171875
-0.0018310546875
-0.0150146484375
-0.0040283203125
-0.0205078125
-0.0040283203125
-0.0252685546875
-0.000732421875
-0.008056640625
0.002197265625
0.0435791015625
0.0040283203125
0.054931640625
0.003662109375
0.0172119140625
0.000732421875
0.0018310546875
0.0018310546875
-0.0069580078125
-0.009521484375
-0.009521484375
-0.0084228515625
0.005859375
0.0054931640625
0.015380859375
0.006591796875
0.0087890625
0.0040283203125
0.00146484375
0.00146484375
0.0
0.0076904296875
-0.0281982421875
-0.0692138671875
0.155303955078125
-0.0032958984375
0.0106201171875
0.072509765625
-0.175811767578125
0.0003662109375
-0.0069580078125
-0.000732421875
-0.0076904296875
-0.000732421875
-0.01171875
-0.00146484375
-0.0172119140625
-0.005126953125
-0.019775390625
-0.0040283203125
-0.019775390625
0.002197265625
0.0091552734375
0.0054931640625
0.046875
0.005126953125
0.03369140625
0.0025634765625
0.0054931640625
0.0010986328125
0.0010986328125
0.0018310546875
-0.0069580078125
-0.01025390625
-0.0040283203125
-0.0098876953125
0.0087890625
0.0062255859375
0.01025390625
0.0054931640625
0.008056640625
0.000732421875
0.0025634765625
0.0003662109375
0.0
0.0076904296875
-0.0406494140625
-0.05126953125
0.1219482421875
-0.0047607421875
0.0245361328125
0.0538330078125
-0.1395263671875
-0.0025634765625
-0.009521484375
-0.016845703125
-0.0186767578125
-0.0347900390625
-0.0205078125
-0.0303955078125
-0.018310546875
-0.01611328125
-0.0146484375
-0.00146484375
-0.0087890625
0.018310546875
0.019775390625
0.0238037109375
0.0421142578125
0.0150146484375
0.0252685546875
0.0062255859375
0.0084228515625
0.005126953125
0.0047607421875
0.0054931640625
-0.0069580078125
-0.0062255859375
-0.003662109375
-0.0040283203125
0.01025390625
0.0106201171875
0.0120849609375
0.01025390625
0.009521484375
0.0054931640625
0.0025634765625
0.0032958984375
0.0
0.0106201171875
-0.0377197265625
-0.0545654296875
0.135162353515625
-0.005126953125
0.021240234375
0.0582275390625
-0.152740478515625
-0.0010986328125
-0.00439453125
-0.0010986328125
-0.008056640625
-0.0010986328125
-0.0135498046875
-0.00146484375
-0.01904296875
-0.0032958984375
-0.021240234375
-0.0010986328125
-0.016845703125
0.0010986328125
0.022705078125
0.0018310546875
0.052001953125
0.0032958984375
0.027099609375
0.000732421875
0.002197265625
0.0
-0.00146484375
0.00146484375
-0.00732421875
-0.0098876953125
-0.0069580078125
-0.0098876953125
0.005859375
0.005859375
0.01171875
0.0047607421875
0.0091552734375
0.000732421875
0.0029296875
0.000732421875
0.0003662109375
0.00439453125
-0.02490234375
-0.06591796875
0.148345947265625
-0.0047607421875
0.0106201171875
0.064453125
-0.166290283203125
-0.002197265625
-0.005859375
-0.0025634765625
-0.00732421875
-0.0018310546875
-0.012451171875
-0.0025634765625
-0.01904296875
-0.005859375
-0.02490234375
-0.0054931640625
-0.0238037109375
0.0010986328125
0.0091552734375
0.0062255859375
0.0545654296875
0.0047607421875
0.0435791015625
0.0010986328125
0.008056640625
0.00146484375
-0.000732421875
-0.0025634765625
-0.012451171875
-0.01025390625
-0.008056640625
-0.0040283203125
0.0113525390625
0.0076904296875
0.01318359375
0.0062255859375
0.0069580078125
0.000732421875
0.0032958984375
0.0
0.0018310546875
0.0076904296875
-0.0325927734375
-0.0523681640625
0.147979736328125
-0.005859375
0.0128173828125
0.0545654296875
-0.170684814453125
-0.0010986328125
-0.0069580078125
-0.002197265625
-0.0084228515625
-0.002197265625
-0.0142822265625
-0.0025634765625
-0.022705078125
-0.0047607421875
-0.0281982421875
-0.0025634765625
-0.0194091796875
0.002197265625
0.02783203125
0.00439453125
0.06005859375
0.00439453125
0.032958984375
0.002197265625
0.00439453125
0.00146484375
-0.002197265625
-0.0069580078125
-0.01171875
-0.0087890625
-0.005126953125
0.002197265625
0.012451171875
0.0076904296875
0.013916015625
0.0054931640625
0.00732421875
0.0010986328125
0.0010986328125
0.000732421875
0.0003662109375
0.00146484375
0.015380859375
-0.031494140625
0.0838623046875
0.0
-0.0380859375
0.032958984375
-0.1087646484375
0.0
-0.005859375
-0.00146484375
-0.0106201171875
-0.000732421875
-0.016845703125
-0.0029296875
-0.0245361328125
-0.00439453125
-0.0289306640625
-0.0010986328125
-0.0128173828125
0.000732421875
0.0439453125
0.0032958984375
0.06298828125
0.0032958984375
0.0230712890625
0.0003662109375
0.0032958984375
0.0018310546875
-0.005126953125
-0.008056640625
-0.0106201171875
-0.008056640625
0.0029296875
0.0032958984375
0.01611328125
0.0047607421875
0.0106201171875
0.0047607421875
0.0029296875
0.0010986328125
0.0010986328125
0.0040283203125
-0.008056640625
-0.054931640625
0.154937744140625
-0.0003662109375
-0.005859375
0.05859375
-0.176910400390625
-0.0010986328125
-0.01025390625
-0.00146484375
-0.0069580078125
-0.00146484375
-0.01171875
-0.00146484375
-0.01904296875
-0.003662109375
-0.025634765625
-0.0032958984375
-0.025634765625
0.0
0.00439453125
0.0025634765625
0.0545654296875
0.00439453125
0.049072265625
0.002197265625
0.0106201171875
0.00146484375
-0.003662109375
-0.00732421875
-0.012451171875
-0.0084228515625
-0.0003662109375
0.003662109375
0.017578125
0.0069580078125
0.0135498046875
0.0040283203125
0.005126953125
0.0010986328125
0.0003662109375
0.0032958984375
-0.0029296875
-0.0465087890625
0.143951416015625
0.002197265625
-0.006591796875
0.049072265625
-0.167022705078125
-0.003662109375
-0.0164794921875
-0.0025634765625
-0.006591796875
-0.00146484375
-0.01171875
-0.0010986328125
-0.0186767578125
-0.0029296875
-0.0245361328125
-0.003662109375
-0.0245361328125
-0.0010986328125
0.0029296875
0.0025634765625
0.052001953125
0.0040283203125
0.0498046875
0.0018310546875
0.01171875
0.000732421875
-0.0029296875
-0.00732421875
-0.013916015625
-0.0084228515625
-0.0025634765625
0.0025634765625
0.015380859375
0.00732421875
0.010986328125
0.0047607421875
0.0040283203125
0.000732421875
-0.002197265625
0.0040283203125
-0.0054931640625
-0.0399169921875
0.0714111328125
0.000732421875
-0.002197265625
0.0439453125
-0.09375
-0.0010986328125
-0.019775390625
-0.0025634765625
-0.0069580078125
-0.0025634765625
-0.01025390625
-0.0025634765625
-0.0157470703125
-0.0054931640625
-0.0234375
-0.0054931640625
-0.0263671875
-0.0003662109375
-0.0040283203125
0.005126953125
0.0435791015625
0.0062255859375
0.0450439453125
0.0029296875
0.010986328125
0.0003662109375
0.0010986328125
-0.0076904296875
-0.01171875
-0.0091552734375
-0.008056640625
-0.0010986328125
0.0106201171875
0.005859375
0.015380859375
0.0040283203125
0.0076904296875
-0.0025634765625
0.00146484375
-0.0018310546875
0.0029296875
-0.0128173828125
0.0135498046875
-0.0172119140625
0.0560302734375
0.0098876953125
-0.0289306640625
0.0142822265625
-0.0743408203125
-0.0032958984375
-0.0054931640625
-0.0047607421875
-0.0084228515625
-0.00439453125
-0.0142822265625
-0.006591796875
-0.021240234375
-0.006591796875
-0.025634765625
-0.0003662109375
-0.010986328125
0.006591796875
0.0406494140625
0.00732421875
0.0523681640625
0.003662109375
0.017578125
0.0018310546875
0.0010986328125
-0.0076904296875
-0.0146484375
-0.0087890625
-0.0069580078125
0.0018310546875
0.01318359375
0.00732421875
0.0157470703125
0.005859375
0.01025390625
0.00146484375
0.0029296875
0.0010986328125
0.000732421875
-0.015380859375
0.0318603515625
-0.0087890625
0.0384521484375
0.01904296875
-0.0487060546875
0.0120849609375
-0.0589599609375
-0.00146484375
-0.0069580078125
-0.0018310546875
-0.009521484375
-0.00146484375
-0.01611328125
-0.0040283203125
-0.0238037109375
-0.00439453125
-0.0281982421875
0.0010986328125
-0.0084228515625
0.003662109375
0.04541015625
0.00439453125
0.0538330078125
0.00439453125
0.0157470703125
0.0018310546875
-0.0018310546875
-0.0076904296875
-0.0157470703125
-0.0087890625
-0.005126953125
0.002197265625
0.0150146484375
0.0076904296875
0.01318359375
0.0054931640625
0.006591796875
0.0010986328125
0.002197265625
0.000732421875
0.0003662109375
-0.022705078125
0.076904296875
-0.0062255859375
0.022705078125
0.02490234375
-0.0985107421875
0.00732421875
-0.04541015625
-0.00146484375
-0.005859375
-0.000732421875
-0.010986328125
-0.0010986328125
-0.018310546875
-0.0032958984375
-0.0245361328125
-0.00439453125
-0.0263671875
0.0003662109375
-0.00439453125
0.0029296875
0.0487060546875
0.0029296875
0.0538330078125
0.0029296875
0.0150146484375
0.0029296875
-0.0003662109375
-0.005126953125
-0.013916015625
-0.0076904296875
-0.0047607421875
0.002197265625
0.0150146484375
0.006591796875
0.0128173828125
0.005126953125
0.0062255859375
0.000732421875
0.000732421875
0.000732421875
-0.0010986328125
-0.01611328125
0.0450439453125
-0.0120849609375
0.0340576171875
0.01904296875
-0.066650390625
0.01318359375
-0.056396484375
-0.00146484375
-0.0054931640625
-0.00146484375
-0.0098876953125
-0.002197265625
-0.0157470703125
-0.00439453125
-0.021240234375
-0.0047607421875
-0.022705078125
-0.00146484375
-0.005859375
0.0025634765625
0.041015625
0.0054931640625
0.0498046875
0.003662109375
0.0157470703125
0.0018310546875
0.0032958984375
0.0025634765625
-0.0106201171875
-0.009521484375
-0.00732421875
-0.0076904296875
0.01025390625
0.008056640625
0.010986328125
0.005859375
0.00732421875
0.0003662109375
0.0010986328125
0.000732421875
0.0
0.0076904296875
-0.0333251953125
-0.054931640625
0.133697509765625
-0.003662109375
0.0164794921875
0.0567626953125
-0.153839111328125
-0.002197265625
-0.0054931640625
-0.0029296875
-0.0076904296875
-0.0029296875
-0.0120849609375
-0.0029296875
-0.0172119140625
-0.005859375
-0.01904296875
-0.0025634765625
-0.016845703125
0.0040283203125
0.015380859375
0.005859375
0.0457763671875
0.005859375
0.0267333984375
0.0025634765625
0.002197265625
0.0010986328125
-0.0054931640625
-0.0069580078125
-0.010986328125
-0.0076904296875
-0.0010986328125
0.0032958984375
0.0142822265625
0.0076904296875
0.0106201171875
0.005859375
0.0029296875
0.0010986328125
0.0
0.0003662109375
0.0
-0.0347900390625
0.04541015625
-0.000732421875
0.0084228515625
0.03662109375
-0.0626220703125
0.000732421875
-0.0274658203125
-0.003662109375
-0.00439453125
-0.00439453125
-0.0087890625
-0.005126953125
-0.0142822265625
-0.006591796875
-0.0208740234375
-0.006591796875
-0.024169921875
-0.0003662109375
-0.0069580078125
0.006591796875
0.0399169921875
0.0069580078125
0.0479736328125
0.0029296875
0.0150146484375
0.000732421875
0.002197265625
-0.005126953125
-0.01171875
-0.0113525390625
-0.00732421875
-0.005126953125
0.010986328125
0.005126953125
0.0142822265625
0.00439453125
0.01025390625
-0.0010986328125
0.0040283203125
-0.00146484375
0.00146484375
0.003662109375
-0.02490234375
-0.0384521484375
0.1201171875
-0.0054931640625
0.0091552734375
0.0362548828125
-0.138427734375
-0.0032958984375
-0.0054931640625
-0.0029296875
-0.006591796875
-0.002197265625
-0.01171875
-0.00439453125
-0.019775390625
-0.006591796875
-0.0263671875
-0.00146484375
-0.018310546875
0.0069580078125
0.029296875
0.008056640625
0.054931640625
0.005859375
0.024169921875
0.003662109375
0.0047607421875
0.002197265625
-0.005859375
-0.009521484375
-0.0098876953125
-0.0076904296875
0.005126953125
0.008056640625
0.013916015625
0.006591796875
0.0106201171875
0.002197265625
0.0032958984375
0.000732421875
0.0
0.0047607421875
-0.030029296875
-0.0655517578125
0.161529541015625
-0.0029296875
0.0120849609375
0.0673828125
-0.182403564453125
-0.0010986328125
-0.0054931640625
-0.0025634765625
-0.006591796875
-0.0025634765625
-0.01171875
-0.0032958984375
-0.0205078125
-0.005126953125
-0.0263671875
-0.002197265625
-0.022705078125
0.00146484375
0.018310546875
0.003662109375
0.0582275390625
0.00439453125
0.03662109375
0.0018310546875
0.006591796875
0.0018310546875
-0.0047607421875
-0.006591796875
-0.0142822265625
-0.0076904296875
-0.00146484375
0.0025634765625
0.01611328125
0.005859375
0.012451171875
0.0025634765625
0.0047607421875
-0.000732421875
0.000732421875
0.002197265625
-0.0032958984375
-0.0421142578125
0.1259765625
0.00146484375
-0.0010986328125
0.0439453125
-0.1468505859375
-0.0025634765625
-0.019775390625
-0.00146484375
-0.0069580078125
0.0
-0.012451171875
-0.0010986328125
-0.018310546875
-0.003662109375
-0.0234375
-0.00439453125
-0.024169921875
-0.0010986328125
0.00146484375
0.0032958984375
0.0498046875
0.0047607421875
0.0494384765625
0.0029296875
0.012451171875
0.0010986328125
0.00146484375
0.00439453125
-0.00732421875
-0.0084228515625
-0.00732421875
-0.009521484375
0.00732421875
0.008056640625
0.012451171875
0.0062255859375
0.0087890625
0.0010986328125
0.0025634765625
0.0003662109375
0.000732421875
0.0054931640625
-0.0325927734375
-0.065185546875
0.156768798828125
-0.0032958984375
0.013916015625
0.0673828125
-0.179840087890625
-0.0010986328125
-0.0062255859375
-0.002197265625
-0.00732421875
-0.002197265625
-0.01171875
-0.002197265625
-0.017578125
-0.0047607421875
-0.0208740234375
-0.0040283203125
-0.017578125
0.0018310546875
0.015380859375
0.005126953125
0.049072265625
0.0062255859375
0.031494140625
0.0032958984375
0.003662109375
0.000732421875
0.0010986328125
0.0025634765625
-0.0091552734375
-0.0113525390625
-0.0069580078125
-0.0113525390625
0.0084228515625
0.0047607421875
0.0106201171875
0.0029296875
0.0084228515625
0.0003662109375
0.0025634765625
0.0
-0.000732421875
0.0054931640625
-0.0399169921875
-0.0509033203125
0.1182861328125
-0.005859375
0.0230712890625
0.0509033203125
-0.1358642578125
-0.0025634765625
-0.0054931640625
-0.00439453125
-0.00732421875
-0.0032958984375
-0.0106201171875
-0.0054931640625
-0.01611328125
-0.008056640625
-0.021240234375
-0.00439453125
-0.0186767578125
0.0047607421875
0.0164794921875
0.0084228515625
0.04833984375
0.005126953125
0.0289306640625
0.00146484375
0.00439453125
0.0003662109375
0.0
0.0003662109375
-0.0098876953125
-0.01025390625
-0.0062255859375
-0.0084228515625
0.008056640625
0.005859375
0.01171875
0.003662109375
0.0098876953125
-0.0010986328125
0.0032958984375
-0.00146484375
0.0010986328125
0.0040283203125
-0.0362548828125
-0.0465087890625
0.122314453125
-0.00439453125
0.0205078125
0.046875
-0.140625
-0.00146484375
-0.0040283203125
-0.0018310546875
-0.006591796875
-0.0018310546875
-0.010986328125
-0.0029296875
-0.0172119140625
-0.0047607421875
-0.0234375
-0.0018310546875
-0.0208740234375
0.0062255859375
0.0208740234375
0.0106201171875
0.053466796875
0.0069580078125
0.0289306640625
0.0018310546875
0.0047607421875
0.000732421875
0.0
0.002197265625
-0.0091552734375
-0.0087890625
-0.005859375
-0.0076904296875
0.0087890625
0.008056640625
0.012451171875
0.006591796875
0.0091552734375
0.0010986328125
0.0032958984375
0.0003662109375
0.000732421875
0.008056640625
-0.027099609375
-0.0487060546875
0.132598876953125
-0.003662109375
0.006591796875
0.0523681640625
-0.154205322265625
0.0
-0.003662109375
-0.000732421875
-0.0076904296875
-0.0018310546875
-0.0135498046875
-0.0018310546875
-0.021240234375
-0.00439453125
-0.024169921875
-0.0029296875
-0.0164794921875
0.002197265625
0.02783203125
0.00439453125
0.0589599609375
0.00439453125
0.0296630859375
0.002197265625
0.0040283203125
0.002197265625
0.0018310546875
0.003662109375
-0.01025390625
-0.0091552734375
-0.0062255859375
-0.0084228515625
0.01025390625
0.008056640625
0.010986328125
0.0054931640625
0.0087890625
0.00146484375
0.0010986328125
0.0010986328125
-0.00146484375
0.006591796875
-0.0208740234375
-0.0443115234375
0.1124267578125
-0.003662109375
0.0
0.046875
-0.134033203125
-0.0010986328125
-0.0047607421875
-0.0018310546875
-0.0091552734375
-0.0025634765625
-0.013916015625
-0.0029296875
-0.021240234375
-0.005126953125
-0.0234375
-0.0032958984375
-0.015380859375
0.0018310546875
0.0274658203125
0.005126953125
0.05419921875
0.005859375
0.0260009765625
0.002197265625
0.0029296875
0.0010986328125
0.0
0.0029296875
-0.009521484375
-0.0098876953125
-0.005859375
-0.0084228515625
0.0106201171875
0.0087890625
0.010986328125
0.0054931640625
0.005859375
0.0010986328125
0.0003662109375
0.0010986328125
-0.0018310546875
0.0069580078125
-0.0406494140625
-0.0479736328125
0.114990234375
-0.00439453125
0.0205078125
0.050537109375
-0.13623046875
-0.00146484375
-0.005126953125
-0.00146484375
-0.0084228515625
-0.002197265625
-0.0128173828125
-0.005126953125
-0.016845703125
-0.0076904296875
-0.0208740234375
-0.0054931640625
-0.016845703125
0.0025634765625
0.018310546875
0.00732421875
0.046875
0.006591796875
0.0263671875
0.002197265625
0.0025634765625
-0.0003662109375
-0.0003662109375
0.0018310546875
-0.006591796875
-0.01025390625
-0.0091552734375
-0.0106201171875
0.00439453125
0.00439453125
0.01318359375
0.0047607421875
0.0087890625
0.002197265625
0.0029296875
-0.0003662109375
0.0025634765625
0.0040283203125
-0.028564453125
-0.0633544921875
0.134796142578125
-0.0040283203125
0.015380859375
0.064453125
-0.152740478515625
-0.0029296875
-0.0062255859375
-0.0062255859375
-0.0069580078125
-0.0062255859375
-0.0098876953125
-0.0087890625
-0.01611328125
-0.01171875
-0.0238037109375
-0.0087890625
-0.0238037109375
0.002197265625
0.0113525390625
0.0087890625
0.0509033203125
0.0076904296875
0.0362548828125
0.0054931640625
0.0054931640625
0.0
0.0
0.0003662109375
-0.0062255859375
-0.0076904296875
-0.0084228515625
-0.0076904296875
0.0062255859375
0.0054931640625
0.0142822265625
0.0047607421875
0.01025390625
0.0010986328125
0.00439453125
-0.0003662109375
0.0010986328125
0.00439453125
-0.0263671875
-0.06005859375
0.145050048828125
-0.0010986328125
0.0120849609375
0.064453125
-0.163726806640625
0.0003662109375
-0.005859375
-0.0010986328125
-0.0062255859375
-0.000732421875
-0.0113525390625
-0.0025634765625
-0.0179443359375
-0.005126953125
-0.0245361328125
-0.0029296875
-0.0234375
0.005859375
0.0106201171875
0.010986328125
0.0523681640625
0.00732421875
0.0384521484375
0.0032958984375
0.0069580078125
0.00146484375
0.000732421875
0.0025634765625
-0.009521484375
-0.0087890625
-0.0084228515625
-0.0076904296875
0.00732421875
0.0087890625
0.0128173828125
0.0076904296875
0.0091552734375
0.002197265625
0.00146484375
0.0
-0.0003662109375
0.005859375
-0.0325927734375
-0.05419921875
0.148345947265625
-0.00439453125
0.013916015625
0.0556640625
-0.169952392578125
-0.0003662109375
-0.006591796875
-0.0010986328125
-0.008056640625
-0.0010986328125
-0.0128173828125
-0.0025634765625
-0.0208740234375
-0.005859375
-0.0263671875
-0.003662109375
-0.019775390625
0.00146484375
0.0245361328125
0.00439453125
0.05859375
0.00439453125
0.0333251953125
0.002197265625
0.0047607421875
0.0025634765625
0.0010986328125
0.0
-0.012451171875
-0.0091552734375
-0.0069580078125
-0.0047607421875
0.0135498046875
0.0076904296875
0.01318359375
0.005859375
0.006591796875
0.00146484375
0.000732421875
0.000732421875
-0.0003662109375
0.0040283203125
-0.003662109375
-0.0355224609375
0.0904541015625
-0.002197265625
-0.018310546875
0.037353515625
-0.1124267578125
-0.0010986328125
-0.00439453125
-0.002197265625
-0.0098876953125
-0.0018310546875
-0.015380859375
-0.003662109375
-0.0205078125
-0.006591796875
-0.022705078125
-0.0029296875
-0.01318359375
0.0025634765625
0.032958984375
0.0054931640625
0.054931640625
0.00439453125
0.022705078125
0.0003662109375
0.002197265625
0.0003662109375
0.000732421875
0.0047607421875
-0.0062255859375
-0.0087890625
-0.005859375
-0.01025390625
0.00732421875
0.0076904296875
0.010986328125
0.0047607421875
0.0084228515625
0.0
0.0025634765625
0.0
-0.0010986328125
0.0054931640625
-0.037353515625
-0.0618896484375
0.138458251953125
-0.0054931640625
0.01904296875
0.0611572265625
-0.157501220703125
-0.00439453125
-0.0032958984375
-0.005126953125
-0.00732421875
-0.0032958984375
-0.01171875
-0.0032958984375
-0.01611328125
-0.0069580078125
-0.0201416015625
-0.005859375
-0.018310546875
0.0040283203125
0.0120849609375
0.009521484375
0.046142578125
0.00732421875
0.030029296875
0.0032958984375
0.0032958984375
0.000732421875
-0.0003662109375
0.0018310546875
-0.000732421875
-0.0054931640625
-0.0120849609375
-0.008056640625
-0.0047607421875
0.0003662109375
0.013916015625
0.005126953125
0.0135498046875
0.0047607421875
0.0069580078125
0.0003662109375
0.0010986328125
-0.0003662109375
0.0
-0.0223388671875
0.0205078125
-0.00732421875
0.02783203125
0.022705078125
-0.0377197265625
0.006591796875
-0.047607421875
-0.0025634765625
-0.005126953125
-0.0029296875
-0.0076904296875
-0.0040283203125
-0.0120849609375
-0.00732421875
-0.0194091796875
-0.0084228515625
-0.024169921875
-0.0010986328125
-0.01025390625
0.00732421875
0.035888671875
0.0084228515625
0.049072265625
0.00439453125
0.0172119140625
0.0
0.0003662109375
0.0003662109375
-0.0003662109375
-0.0040283203125
-0.010986328125
-0.0091552734375
-0.006591796875
-0.0018310546875
0.01318359375
0.0069580078125
0.0142822265625
0.0047607421875
0.008056640625
0.0003662109375
0.0018310546875
-0.0003662109375
0.0010986328125
0.0040283203125
-0.015380859375
-0.030029296875
0.101806640625
-0.0032958984375
-0.0010986328125
0.0325927734375
-0.1204833984375
0.0
-0.005859375
-0.0025634765625
-0.008056640625
-0.0029296875
-0.01318359375
-0.00439453125
-0.0208740234375
-0.00732421875
-0.0263671875
-0.002197265625
-0.0172119140625
0.006591796875
0.0318603515625
0.0087890625
0.0560302734375
0.005859375
0.024169921875
0.002197265625
0.002197265625
0.0010986328125
-0.0010986328125
0.0018310546875
-0.009521484375
-0.0091552734375
-0.00732421875
-0.0076904296875
0.0069580078125
0.008056640625
0.0120849609375
0.0062255859375
0.0087890625
0.00146484375
0.0018310546875
0.000732421875
0.000732421875
0.006591796875
-0.0347900390625
-0.0626220703125
0.165924072265625
-0.0032958984375
0.0142822265625
0.06591796875
-0.190093994140625
-0.000732421875
-0.005859375
-0.0010986328125
-0.0087890625
-0.0003662109375
-0.01318359375
-0.002197265625
-0.0208740234375
-0.005126953125
-0.0274658203125
-0.0047607421875
-0.0216064453125
0.0
0.01904296875
0.0047607421875
0.05859375
0.005126953125
0.0380859375
0.0018310546875
0.005859375
0.000732421875
-0.0010986328125
0.0018310546875
-0.005859375
-0.0087890625
-0.010986328125
-0.0076904296875
0.0032958984375
0.003662109375
0.0164794921875
0.006591796875
0.009521484375
0.005126953125
0.002197265625
0.0003662109375
0.0
0.003662109375
-0.01025390625
-0.0538330078125
0.149810791015625
0.000732421875
-0.00439453125
0.0560302734375
-0.170684814453125
-0.002197265625
-0.0084228515625
-0.0018310546875
-0.005859375
-0.00146484375
-0.0106201171875
-0.00146484375
-0.016845703125
-0.005126953125
-0.02197265625
-0.006591796875
-0.02197265625
-0.00146484375
0.0025634765625
0.0047607421875
0.047607421875
0.0054931640625
0.046142578125
0.0025634765625
0.01171875
0.0
0.0003662109375
0.00146484375
0.0003662109375
-0.00146484375
-0.010986328125
-0.0098876953125
-0.0047607421875
-0.003662109375
0.0135498046875
0.0076904296875
0.0120849609375
0.005126953125
0.006591796875
0.0003662109375
0.000732421875
0.0003662109375
-0.00146484375
0.0084228515625
-0.0260009765625
-0.03955078125
0.095947265625
-0.005859375
0.006591796875
0.041748046875
-0.1153564453125
-0.0010986328125
-0.003662109375
-0.002197265625
-0.008056640625
-0.0018310546875
-0.0120849609375
-0.0040283203125
-0.018310546875
-0.0076904296875
-0.0216064453125
-0.005126953125
-0.0142822265625
0.0032958984375
0.0234375
0.0084228515625
0.0487060546875
0.005126953125
0.0230712890625
0.000732421875
0.000732421875
-0.000732421875
0.0003662109375
-0.0003662109375
-0.0018310546875
-0.00732421875
-0.01171875
-0.008056640625
0.0
0.00146484375
0.01611328125
0.0054931640625
0.01025390625
0.003662109375
0.003662109375
0.0
0.00146484375
0.000732421875
0.0
-0.0380859375
0.053466796875
-0.0010986328125
0.00732421875
0.037353515625
-0.0703125
-0.0018310546875
-0.02490234375
-0.003662109375
-0.0040283203125
-0.0047607421875
-0.0091552734375
-0.005126953125
-0.015380859375
-0.0084228515625
-0.0216064453125
-0.010986328125
-0.0252685546875
-0.0032958984375
-0.0084228515625
0.0054931640625
0.0384521484375
0.0047607421875
0.0479736328125
0.0010986328125
0.01611328125
-0.00146484375
0.0018310546875
-0.0025634765625
0.00146484375
-0.0025634765625
-0.0098876953125
-0.0091552734375
-0.005859375
-0.005126953125
0.0113525390625
0.00732421875
0.0120849609375
0.0047607421875
0.0091552734375
0.0003662109375
0.0029296875
0.000732421875
0.000732421875
0.005126953125
-0.0281982421875
-0.038818359375
0.126007080078125
-0.0025634765625
0.01171875
0.041015625
-0.143585205078125
-0.000732421875
-0.005126953125
-0.00146484375
-0.0087890625
-0.00146484375
-0.0120849609375
-0.0029296875
-0.019775390625
-0.006591796875
-0.0260009765625
-0.00146484375
-0.0205078125
0.00732421875
0.0245361328125
0.008056640625
0.0560302734375
0.0054931640625
0.030029296875
0.0018310546875
0.0047607421875
0.0
0.0
0.002197265625
-0.00732421875
-0.00732421875
-0.0106201171875
-0.0069580078125
0.0062255859375
0.0054931640625
0.0164794921875
0.00732421875
0.009521484375
0.0047607421875
0.0025634765625
0.0010986328125
0.000732421875
0.0040283203125
-0.013916015625
-0.057861328125
0.162994384765625
0.0003662109375
-0.00146484375
0.0604248046875
-0.183868408203125
-0.002197265625
-0.0076904296875
-0.000732421875
-0.0069580078125
-0.0003662109375
-0.010986328125
-0.002197265625
-0.018310546875
-0.00439453125
-0.025634765625
-0.0047607421875
-0.025634765625
-0.0003662109375
0.00439453125
0.0047607421875
0.0531005859375
0.0062255859375
0.0487060546875
0.0032958984375
0.0120849609375
0.0010986328125
0.0
0.0018310546875
0.0003662109375
-0.005126953125
-0.0106201171875
-0.006591796875
-0.00439453125
0.000732421875
0.0146484375
0.0062255859375
0.01318359375
0.005859375
0.005859375
0.00146484375
0.0
0.0010986328125
-0.0018310546875
-0.0128173828125
0.0245361328125
-0.0150146484375
0.0428466796875
0.0146484375
-0.047607421875
0.0164794921875
-0.064453125
-0.000732421875
-0.005859375
-0.000732421875
-0.01171875
-0.000732421875
-0.0146484375
-0.003662109375
-0.0208740234375
-0.006591796875
-0.0234375
-0.0029296875
-0.010986328125
0.003662109375
0.0355224609375
0.005859375
0.0531005859375
0.003662109375
0.019775390625
0.0010986328125
0.0010986328125
0.000732421875
0.0010986328125
0.0047607421875
-0.005859375
-0.0084228515625
-0.0076904296875
-0.01025390625
0.0069580078125
0.0076904296875
0.01171875
0.0062255859375
0.0069580078125
0.0010986328125
0.000732421875
0.0003662109375
-0.0018310546875
0.0062255859375
-0.034423828125
-0.065185546875
0.141387939453125
-0.002197265625
0.016845703125
0.0692138671875
-0.161895751953125
0.0
-0.006591796875
-0.00146484375
-0.00732421875
-0.0029296875
-0.010986328125
-0.0047607421875
-0.01611328125
-0.00732421875
-0.0208740234375
-0.0062255859375
-0.0216064453125
0.0025634765625
0.0076904296875
0.0087890625
0.04541015625
0.00732421875
0.0340576171875
0.0040283203125
0.003662109375
0.000732421875
-0.0032958984375
-0.0003662109375
-0.0003662109375
-0.0091552734375
-0.01025390625
-0.01171875
-0.0047607421875
-0.00439453125
0.012451171875
-0.002197265625
0.0113525390625
-0.005126953125
0.005126953125
-0.0091552734375
0.000732421875
-0.0098876953125
0.000732421875
-0.0377197265625
0.034423828125
-0.0084228515625
0.0194091796875
0.0274658203125
-0.05126953125
0.002197265625
-0.0380859375
-0.00439453125
-0.005126953125
-0.0054931640625
-0.009521484375
-0.005126953125
-0.012451171875
-0.008056640625
-0.0201416015625
-0.010986328125
-0.0263671875
-0.0029296875
-0.01025390625
0.009521484375
0.0377197265625
0.010986328125
0.050537109375
0.006591796875
0.017578125
0.003662109375
0.000732421875
0.0029296875
0.0
0.000732421875
-0.0106201171875
-0.0054931640625
-0.006591796875
-0.000732421875
0.01171875
0.009521484375
0.01318359375
0.0069580078125
0.0084228515625
0.0025634765625
0.002197265625
0.0025634765625
0.0
0.0069580078125
-0.0216064453125
-0.0325927734375
0.111328125
-0.00146484375
0.00439453125
0.037353515625
-0.1300048828125
0.0003662109375
-0.005126953125
0.0
-0.0076904296875
0.0
-0.0128173828125
-0.0025634765625
-0.0205078125
-0.006591796875
-0.025634765625
-0.0010986328125
-0.018310546875
0.0076904296875
0.027099609375
0.0091552734375
0.0556640625
0.0069580078125
0.0274658203125
0.0025634765625
0.003662109375
0.0003662109375
0.000732421875
0.0025634765625
-0.0091552734375
-0.0084228515625
-0.0069580078125
-0.0069580078125
0.0087890625
0.0087890625
0.0135498046875
0.005126953125
0.0106201171875
0.000732421875
0.0029296875
0.000732421875
0.0
0.006591796875
-0.0322265625
-0.0498046875
0.141021728515625
-0.002197265625
0.0128173828125
0.05419921875
-0.162994384765625
0.0
-0.0054931640625
-0.0010986328125
-0.0087890625
-0.0010986328125
-0.01318359375
-0.00146484375
-0.01904296875
-0.003662109375
-0.025634765625
-0.0018310546875
-0.0205078125
0.003662109375
0.0238037109375
0.0069580078125
0.05859375
0.0069580078125
0.032958984375
0.003662109375
0.0047607421875
0.0029296875
0.0010986328125
0.0054931640625
-0.0106201171875
-0.0084228515625
-0.0076904296875
-0.008056640625
0.0106201171875
0.0084228515625
0.012451171875
0.0062255859375
0.0087890625
0.002197265625
0.0025634765625
0.000732421875
-0.000732421875
0.006591796875
-0.0322265625
-0.0509033203125
0.132598876953125
-0.0047607421875
0.0120849609375
0.052734375
-0.154205322265625
-0.000732421875
-0.00439453125
-0.00146484375
-0.0076904296875
-0.0018310546875
-0.01318359375
-0.0032958984375
-0.019775390625
-0.006591796875
-0.0238037109375
-0.0040283203125
-0.018310546875
0.0010986328125
0.0208740234375
0.005126953125
0.0545654296875
0.0047607421875
0.0322265625
0.0010986328125
0.00439453125
0.0003662109375
0.0018310546875
0.0040283203125
-0.0069580078125
-0.0087890625
-0.0076904296875
-0.0098876953125
0.0069580078125
0.008056640625
0.0113525390625
0.005859375
0.0084228515625
0.00146484375
0.0025634765625
0.0003662109375
-0.0003662109375
0.0054931640625
-0.0362548828125
-0.062255859375
0.144317626953125
-0.00439453125
0.016845703125
0.06298828125
-0.164825439453125
-0.0025634765625
-0.0040283203125
-0.0032958984375
-0.0062255859375
-0.0029296875
-0.0106201171875
-0.0040283203125
-0.0157470703125
-0.00732421875
-0.019775390625
-0.0062255859375
-0.0186767578125
0.0003662109375
0.010986328125
0.0054931640625
0.0457763671875
0.0047607421875
0.0318603515625
0.00146484375
0.003662109375
0.0018310546875
-0.000732421875
0.0029296875
-0.003662109375
-0.005859375
-0.012451171875
-0.00732421875
-0.00146484375
0.00146484375
0.0146484375
0.005859375
0.01171875
0.0032958984375
0.0040283203125
-0.000732421875
0.0
0.0029296875
-0.003662109375
-0.0560302734375
0.0849609375
-0.0003662109375
-0.0025634765625
0.054931640625
-0.1025390625
-0.005126953125
-0.0120849609375
-0.0047607421875
-0.00439453125
-0.0069580078125
-0.0087890625
-0.008056640625
-0.0142822265625
-0.01025390625
-0.021240234375
-0.0120849609375
-0.024169921875
-0.003662109375
-0.00439453125
0.0076904296875
0.041748046875
0.008056640625
0.046142578125
0.00439453125
0.0128173828125
0.0
0.00146484375
-0.00146484375
-0.00439453125
-0.0087890625
-0.01318359375
-0.00732421875
0.0
0.0047607421875
0.016845703125
0.006591796875
0.01318359375
0.003662109375
0.0062255859375
-0.0003662109375
0.00146484375
0.0029296875
-0.0025634765625
-0.0501708984375
0.1025390625
0.002197265625
-0.002197265625
0.052734375
-0.1197509765625
-0.003662109375
-0.0150146484375
-0.0018310546875
-0.0054931640625
-0.002197265625
-0.0098876953125
-0.002197265625
-0.015380859375
-0.0040283203125
-0.0234375
-0.0047607421875
-0.027099609375
0.0018310546875
-0.0029296875
0.0076904296875
0.046142578125
0.008056640625
0.049072265625
0.0040283203125
0.01318359375
0.0
-0.0003662109375
0.0018310546875
-0.00732421875
-0.0076904296875
-0.012451171875
-0.006591796875
0.00146484375
0.005126953125
0.0164794921875
0.00732421875
0.01171875
0.0054931640625
0.0029296875
0.0003662109375
0.0
0.0040283203125
-0.0205078125
-0.0596923828125
0.173980712890625
0.000732421875
0.002197265625
0.0640869140625
-0.197052001953125
-0.0018310546875
-0.0069580078125
-0.0010986328125
-0.0069580078125
-0.00146484375
-0.01171875
-0.003662109375
-0.018310546875
-0.00439453125
-0.025634765625
-0.005126953125
-0.024169921875
0.0
0.0084228515625
0.005126953125
0.0552978515625
0.005126953125
0.0472412109375
0.0025634765625
0.0113525390625
0.00146484375
0.00146484375
0.0047607421875
-0.006591796875
-0.0087890625
-0.00732421875
-0.0091552734375
0.006591796875
0.008056640625
0.0135498046875
0.006591796875
0.0091552734375
0.002197265625
0.002197265625
0.00146484375
-0.0003662109375
0.0062255859375
-0.034423828125
-0.0604248046875
0.152374267578125
-0.0025634765625
0.0142822265625
0.062255859375
-0.175079345703125
-0.002197265625
-0.0054931640625
-0.0018310546875
-0.006591796875
-0.00146484375
-0.01171875
-0.0029296875
-0.01904296875
-0.005126953125
-0.0230712890625
-0.00439453125
-0.019775390625
0.000732421875
0.0146484375
0.005859375
0.0523681640625
0.0054931640625
0.0355224609375
0.002197265625
0.0054931640625
0.0025634765625
0.0010986328125
0.00439453125
-0.00732421875
-0.010986328125
-0.0084228515625
-0.01025390625
0.0047607421875
0.0076904296875
0.01025390625
0.005859375
0.0076904296875
0.0018310546875
0.0018310546875
0.0003662109375
-0.000732421875
0.0054931640625
-0.0340576171875
-0.0633544921875
0.131866455078125
-0.0040283203125
0.0172119140625
0.065185546875
-0.150177001953125
-0.0025634765625
-0.005126953125
-0.0047607421875
-0.008056640625
-0.0040283203125
-0.0106201171875
-0.0047607421875
-0.0146484375
-0.0084228515625
-0.0205078125
-0.0076904296875
-0.0205078125
0.00146484375
0.0091552734375
0.0084228515625
0.0472412109375
0.0076904296875
0.0347900390625
0.0032958984375
0.005126953125
0.0
0.00146484375
0.000732421875
-0.0069580078125
-0.009521484375
-0.0098876953125
-0.0069580078125
0.005859375
0.0062255859375
0.0142822265625
0.0032958984375
0.010986328125
0.000732421875
0.00439453125
-0.000732421875
0.000732421875
0.0018310546875
-0.0296630859375
-0.06298828125
0.141754150390625
-0.003662109375
0.0150146484375
0.0618896484375
-0.158966064453125
-0.00146484375
-0.0047607421875
-0.003662109375
-0.0054931640625
-0.0032958984375
-0.01025390625
-0.003662109375
-0.0172119140625
-0.006591796875
-0.0245361328125
-0.005126953125
-0.0234375
0.0040283203125
0.010986328125
0.0091552734375
0.052734375
0.006591796875
0.0391845703125
0.0025634765625
0.0069580078125
0.000732421875
0.000732421875
0.0025634765625
-0.009521484375
-0.0084228515625
-0.0084228515625
-0.0069580078125
0.0062255859375
0.0087890625
0.01171875
0.006591796875
0.0091552734375
0.0018310546875
0.0032958984375
0.00146484375
0.0003662109375
0.006591796875
-0.0325927734375
-0.052734375
0.142852783203125
-0.0040283203125
0.0113525390625
0.0545654296875
-0.165557861328125
-0.0003662109375
-0.005126953125
-0.00146484375
-0.0076904296875
-0.0010986328125
-0.0135498046875
-0.0018310546875
-0.0201416015625
-0.0047607421875
-0.0260009765625
-0.0029296875
-0.0201416015625
0.0010986328125
0.0230712890625
0.005126953125
0.05712890625
-0.00146484375
0.0260009765625
-0.0054931640625
-0.0025634765625
