-0.1080322265625
0.173614501953125
-0.009521484375
0.090087890625
0.1322021484375
-0.100738525390625
0.0450439453125
-0.0194091796875
0.015380859375
-0.002197265625
0.005126953125
0.0029296875
0.003662109375
0.00732421875
-0.00439453125
0.0032958984375
-0.0106201171875
-0.00146484375
-0.0040283203125
-0.0032958984375
-0.00146484375
0.0032958984375
-0.0032958984375
0.0091552734375
-0.010986328125
0.0054931640625
-0.0164794921875
0.0054931640625
-0.0172119140625
0.01171875
-0.0216064453125
0.0128173828125
-0.0025634765625
0.066680908203125
0.009521484375
0.119049072265625
-0.03076171875
0.0025634765625
-0.053466796875
-0.095977783203125
-0.031494140625
-0.045074462890625
-0.01318359375
-0.0047607421875
-0.015380859375
0.008056640625
-0.0238037109375
0.017578125
-0.0238037109375
0.014678955078125
-0.01904296875
0.011016845703125
-0.017578125
0.005859375
-0.015380859375
0.0106201171875
-0.0091552734375
0.0216064453125
-0.0029296875
0.01904296875
-0.0047607421875
0.0087890625
-0.0113525390625
0.0054931640625
-0.0087890625
0.0087890625
-0.012115478515625
0.0047607421875
-0.020172119140625
0.003662109375
-0.0098876953125
0.0032958984375
-0.0032958984375
0.0010986328125
0.0003662109375
0.0010986328125
0.0076904296875
-0.0040283203125
-0.0230712890625
-0.0069580078125
-0.027099609375
-0.0062255859375
-0.000732421875
-0.008056640625
-0.05859375
-0.01318359375
-0.0626220703125
-0.01171875
0.0
0.0029296875
0.0091552734375
0.0040283203125
0.01025390625
-0.0087890625
0.0098876953125
-0.012451171875
0.0087890625
-0.01025390625
0.0106201171875
-0.015045166015625
0.02490234375
0.03662109375
0.008056640625
0.089752197265625
-0.0128173828125
-0.025634765625
0.00146484375
-0.108428955078125
0.0091552734375
-0.041412353515625
0.01171875
-0.0029296875
0.0106201171875
-0.00732421875
0.005126953125
-0.005126953125
0.002197265625
-0.0025634765625
0.003662109375
-0.0032958984375
0.006591796875
-0.003662109375
0.0069580078125
-0.0003662109375
0.0106201171875
0.0003662109375
0.012451171875
-0.0047607421875
0.0091552734375
-0.0062255859375
0.0076904296875
-0.0084228515625
0.005859375
-0.0076904296875
0.0084228515625
-0.0062255859375
0.0120849609375
-0.0106201171875
0.011749267578125
-0.0106201171875
0.007354736328125
-0.0087890625
0.0040283203125
-0.003662109375
0.00439453125
-0.000732421875
0.00732421875
-0.002197265625
0.0062255859375
-0.002197265625
0.0040283203125
0.00146484375
0.006591796875
0.002197265625
0.0062255859375
-0.0076904296875
0.0040283203125
0.0
0.0054931640625
0.008056640625
0.006591796875
-0.002197265625
0.00439453125
-0.0084228515625
0.0069580078125
-0.003662109375
0.006591796875
0.00439453125
0.0025634765625
-0.0142822265625
0.017578125
0.076934814453125
-0.000732421875
0.0684814453125
-0.013916015625
-0.083526611328125
0.0047607421875
-0.05859375
0.0062255859375
0.000732421875
0.0091552734375
0.0018310546875
0.0054931640625
-0.000732421875
0.0010986328125
-0.0018310546875
-0.0003662109375
0.002197265625
-0.0025634765625
0.0032958984375
-0.002197265625
0.0054931640625
0.00146484375
0.0113525390625
0.0054931640625
0.005859375
0.008056640625
-0.005126953125
0.0047607421875
-0.009521484375
0.000732421875
-0.0084228515625
0.00146484375
-0.005126953125
0.00439453125
-0.0025634765625
0.0029296875
-0.0018310546875
0.0003662109375
-0.002197265625
0.0
-0.002197265625
0.0003662109375
-0.000732421875
0.00146484375
-0.0018310546875
0.000732421875
-0.0029296875
0.0
-0.0032958984375
0.0003662109375
-0.0025634765625
0.0
-0.005126953125
0.0003662109375
-0.005859375
0.0029296875
0.0076904296875
0.003662109375
0.0040283203125
0.0003662109375
-0.0025634765625
0.0003662109375
-0.0032958984375
0.0003662109375
-0.0054931640625
0.0
-0.012451171875
0.0150146484375
0.059326171875
0.0
0.087890625
-0.0157470703125
-0.04833984375
-0.0018310546875
-0.0911865234375
0.0018310546875
-0.0252685546875
0.0032958984375
-0.0010986328125
0.0010986328125
-0.000732421875
-0.0010986328125
0.003662109375
0.0
0.000732421875
0.0
-0.000732421875
-0.00146484375
0.0032958984375
0.000732421875
0.0069580078125
0.003662109375
0.0069580078125
0.0018310546875
-0.0025634765625
-0.0010986328125
-0.01025390625
-0.00146484375
-0.0062255859375
-0.0025634765625
-0.0032958984375
-0.00439453125
0.0010986328125
-0.00146484375
0.005126953125
0.0032958984375
-0.0003662109375
0.0029296875
-0.0054931640625
0.0025634765625
-0.002197265625
0.002197265625
0.0
0.0010986328125
0.0
-0.0018310546875
0.0069580078125
-0.0040283203125
0.0076904296875
-0.0003662109375
0.0003662109375
-0.0018310546875
-0.0029296875
-0.0076904296875
0.006591796875
-0.0029296875
0.0113525390625
0.0018310546875
-0.0029296875
0.0010986328125
-0.008056640625
0.0040283203125
-0.0029296875
0.003662109375
-0.0010986328125
0.0003662109375
-0.0230712890625
0.01611328125
0.06591796875
-0.00146484375
0.076904296875
-0.0142822265625
-0.0699462890625
0.006591796875
-0.0662841796875
0.0084228515625
-0.00732421875
0.008056640625
0.00146484375
0.0032958984375
0.0018310546875
-0.0010986328125
0.005126953125
-0.002197265625
0.0010986328125
0.00146484375
-0.003662109375
0.002197265625
0.0010986328125
0.0025634765625
0.005859375
0.00439453125
0.0018310546875
0.0032958984375
-0.00146484375
0.0010986328125
-0.002197265625
0.0
-0.0032958984375
-0.0010986328125
-0.0025634765625
0.0
-0.0032958984375
0.003662109375
-0.000732421875
0.0032958984375
-0.0010986328125
0.0018310546875
-0.0032958984375
0.0032958984375
-0.00146484375
0.0047607421875
-0.0025634765625
0.002197265625
-0.0029296875
-0.0029296875
0.00146484375
-0.005859375
0.0032958984375
-0.003662109375
-0.0018310546875
-0.003662109375
-0.006591796875
-0.002197265625
0.0032958984375
0.0032958984375
0.00146484375
0.0
-0.00439453125
-0.0018310546875
-0.0003662109375
0.002197265625
0.0010986328125
0.0025634765625
-0.005859375
0.0120849609375
0.05419921875
-0.000732421875
0.100341796875
-0.0142822265625
-0.0303955078125
0.0
-0.10400390625
0.0054931640625
-0.0347900390625
0.00439453125
-0.0003662109375
0.0010986328125
-0.000732421875
-0.0010986328125
0.0010986328125
0.00146484375
0.00146484375
0.0025634765625
-0.0010986328125
0.0
0.0032958984375
0.0
0.009521484375
0.003662109375
0.0084228515625
0.0087890625
0.000732421875
0.0069580078125
-0.0098876953125
0.0032958984375
-0.008056640625
0.0018310546875
-0.0025634765625
0.000732421875
-0.002197265625
-0.0003662109375
-0.000732421875
-0.000732421875
0.0040283203125
-0.0010986328125
0.0047607421875
-0.0003662109375
0.0
0.000732421875
-0.0018310546875
0.0
-0.0029296875
0.0
-0.0010986328125
0.0
-0.0003662109375
0.0
-0.0018310546875
-0.002197265625
-0.00439453125
-0.0029296875
0.0010986328125
0.002197265625
0.0076904296875
0.0010986328125
-0.0010986328125
-0.003662109375
-0.005126953125
-0.002197265625
-0.003662109375
-0.000732421875
-0.002197265625
-0.0029296875
-0.019775390625
0.010986328125
0.078369140625
-0.0040283203125
0.0794677734375
-0.0142822265625
-0.0780029296875
0.003662109375
-0.0732421875
0.0032958984375
-0.0146484375
0.00439453125
-0.002197265625
0.0
0.0010986328125
-0.0040283203125
0.0040283203125
-0.0029296875
0.0018310546875
-0.0010986328125
0.002197265625
-0.000732421875
0.005126953125
0.002197265625
0.0062255859375
0.0062255859375
0.00146484375
0.005859375
-0.00439453125
0.0018310546875
-0.0069580078125
-0.000732421875
-0.003662109375
-0.002197265625
-0.00146484375
-0.0025634765625
-0.0040283203125
-0.0003662109375
0.0
0.0003662109375
0.0040283203125
0.0
0.0003662109375
-0.000732421875
-0.0010986328125
-0.0003662109375
-0.00146484375
0.002197265625
-0.003662109375
0.002197265625
0.0
0.0029296875
-0.002197265625
0.002197265625
-0.005126953125
0.0
-0.0040283203125
0.0
0.005859375
0.0018310546875
0.008056640625
0.0
-0.00439453125
-0.0032958984375
-0.0018310546875
-0.002197265625
0.002197265625
-0.0032958984375
0.0029296875
-0.0040283203125
-0.0179443359375
0.012451171875
0.0721435546875
-0.013916015625
0.08203125
-0.0325927734375
-0.0618896484375
-0.0098876953125
-0.05859375
-0.0084228515625
-0.005126953125
-0.009521484375
0.0054931640625
-0.0054931640625
0.0040283203125
-0.0010986328125
0.000732421875
-0.002197265625
0.002197265625
-0.0032958984375
0.0029296875
-0.003662109375
0.003662109375
-0.00146484375
0.0032958984375
0.0003662109375
0.0018310546875
-0.000732421875
-0.0032958984375
-0.000732421875
-0.0087890625
-0.0010986328125
-0.00732421875
-0.0029296875
-0.006591796875
0.0003662109375
-0.0047607421875
0.003662109375
-0.00146484375
0.00439453125
-0.0084228515625
0.0
-0.0120849609375
0.0
-0.00439453125
0.0018310546875
-0.0029296875
0.00439453125
-0.005859375
0.0069580078125
-0.005859375
0.009521484375
-0.005859375
0.0142822265625
-0.01025390625
0.0186767578125
-0.0186767578125
0.031494140625
-0.0263671875
0.0347900390625
-0.030029296875
0.0157470703125
-0.0238037109375
0.0029296875
-0.0106201171875
0.0018310546875
-0.00146484375
-0.002197265625
0.00146484375
0.0
-0.005859375
0.013916015625
0.081298828125
-0.0040283203125
0.0574951171875
-0.013916015625
-0.0791015625
0.000732421875
-0.047607421875
0.002197265625
0.002197265625
0.00146484375
0.0029296875
-0.005859375
0.008056640625
-0.005859375
0.0069580078125
-0.00439453125
0.00439453125
-0.0040283203125
0.006591796875
-0.0029296875
0.0087890625
0.0032958984375
0.006591796875
0.0084228515625
0.0003662109375
0.00439453125
-0.005126953125
0.0010986328125
-0.00732421875
-0.00146484375
0.0
-0.0029296875
0.0040283203125
-0.00146484375
0.0
0.0010986328125
0.000732421875
0.0010986328125
0.003662109375
0.0003662109375
0.0025634765625
0.0010986328125
0.0
0.000732421875
0.0
0.0003662109375
0.0025634765625
-0.000732421875
-0.0003662109375
-0.0010986328125
0.0
-0.002197265625
0.0018310546875
-0.0029296875
-0.0018310546875
-0.000732421875
0.00732421875
0.0054931640625
0.0091552734375
0.0029296875
-0.0047607421875
-0.0029296875
-0.0032958984375
-0.000732421875
-0.00146484375
0.000732421875
-0.002197265625
0.0
-0.017578125
0.01025390625
0.07763671875
-0.0040283203125
0.08349609375
-0.013916015625
-0.0703125
0.0003662109375
-0.072509765625
0.00146484375
-0.0113525390625
0.002197265625
0.003662109375
-0.0018310546875
0.003662109375
-0.0025634765625
0.0047607421875
-0.000732421875
0.003662109375
0.000732421875
0.002197265625
0.0003662109375
0.0025634765625
0.0032958984375
0.005859375
0.01025390625
0.000732421875
0.01025390625
-0.00732421875
0.0069580078125
-0.009521484375
0.00732421875
-0.00732421875
0.005859375
-0.0069580078125
0.005859375
-0.0069580078125
0.0069580078125
-0.006591796875
0.005859375
-0.005859375
0.0054931640625
-0.0040283203125
0.0062255859375
-0.0047607421875
0.008056640625
-0.003662109375
0.0084228515625
-0.0069580078125
0.0069580078125
-0.0054931640625
0.0047607421875
-0.0029296875
0.0047607421875
-0.0040283203125
0.0040283203125
-0.0054931640625
0.005126953125
-0.008056640625
0.0069580078125
0.0010986328125
0.0076904296875
-0.0010986328125
0.003662109375
-0.0087890625
0.0010986328125
-0.0069580078125
0.005126953125
-0.00439453125
0.0062255859375
-0.0062255859375
0.009521484375
-0.0087890625
0.018310546875
0.0750732421875
0.006591796875
0.038818359375
0.0018310546875
-0.100341796875
0.0091552734375
-0.0648193359375
0.0084228515625
-0.008453369140625
0.0098876953125
-0.007354736328125
0.0062255859375
-0.0047607421875
0.005859375
-0.0062255859375
0.006591796875
-0.008056640625
0.006591796875
-0.00439453125
0.005859375
0.0
0.01318359375
-0.002197265625
0.0179443359375
-0.01025390625
0.0113525390625
-0.0164794921875
0.0047607421875
-0.0128173828125
-0.0010986328125
-0.0032958984375
-0.0040283203125
0.0025634765625
-0.0040283203125
0.0029296875
-0.0040283203125
0.0040283203125
-0.0040283203125
0.0018310546875
-0.0029296875
-0.00146484375
-0.003662109375
-0.0003662109375
-0.005126953125
-0.0003662109375
-0.003662109375
0.00146484375
-0.003662109375
0.003662109375
-0.0040283203125
0.00439453125
-0.0047607421875
0.002197265625
-0.006591796875
-0.005126953125
-0.009521484375
-0.0069580078125
-0.0040283203125
0.005859375
-0.0003662109375
0.0087890625
-0.0032958984375
0.00146484375
0.0010986328125
-0.0029296875
0.0025634765625
-0.005126953125
0.0010986328125
-0.009521484375
0.009521484375
0.048370361328125
-0.002197265625
0.086456298828125
-0.0186767578125
-0.027130126953125
-0.0062255859375
-0.085723876953125
-0.00146484375
-0.027099609375
-0.0029296875
0.00146484375
-0.0003662109375
0.0
-0.0025634765625
0.0054931640625
0.0018310546875
0.0047607421875
0.00732421875
-0.00439453125
0.0062255859375
-0.0010986328125
0.005859375
0.00439453125
0.0084228515625
0.0029296875
0.0069580078125
0.00146484375
0.0029296875
0.000732421875
0.0010986328125
0.0010986328125
-0.0010986328125
0.00146484375
0.0003662109375
0.0003662109375
-0.00146484375
0.0003662109375
-0.0029296875
0.005859375
-0.0032958984375
0.0069580078125
-0.0029296875
0.00439453125
-0.002197265625
0.00439453125
-0.0029296875
0.0032958984375
-0.0003662109375
0.0029296875
-0.00146484375
0.0025634765625
-0.0029296875
0.0018310546875
-0.0029296875
0.0029296875
-0.0032958984375
0.0025634765625
-0.0010986328125
0.00732421875
0.0029296875
0.0091552734375
0.0003662109375
0.000732421875
-0.0047607421875
0.0
-0.0018310546875
0.002197265625
0.0
0.001861572265625
-0.0010986328125
-0.016845703125
0.0084228515625
0.072509765625
-0.0062255859375
0.087554931640625
-0.0150146484375
-0.0604248046875
-0.0018310546875
-0.072540283203125
-0.0010986328125
-0.0120849609375
0.00732421875
-0.0010986328125
0.0146484375
-0.011016845703125
0.017578125
-0.0150146484375
0.0186767578125
-0.01611328125
0.0208740234375
-0.0208740234375
0.026031494140625
-0.02197265625
0.025299072265625
-0.0146484375
0.0208740234375
-0.01318359375
0.016845703125
-0.01318359375
0.0142822265625
-0.013916015625
0.0146484375
-0.0172119140625
0.01318359375
-0.016845703125
0.01025390625
-0.0142822265625
0.00732421875
-0.009521484375
0.005859375
-0.006591796875
0.009521484375
-0.0087890625
0.0128173828125
-0.013916015625
0.01171875
-0.012451171875
0.0106201171875
-0.0087890625
0.0062255859375
-0.005126953125
0.005859375
-0.0029296875
0.0076904296875
-0.008056640625
0.0087890625
-0.0098876953125
0.010986328125
-0.0146484375
0.0113525390625
-0.0084228515625
0.015380859375
-0.0029296875
0.009521484375
-0.0106201171875
0.0025634765625
-0.00732421875
0.006591796875
-0.00732421875
0.005859375
-0.01025390625
0.0032958984375
-0.02197265625
0.013916015625
0.0728759765625
-0.000732421875
0.07763671875
-0.009521484375
-0.073974609375
0.002197265625
-0.075439453125
0.0018310546875
-0.0142822265625
0.005859375
-0.0018310546875
0.0032958984375
-0.000732421875
0.0
0.0
-0.0003662109375
0.0
0.0
0.002197265625
0.0010986328125
0.00439453125
0.00439453125
0.005859375
0.0084228515625
0.000732421875
0.0084228515625
-0.0069580078125
0.005126953125
-0.008056640625
0.002197265625
-0.0062255859375
0.0010986328125
-0.0040283203125
0.000732421875
-0.002197265625
0.0
-0.0018310546875
0.00146484375
-0.0003662109375
0.0025634765625
0.0
0.002197265625
-0.0040283203125
0.0018310546875
-0.0029296875
0.002197265625
0.0003662109375
0.000732421875
0.0
0.0
0.0003662109375
-0.000732421875
0.0
-0.00146484375
-0.000732421875
-0.00146484375
-0.00439453125
-0.002197265625
-0.002197265625
0.0029296875
0.0091552734375
0.00146484375
0.005859375
-0.0025634765625
0.0003662109375
0.0025634765625
-0.0040283203125
0.0018310546875
-0.002197265625
0.0003662109375
-0.0091552734375
0.012451171875
0.0545654296875
0.0010986328125
0.09521484375
-0.016845703125
-0.0391845703125
-0.009521484375
-0.090087890625
-0.00146484375
-0.0208740234375
0.000732421875
0.005859375
-0.005126953125
0.0084228515625
-0.0084228515625
0.009521484375
-0.0069580078125
0.0091552734375
-0.0054931640625
0.0062255859375
-0.00439453125
0.0076904296875
-0.0029296875
0.0106201171875
0.0018310546875
0.006591796875
0.00146484375
-0.000732421875
-0.0032958984375
-0.002197265625
-0.005126953125
0.0003662109375
-0.0047607421875
0.00146484375
-0.005126953125
0.0
-0.008056640625
0.0018310546875
-0.006591796875
0.0025634765625
-0.0054931640625
-0.0003662109375
-0.0054931640625
0.0
-0.005126953125
0.0003662109375
-0.0054931640625
0.0010986328125
-0.0029296875
-0.000732421875
0.0003662109375
-0.0032958984375
0.002197265625
-0.0018310546875
0.002197265625
0.000732421875
-0.000732421875
-0.0040283203125
-0.0018310546875
-0.0032958984375
0.0029296875
0.00732421875
0.002197265625
0.0032958984375
0.0003662109375
-0.002197265625
0.005126953125
-0.0069580078125
0.009521484375
-0.0113525390625
0.0098876953125
-0.0157470703125
0.018310546875
0.04833984375
0.008056640625
0.08203125
-0.0087890625
-0.0391845703125
-0.002197265625
-0.085693359375
0.0040283203125
-0.0223388671875
0.0062255859375
0.003662109375
0.00732421875
0.0
0.006591796875
-0.000732421875
0.00439453125
0.0003662109375
0.0040283203125
0.000732421875
0.00439453125
0.00146484375
0.006591796875
0.000732421875
0.009521484375
0.0010986328125
0.009521484375
-0.0025634765625
0.0054931640625
-0.008056640625
0.002197265625
-0.0054931640625
0.000732421875
-0.0029296875
0.00146484375
-0.002197265625
0.0010986328125
-0.0029296875
0.0003662109375
-0.000732421875
0.0
0.00146484375
-0.0003662109375
0.000732421875
0.0003662109375
0.00146484375
-0.000732421875
0.00146484375
-0.000732421875
-0.0003662109375
0.000732421875
0.0
-0.000732421875
0.00146484375
-0.0029296875
0.0025634765625
-0.003662109375
0.0003662109375
-0.0054931640625
0.0003662109375
-0.0018310546875
0.0128173828125
0.000732421875
0.0069580078125
-0.0047607421875
-0.0003662109375
-0.005859375
0.002197265625
-0.00439453125
0.0018310546875
-0.005126953125
0.0010986328125
0.003662109375
0.0413818359375
-0.00146484375
0.0985107421875
-0.0146484375
0.0010986328125
-0.0084228515625
-0.0992431640625
-0.0029296875
-0.0399169921875
-0.002197265625
0.006591796875
-0.000732421875
0.003662109375
-0.0025634765625
0.0062255859375
-0.0032958984375
0.0040283203125
-0.000732421875
0.0003662109375
0.000732421875
0.0040283203125
0.0
0.006591796875
0.002197265625
0.006591796875
0.005126953125
0.0040283203125
0.0025634765625
-0.0018310546875
-0.000732421875
-0.0025634765625
-0.00146484375
-0.0003662109375
-0.0010986328125
-0.0025634765625
-0.0018310546875
-0.00146484375
-0.0025634765625
0.0025634765625
-0.0018310546875
0.0029296875
0.000732421875
0.00146484375
0.0018310546875
-0.0010986328125
0.0025634765625
-0.00146484375
0.00146484375
-0.002197265625
0.0003662109375
-0.0018310546875
0.0003662109375
0.0003662109375
-0.0018310546875
0.0003662109375
-0.003662109375
0.000732421875
-0.0047607421875
0.0010986328125
-0.003662109375
0.01171875
0.000732421875
0.0091552734375
-0.0003662109375
-0.0062255859375
-0.003662109375
-0.0032958984375
-0.00146484375
0.000732421875
0.0003662109375
-0.000732421875
-0.0040283203125
-0.0172119140625
0.01318359375
0.0732421875
-0.0003662109375
0.0604248046875
-0.01611328125
-0.0809326171875
-0.002197265625
-0.0531005859375
-0.0018310546875
0.0025634765625
0.0
0.00732421875
-0.005126953125
0.008056640625
-0.005859375
0.006591796875
-0.005859375
0.0062255859375
-0.006591796875
0.0069580078125
-0.0062255859375
0.009521484375
-0.002197265625
0.0120849609375
0.0025634765625
0.00439453125
0.0010986328125
-0.00146484375
-0.0025634765625
0.0003662109375
-0.00439453125
0.0003662109375
-0.0040283203125
-0.0018310546875
-0.0032958984375
-0.00146484375
-0.0062255859375
0.00146484375
-0.005859375
0.0047607421875
-0.005859375
0.0029296875
-0.0076904296875
0.0029296875
-0.0069580078125
0.0018310546875
-0.0069580078125
0.000732421875
-0.006591796875
0.0025634765625
-0.006591796875
0.000732421875
-0.0098876953125
0.000732421875
-0.009521484375
-0.00146484375
-0.006591796875
-0.000732421875
-0.00439453125
0.0087890625
-0.0029296875
0.00439453125
-0.0025634765625
-0.00439453125
-0.0040283203125
-0.005126953125
-0.0054931640625
-0.003662109375
-0.002197265625
-0.002197265625
0.002197265625
-0.0146484375
0.022705078125
0.0673828125
0.0076904296875
0.052001953125
-0.0029296875
-0.0816650390625
0.01318359375
-0.05859375
0.0120849609375
-0.0069580078125
0.01611328125
-0.0018310546875
0.0106201171875
0.000732421875
0.005859375
0.0032958984375
0.0040283203125
0.005126953125
0.0025634765625
0.005859375
0.0025634765625
0.0091552734375
0.0032958984375
0.0087890625
0.005126953125
0.0047607421875
0.0029296875
0.00146484375
0.0010986328125
0.0
-0.000732421875
0.0
-0.0018310546875
0.00146484375
-0.000732421875
0.0
-0.000732421875
-0.0003662109375
0.00146484375
0.0018310546875
0.0010986328125
-0.000732421875
-0.00146484375
-0.0010986328125
-0.0010986328125
0.0025634765625
-0.000732421875
0.002197265625
-0.0003662109375
0.0010986328125
0.0010986328125
0.000732421875
-0.0003662109375
-0.0010986328125
-0.000732421875
-0.0003662109375
-0.0018310546875
-0.0010986328125
-0.002197265625
0.009521484375
0.0
0.005859375
-0.0003662109375
-0.003662109375
-0.0025634765625
-0.00146484375
-0.0010986328125
-0.0032958984375
-0.0003662109375
-0.0003662109375
-0.005126953125
-0.0087890625
0.008056640625
0.0867919921875
-0.0040283203125
0.06591796875
-0.0120849609375
-0.0860595703125
-0.000732421875
-0.0615234375
-0.0040283203125
-0.003662109375
0.0003662109375
0.00439453125
-0.00146484375
0.005859375
-0.0029296875
0.003662109375
-0.003662109375
0.0032958984375
-0.003662109375
0.00439453125
-0.0018310546875
0.0062255859375
0.00146484375
0.0106201171875
0.005126953125
0.0062255859375
0.0047607421875
-0.0025634765625
0.0003662109375
-0.0047607421875
-0.0003662109375
0.0
-0.0003662109375
-0.00146484375
-0.003662109375
-0.0029296875
-0.0029296875
0.0029296875
-0.0003662109375
0.0025634765625
-0.00146484375
0.002197265625
-0.0010986328125
0.0025634765625
-0.0010986328125
0.0
-0.0010986328125
0.000732421875
-0.00146484375
0.0025634765625
-0.0018310546875
0.0018310546875
-0.0018310546875
0.002197265625
-0.0025634765625
0.00146484375
-0.0029296875
-0.0025634765625
-0.0040283203125
0.00439453125
0.00146484375
0.010986328125
0.0025634765625
0.0
-0.0029296875
-0.0029296875
-0.0010986328125
-0.0018310546875
0.00146484375
-0.003662109375
0.0
-0.015380859375
0.0076904296875
0.0670166015625
-0.005126953125
0.0919189453125
-0.0106201171875
-0.0574951171875
0.0040283203125
-0.0904541015625
0.003662109375
-0.02197265625
0.006591796875
-0.0029296875
0.000732421875
-0.002197265625
-0.0047607421875
0.0054931640625
-0.0040283203125
0.0087890625
-0.0047607421875
0.0069580078125
-0.0032958984375
0.008056640625
-0.000732421875
0.01025390625
0.0032958984375
0.005859375
0.0040283203125
-0.0003662109375
-0.0010986328125
-0.0025634765625
-0.003662109375
-0.0003662109375
-0.003662109375
0.002197265625
-0.003662109375
0.0018310546875
-0.0040283203125
0.0025634765625
-0.0025634765625
0.002197265625
-0.000732421875
0.002197265625
-0.0003662109375
0.0003662109375
-0.002197265625
-0.000732421875
-0.0040283203125
0.0025634765625
-0.0032958984375
0.002197265625
-0.0040283203125
0.0
-0.0029296875
0.0
-0.0018310546875
0.0018310546875
-0.0047607421875
-0.00146484375
-0.0069580078125
0.002197265625
-0.000732421875
0.01025390625
-0.0003662109375
0.00146484375
-0.005126953125
-0.0025634765625
-0.0029296875
-0.000732421875
-0.000732421875
-0.0010986328125
-0.0003662109375
-0.012451171875
0.010986328125
0.05126953125
-0.0018310546875
0.0823974609375
-0.0157470703125
-0.043212890625
-0.0032958984375
-0.079833984375
0.0032958984375
-0.0172119140625
0.0069580078125
0.002197265625
0.0032958984375
-0.0003662109375
0.0003662109375
0.0025634765625
0.0
0.0029296875
-0.002197265625
0.0032958984375
-0.0018310546875
0.0069580078125
0.0018310546875
0.0084228515625
0.005126953125
0.0062255859375
0.0069580078125
0.002197265625
0.0032958984375
-0.0029296875
0.0018310546875
-0.005126953125
0.0029296875
-0.00439453125
0.0010986328125
-0.00439453125
0.0
-0.00146484375
-0.0003662109375
0.0
0.0
0.0
0.0010986328125
0.0003662109375
0.0040283203125
-0.002197265625
0.0040283203125
-0.005126953125
0.0010986328125
-0.0018310546875
-0.0003662109375
0.0018310546875
-0.00146484375
0.0040283203125
-0.00146484375
0.0029296875
-0.0032958984375
-0.00439453125
-0.0032958984375
-0.00146484375
0.0029296875
0.009521484375
0.0040283203125
0.0047607421875
-0.00146484375
0.0
0.0003662109375
-0.0032958984375
0.0010986328125
-0.00439453125
-0.0018310546875
-0.0087890625
0.0076904296875
0.0655517578125
-0.002197265625
0.102569580078125
-0.0135498046875
-0.044677734375
-0.0040283203125
-0.099639892578125
-0.000732421875
-0.0252685546875
0.0010986328125
0.0029296875
-0.0003662109375
0.000732421875
-0.002197265625
0.00439453125
-0.003662109375
0.005126953125
-0.0032958984375
0.0029296875
-0.0018310546875
0.006591796875
-0.0003662109375
0.008056640625
0.005126953125
0.005126953125
0.00732421875
-0.000732421875
0.00439453125
-0.0054931640625
0.00146484375
-0.0054931640625
-0.0010986328125
-0.0018310546875
-0.00146484375
0.0
-0.0010986328125
-0.000732421875
-0.0010986328125
0.0003662109375
0.0003662109375
0.000732421875
0.0003662109375
0.000732421875
-0.0003662109375
-0.000732421875
0.000732421875
0.0
0.0003662109375
0.0010986328125
-0.0010986328125
0.0
-0.0010986328125
0.0003662109375
-0.00146484375
0.000732421875
-0.002197265625
-0.0003662109375
-0.005126953125
-0.000732421875
-0.003662109375
0.010986328125
0.0010986328125
0.0087890625
-0.0032958984375
-0.00146484375
-0.006591796875
-0.0010986328125
-0.003662109375
0.002197265625
-0.0040283203125
0.003662109375
0.0010986328125
0.0186767578125
0.0040283203125
0.083892822265625
-0.0128173828125
0.02490234375
-0.0142822265625
-0.089019775390625
-0.00439453125
-0.044677734375
-0.0047607421875
0.00439453125
-0.0047607421875
0.0010986328125
-0.003662109375
0.0032958984375
-0.0047607421875
0.0062255859375
-0.0087890625
0.0069580078125
-0.0106201171875
0.008056640625
-0.0087890625
0.010986328125
0.0003662109375
0.010986328125
0.0069580078125
0.0018310546875
0.003662109375
-0.0047607421875
-0.00146484375
-0.0040283203125
-0.0029296875
-0.0040283203125
-0.0029296875
-0.0040283203125
-0.0032958984375
-0.0018310546875
-0.0029296875
-0.0003662109375
0.0
-0.003662109375
0.0018310546875
-0.0032958984375
0.00146484375
-0.00146484375
0.000732421875
-0.0010986328125
0.0
0.0003662109375
0.00146484375
0.0003662109375
0.002197265625
-0.0003662109375
0.002197265625
0.000732421875
0.0025634765625
-0.0047607421875
0.0010986328125
-0.0076904296875
0.0029296875
0.0047607421875
0.00732421875
0.0018310546875
0.005859375
-0.0084228515625
0.0047607421875
-0.0076904296875
0.00732421875
-0.0062255859375
0.009521484375
-0.0040283203125
0.0106201171875
-0.0003662109375
0.0164794921875
0.0743408203125
0.006591796875
0.028564453125
0.00146484375
-0.0977783203125
0.0047607421875
-0.054931640625
0.0025634765625
0.0003662109375
0.0054931640625
0.00146484375
0.0032958984375
0.002197265625
0.002197265625
0.002197265625
0.0018310546875
0.0025634765625
0.002197265625
0.000732421875
0.0084228515625
-0.0032958984375
0.0230712890625
-0.0106201171875
0.032958984375
-0.0205078125
0.028564453125
-0.0238037109375
0.0201416015625
-0.02197265625
0.0164794921875
-0.015380859375
0.0135498046875
-0.0157470703125
0.01171875
-0.0150146484375
0.010986328125
-0.0087890625
0.010986328125
-0.0084228515625
0.010986328125
-0.0091552734375
0.0087890625
-0.0087890625
0.0062255859375
-0.0062255859375
0.00732421875
-0.005126953125
0.0076904296875
-0.0054931640625
0.005859375
-0.005859375
0.005126953125
-0.005859375
0.005126953125
-0.005126953125
0.0018310546875
-0.0084228515625
-0.000732421875
-0.003662109375
0.0062255859375
0.006591796875
0.006591796875
-0.000732421875
0.0003662109375
-0.00439453125
0.002197265625
-0.0032958984375
0.0032958984375
-0.005126953125
0.0029296875
-0.0120849609375
0.008056640625
0.063720703125
-0.002197265625
0.09521484375
-0.006591796875
-0.0538330078125
0.00146484375
-0.1029052734375
0.0010986328125
-0.0263671875
0.003662109375
0.0040283203125
0.0010986328125
0.0025634765625
-0.000732421875
0.002197265625
-0.0010986328125
0.0029296875
-0.0018310546875
0.0032958984375
-0.0010986328125
0.0018310546875
0.0003662109375
0.0062255859375
0.003662109375
0.00732421875
0.005126953125
0.002197265625
0.002197265625
-0.0029296875
-0.0010986328125
-0.0032958984375
-0.0010986328125
-0.0018310546875
0.0
-0.0032958984375
-0.00146484375
-0.0003662109375
-0.0032958984375
0.002197265625
-0.0029296875
0.0047607421875
-0.000732421875
0.00439453125
-0.000732421875
0.000732421875
-0.0029296875
0.00146484375
-0.002197265625
0.000732421875
-0.00146484375
0.000732421875
-0.0025634765625
0.003662109375
-0.0032958984375
0.0029296875
-0.002197265625
0.0
-0.0040283203125
-0.0018310546875
-0.0032958984375
0.010986328125
0.002197265625
0.0084228515625
-0.000732421875
-0.0040283203125
-0.0040283203125
-0.002197265625
-0.0018310546875
-0.0003662109375
-0.0003662109375
0.0029296875
-0.0032958984375
-0.0146484375
0.0076904296875
0.0911865234375
-0.003662109375
0.0743408203125
-0.01025390625
-0.094482421875
0.00146484375
-0.066650390625
-0.0040283203125
-0.0025634765625
-0.00146484375
0.0029296875
-0.00146484375
0.00439453125
-0.003662109375
0.00732421875
-0.005859375
0.005859375
-0.005859375
0.0084228515625
-0.0054931640625
0.0098876953125
-0.0029296875
0.0091552734375
0.0032958984375
0.0076904296875
0.0032958984375
0.0
-0.0025634765625
-0.00146484375
-0.0040283203125
-0.0018310546875
-0.0025634765625
0.0
-0.003662109375
0.002197265625
-0.0047607421875
0.00146484375
-0.00439453125
0.003662109375
-0.0040283203125
0.0018310546875
-0.0040283203125
0.00439453125
-0.0040283203125
0.0062255859375
-0.005859375
-0.000732421875
-0.0076904296875
0.0010986328125
-0.005126953125
0.0029296875
-0.00439453125
0.000732421875
-0.0040283203125
0.0018310546875
-0.005859375
-0.0040283203125
-0.0087890625
-0.0003662109375
-0.005126953125
0.0135498046875
-0.0029296875
0.008056640625
-0.005126953125
0.0040283203125
-0.0047607421875
0.0029296875
-0.005126953125
-0.0069580078125
-0.0076904296875
-0.013916015625
-0.0029296875
0.06298828125
-0.012451171875
0.0948486328125
-0.01904296875
-0.0406494140625
-0.0069580078125
-0.0882568359375
-0.0032958984375
-0.0205078125
-0.0025634765625
0.005126953125
-0.0025634765625
0.0029296875
-0.009521484375
0.009521484375
-0.01171875
0.009521484375
-0.0047607421875
0.00439453125
0.0010986328125
0.0025634765625
0.005859375
0.0047607421875
0.0106201171875
0.003662109375
0.0142822265625
-0.0018310546875
0.0106201171875
-0.0084228515625
0.008056640625
-0.009521484375
0.01171875
-0.008056640625
0.0142822265625
-0.01318359375
0.0150146484375
-0.01318359375
0.0135498046875
-0.0087890625
0.0113525390625
-0.005126953125
0.0106201171875
-0.0032958984375
0.0087890625
-0.002197265625
0.0069580078125
-0.002197265625
0.00439453125
-0.00146484375
0.0029296875
0.0040283203125
0.00146484375
0.002197265625
-0.000732421875
-0.000732421875
-0.0029296875
-0.000732421875
-0.00439453125
0.0003662109375
0.0
0.012451171875
0.000732421875
0.0084228515625
-0.003662109375
0.0018310546875
-0.0032958984375
0.0025634765625
-0.003662109375
0.0003662109375
-0.0084228515625
-0.005126953125
-0.0501708984375
0.1204833984375
-0.1109619140625
0.195220947265625
-0.0714111328125
-0.0018310546875
-0.005859375
-0.100738525390625
-0.0047607421875
-0.024169921875
-0.0069580078125
0.01025390625
-0.0040283203125
0.0054931640625
-0.0018310546875
0.0018310546875
0.0018310546875
-0.0010986328125
0.0018310546875
-0.000732421875
0.00146484375
0.002197265625
0.003662109375
0.0062255859375
0.0062255859375
0.006591796875
0.0084228515625
-0.00439453125
0.0054931640625
-0.008056640625
0.003662109375
0.0032958984375
0.003662109375
-0.0010986328125
0.0025634765625
-0.0062255859375
0.0029296875
-0.0076904296875
0.00439453125
-0.01171875
0.0010986328125
0.041748046875
-0.0230712890625
0.124908447265625
-0.0113525390625
0.005126953125
0.0318603515625
-0.141387939453125
0.0208740234375
-0.065185546875
0.0010986328125
0.003662109375
0.0018310546875
0.0010986328125
0.000732421875
0.00146484375
-0.000732421875
0.0018310546875
-0.002197265625
0.00439453125
-0.0010986328125
0.0040283203125
0.0025634765625
0.0040283203125
0.0098876953125
0.0032958984375
0.009521484375
-0.006591796875
0.00439453125
-0.006591796875
0.002197265625
-0.0025634765625
0.000732421875
-0.0029296875
0.0010986328125
-0.00146484375
0.00146484375
0.0
0.0010986328125
0.000732421875
0.00146484375
-0.0010986328125
0.0010986328125
-0.0010986328125
0.0010986328125
0.0
0.0
0.0
-0.000732421875
0.0003662109375
0.0003662109375
0.0018310546875
-0.000732421875
-0.0003662109375
0.000732421875
-0.0003662109375
0.0010986328125
0.0010986328125
0.0018310546875
0.0003662109375
0.0029296875
0.0
0.0010986328125
-0.00146484375
0.000732421875
0.0
0.00146484375
0.0010986328125
0.00146484375
0.0
0.0010986328125
-0.000732421875
0.0010986328125
-0.00146484375
0.00146484375
-0.00146484375
0.000732421875
0.000732421875
-0.0003662109375
-0.0018310546875
0.000732421875
-0.000732421875
0.0003662109375
-0.0018310546875
0.0
0.0054931640625
0.0032958984375
0.0098876953125
0.0018310546875
-0.0040283203125
-0.000732421875
-0.00439453125
0.000732421875
-0.002197265625
0.000732421875
-0.00146484375
0.00146484375
-0.0164794921875
-0.01171875
0.115753173828125
-0.02490234375
0.0911865234375
0.0106201171875
-0.117218017578125
0.0260009765625
-0.093017578125
0.0054931640625
-0.0142822265625
0.0018310546875
0.003662109375
-0.002197265625
0.0032958984375
-0.0018310546875
0.0025634765625
-0.000732421875
-0.0003662109375
-0.002197265625
0.00146484375
-0.0025634765625
0.0087890625
-0.003662109375
0.0142822265625
0.0
0.0098876953125
0.0040283203125
0.0029296875
0.0025634765625
-0.00439453125
0.0003662109375
-0.003662109375
0.0
-0.000732421875
-0.002197265625
-0.000732421875
-0.00439453125
0.0010986328125
-0.002197265625
0.0029296875
-0.0010986328125
0.00146484375
-0.00146484375
0.0
-0.00146484375
0.0003662109375
-0.003662109375
0.000732421875
-0.00439453125
0.0025634765625
-0.0032958984375
-0.0010986328125
-0.0029296875
0.0018310546875
-0.0040283203125
0.0018310546875
-0.0040283203125
-0.005859375
-0.0040283203125
-0.0029296875
-0.005126953125
0.010986328125
-0.00146484375
0.0087890625
-0.0025634765625
-0.003662109375
-0.0054931640625
-0.006591796875
-0.00146484375
-0.002197265625
-0.0018310546875
0.000732421875
-0.0029296875
0.0047607421875
-0.0216064453125
0.101104736328125
-0.0260009765625
0.05126953125
0.0113525390625
-0.109527587890625
0.01611328125
-0.0662841796875
0.000732421875
0.0018310546875
-0.000732421875
0.0025634765625
-0.0040283203125
0.0040283203125
-0.0076904296875
0.0091552734375
-0.0062255859375
0.009521484375
-0.0018310546875
0.00439453125
0.00146484375
0.0025634765625
0.0025634765625
0.006591796875
0.00439453125
0.005859375
0.0025634765625
0.000732421875
-0.0040283203125
0.000732421875
-0.0003662109375
-0.003662109375
0.008056640625
-0.0076904296875
0.01025390625
-0.0091552734375
0.0087890625
-0.0087890625
0.0069580078125
-0.0047607421875
0.005859375
-0.0040283203125
0.005126953125
-0.0025634765625
0.006591796875
-0.0029296875
0.00732421875
-0.0040283203125
0.0054931640625
-0.00439453125
0.005126953125
-0.000732421875
0.00439453125
-0.0003662109375
0.0025634765625
0.0003662109375
-0.000732421875
-0.000732421875
-0.0047607421875
0.00146484375
-0.003662109375
0.0142822265625
-0.0010986328125
0.0098876953125
-0.005126953125
0.0054931640625
-0.00439453125
0.005859375
-0.0003662109375
0.00146484375
0.0025634765625
-0.00439453125
0.0010986328125
0.0582275390625
-0.027099609375
0.126007080078125
-0.01171875
-0.019775390625
0.0281982421875
-0.139190673828125
0.016845703125
-0.054931640625
0.00439453125
0.0029296875
0.003662109375
0.0010986328125
0.0025634765625
0.0
0.0010986328125
0.0018310546875
-0.0003662109375
0.003662109375
-0.000732421875
0.0047607421875
-0.0003662109375
0.00732421875
0.00146484375
0.0091552734375
0.005126953125
0.00439453125
0.00439453125
-0.0047607421875
0.0018310546875
-0.0054931640625
0.0010986328125
-0.00439453125
0.00146484375
-0.0040283203125
0.0003662109375
-0.0025634765625
0.0
-0.0010986328125
0.0010986328125
-0.000732421875
0.000732421875
0.0
0.0003662109375
-0.0003662109375
0.000732421875
0.0010986328125
-0.0003662109375
0.0003662109375
-0.0010986328125
-0.0003662109375
0.0003662109375
0.0003662109375
-0.0010986328125
-0.0010986328125
-0.0018310546875
-0.000732421875
-0.002197265625
-0.003662109375
-0.0032958984375
0.0062255859375
-0.00146484375
0.01025390625
-0.0003662109375
-0.002197265625
-0.0040283203125
-0.002197265625
-0.003662109375
0.00146484375
-0.00146484375
0.0
0.0
-0.01904296875
-0.0172119140625
0.100738525390625
-0.03515625
0.119781494140625
0.009521484375
-0.089019775390625
0.0318603515625
-0.116851806640625
0.00732421875
-0.02197265625
0.00146484375
0.0047607421875
0.0010986328125
0.0
-0.0003662109375
0.0010986328125
-0.002197265625
0.002197265625
-0.000732421875
0.0032958984375
-0.000732421875
0.005126953125
-0.0003662109375
0.0087890625
0.0040283203125
0.006591796875
0.0084228515625
-0.0010986328125
0.0084228515625
-0.0084228515625
0.0091552734375
-0.013916015625
0.0128173828125
-0.0128173828125
0.012451171875
-0.0128173828125
0.010986328125
-0.0135498046875
0.010986328125
-0.0084228515625
0.0091552734375
-0.0076904296875
0.008056640625
-0.006591796875
0.0069580078125
-0.0069580078125
0.0076904296875
-0.0087890625
0.008056640625
-0.008056640625
0.00439453125
-0.005126953125
0.0040283203125
-0.0029296875
0.005859375
-0.003662109375
0.003662109375
-0.00732421875
0.00146484375
-0.00732421875
0.0040283203125
0.006591796875
0.008056640625
0.0018310546875
0.005126953125
-0.0091552734375
0.002197265625
-0.008056640625
0.0040283203125
-0.0054931640625
0.0032958984375
-0.002197265625
0.003662109375
0.0087890625
-0.0201416015625
0.11865234375
-0.019775390625
0.046142578125
0.0260009765625
-0.1380615234375
0.0234375
-0.0758056640625
0.00146484375
0.00146484375
0.00146484375
0.003662109375
-0.0018310546875
0.0018310546875
-0.002197265625
0.002197265625
-0.0018310546875
0.0054931640625
-0.0040283203125
0.0054931640625
-0.0032958984375
0.0087890625
-0.0003662109375
0.0098876953125
0.005126953125
0.0029296875
0.006591796875
-0.0062255859375
0.0010986328125
-0.0062255859375
-0.000732421875
-0.003662109375
0.000732421875
-0.002197265625
-0.0003662109375
-0.0018310546875
-0.002197265625
-0.0003662109375
-0.0018310546875
0.0025634765625
-0.00146484375
0.000732421875
-0.002197265625
0.0010986328125
-0.002197265625
0.003662109375
-0.0029296875
0.0025634765625
-0.0032958984375
0.00146484375
-0.000732421875
-0.000732421875
-0.00146484375
0.0
-0.0040283203125
0.0018310546875
-0.0040283203125
-0.002197265625
-0.00439453125
0.0032958984375
0.0
0.01025390625
-0.000732421875
-0.0003662109375
-0.0062255859375
-0.003662109375
-0.003662109375
0.0003662109375
-0.00439453125
0.00146484375
-0.0047607421875
-0.0128173828125
-0.015380859375
0.079833984375
-0.0355224609375
0.116455078125
-0.0091552734375
-0.0545654296875
0.01611328125
-0.1051025390625
0.005126953125
-0.02783203125
0.0003662109375
0.0010986328125
-0.00146484375
0.0010986328125
-0.0018310546875
0.0029296875
0.000732421875
0.00146484375
0.002197265625
0.00146484375
-0.000732421875
0.003662109375
0.000732421875
0.00439453125
0.0069580078125
0.00439453125
0.0076904296875
0.0
0.0047607421875
-0.0047607421875
-0.0010986328125
-0.000732421875
-0.0054931640625
0.0040283203125
-0.0084228515625
0.0091552734375
-0.0135498046875
0.016845703125
-0.0146484375
0.0194091796875
-0.0091552734375
0.01318359375
-0.0010986328125
0.0076904296875
0.000732421875
0.003662109375
-0.0018310546875
0.00439453125
-0.002197265625
0.005859375
-0.0018310546875
0.0029296875
-0.0010986328125
0.0032958984375
0.0018310546875
0.0040283203125
0.000732421875
0.0
-0.003662109375
0.000732421875
-0.0025634765625
0.015380859375
0.0018310546875
0.00732421875
0.0
-0.003662109375
-0.0018310546875
-0.0003662109375
-0.0010986328125
-0.0003662109375
-0.00146484375
-0.0010986328125
0.0
0.0252685546875
-0.02783203125
0.126739501953125
-0.0296630859375
0.0457763671875
0.0076904296875
-0.113922119140625
0.006591796875
-0.0560302734375
-0.00146484375
0.0040283203125
0.00146484375
-0.0025634765625
-0.0091552734375
0.0062255859375
-0.02197265625
0.017578125
-0.0150146484375
0.01171875
-0.00439453125
0.0029296875
-0.0040283203125
0.005859375
-0.0018310546875
0.012451171875
0.0029296875
0.005859375
0.003662109375
-0.0069580078125
0.003662109375
-0.0106201171875
0.0032958984375
-0.0076904296875
0.0029296875
-0.00732421875
0.0032958984375
-0.005126953125
0.000732421875
-0.0018310546875
0.0003662109375
0.000732421875
0.00146484375
0.0
0.000732421875
-0.0010986328125
-0.000732421875
0.0003662109375
0.0003662109375
0.0
0.002197265625
0.0003662109375
0.000732421875
-0.000732421875
-0.002197265625
0.0010986328125
-0.0025634765625
0.003662109375
-0.002197265625
-0.000732421875
-0.0047607421875
-0.0018310546875
-0.0032958984375
0.01025390625
0.0010986328125
0.0084228515625
-0.0018310546875
-0.000732421875
-0.00439453125
0.0003662109375
-0.0040283203125
0.0029296875
-0.00439453125
0.006591796875
-0.0018310546875
0.003662109375
-0.023101806640625
0.119415283203125
-0.029327392578125
0.076202392578125
0.011749267578125
-0.116485595703125
0.013580322265625
-0.074005126953125
-0.0069580078125
0.005859375
-0.005859375
0.009521484375
-0.009552001953125
0.0091552734375
-0.012481689453125
0.012451171875
-0.01318359375
0.0128173828125
-0.0135498046875
0.016845703125
-0.0150146484375
0.021270751953125
-0.0150146484375
0.020904541015625
-0.01025390625
0.018310546875
-0.009521484375
0.012451171875
-0.0135498046875
0.0113525390625
-0.0157470703125
0.0142822265625
-0.0172119140625
0.0142822265625
-0.016845703125
0.0142822265625
-0.0164794921875
0.0157470703125
-0.0179443359375
0.017578125
-0.016845703125
0.0179443359375
-0.0157470703125
0.015380859375
-0.0146484375
0.013916015625
-0.01318359375
0.0146484375
-0.0135498046875
0.0146484375
-0.012451171875
0.01318359375
-0.010986328125
0.0098876953125
-0.0106201171875
0.0098876953125
-0.009521484375
0.0128173828125
-0.01171875
0.0076904296875
-0.012451171875
0.00732421875
-0.008056640625
0.0216064453125
-0.006591796875
0.0150146484375
-0.0084228515625
0.006591796875
-0.005126953125
0.0025634765625
-0.0029296875
-0.000732421875
-0.003662109375
-0.0003662109375
-0.0018310546875
0.0538330078125
-0.0303955078125
0.1248779296875
-0.0252685546875
-0.0003662109375
0.010986328125
-0.123046875
-0.0003662109375
-0.04541015625
-0.01025390625
0.0157470703125
-0.01025390625
0.010986328125
-0.0128173828125
0.0135498046875
-0.012451171875
0.0146484375
-0.0128173828125
0.0120849609375
-0.0135498046875
0.0150146484375
-0.012451171875
0.0157470703125
-0.0054931640625
0.0157470703125
0.0003662109375
0.0091552734375
0.0
0.0
-0.002197265625
0.000732421875
-0.0025634765625
0.0003662109375
-0.0010986328125
-0.002197265625
0.000732421875
-0.0018310546875
-0.0010986328125
-0.0003662109375
-0.002197265625
0.000732421875
0.000732421875
0.0
0.0018310546875
-0.0003662109375
0.0025634765625
-0.0054931640625
0.00146484375
-0.0069580078125
-0.0003662109375
0.0018310546875
-0.00146484375
0.000732421875
-0.0040283203125
0.00146484375
-0.0029296875
0.005126953125
-0.0003662109375
0.002197265625
0.000732421875
-0.005126953125
-0.0003662109375
0.005126953125
0.00146484375
0.0087890625
0.0003662109375
-0.0032958984375
-0.0040283203125
-0.0010986328125
-0.0018310546875
0.002197265625
0.0
0.005126953125
-0.0010986328125
-0.0113525390625
-0.0157470703125
0.113189697265625
-0.0245361328125
0.086456298828125
0.01318359375
-0.116119384765625
0.0238037109375
-0.084259033203125
0.0003662109375
-0.005126953125
-0.0010986328125
0.006591796875
-0.003662109375
0.0069580078125
-0.00439453125
0.005859375
-0.00439453125
0.00439453125
-0.00439453125
0.005859375
-0.00146484375
0.006591796875
0.0003662109375
0.0054931640625
0.0040283203125
0.00439453125
0.0047607421875
-0.0010986328125
0.0003662109375
-0.0032958984375
-0.0010986328125
-0.0010986328125
-0.0003662109375
-0.0029296875
0.0018310546875
-0.00439453125
0.000732421875
-0.0018310546875
-0.0025634765625
0.002197265625
-0.0018310546875
0.0032958984375
-0.0003662109375
0.0010986328125
0.0
-0.0003662109375
0.000732421875
0.00146484375
0.0010986328125
0.000732421875
0.002197265625
0.000732421875
0.0029296875
0.0010986328125
0.0018310546875
0.00146484375
0.002197265625
0.00146484375
0.002197265625
-0.00146484375
0.0025634765625
-0.0032958984375
0.0040283203125
0.01025390625
0.0062255859375
0.00732421875
0.0029296875
-0.005859375
0.0
-0.005859375
0.000732421875
-0.0029296875
-0.0003662109375
0.000732421875
0.0003662109375
0.01025390625
-0.0234375
0.122344970703125
-0.022705078125
0.052764892578125
0.0238037109375
-0.136627197265625
0.0216064453125
-0.082061767578125
0.0
0.0
0.003662109375
0.003662109375
0.0025634765625
0.0010986328125
-0.0018310546875
0.002197265625
-0.0029296875
0.0025634765625
-0.005126953125
0.0040283203125
-0.0040283203125
0.0084228515625
-0.0010986328125
0.009521484375
0.0018310546875
0.0018310546875
0.005126953125
-0.0032958984375
0.0032958984375
-0.0062255859375
0.0
-0.006591796875
-0.0003662109375
-0.0029296875
0.0
-0.002197265625
-0.0003662109375
0.0018310546875
-0.0010986328125
-0.000732421875
-0.00146484375
-0.0025634765625
-0.000732421875
0.0010986328125
-0.00146484375
-0.000732421875
-0.000732421875
0.0
0.0
0.0010986328125
-0.00146484375
-0.000732421875
-0.0018310546875
-0.0018310546875
-0.000732421875
-0.0003662109375
-0.0010986328125
0.00146484375
-0.0025634765625
-0.0047607421875
-0.0040283203125
0.0025634765625
-0.0003662109375
0.010986328125
0.000732421875
-0.000732421875
-0.000732421875
0.0003662109375
0.0
-0.0010986328125
-0.0003662109375
-0.005126953125
0.0029296875
-0.0157470703125
-0.005126953125
0.072174072265625
-0.029327392578125
0.108795166015625
-0.0076904296875
-0.053131103515625
0.020904541015625
-0.108428955078125
0.0091552734375
-0.03076171875
0.00146484375
0.0029296875
0.000732421875
0.0
-0.0010986328125
0.0003662109375
-0.00146484375
0.0
0.0
0.0003662109375
-0.000732421875
0.00439453125
0.002197265625
0.0087890625
0.006591796875
0.005126953125
0.0087890625
-0.0018310546875
0.00732421875
-0.0047607421875
0.0040283203125
-0.002197265625
0.0025634765625
-0.0040283203125
0.0025634765625
-0.005126953125
0.0032958984375
-0.00146484375
0.0029296875
-0.00146484375
0.0029296875
0.000732421875
0.0054931640625
0.000732421875
0.003662109375
-0.0010986328125
0.0025634765625
0.0
0.0025634765625
0.0003662109375
0.0010986328125
-0.0010986328125
0.0025634765625
-0.0003662109375
0.0025634765625
0.0
0.0029296875
0.000732421875
0.005126953125
-0.00146484375
0.0003662109375
-0.0040283203125
-0.002197265625
0.008056640625
0.0010986328125
0.00439453125
0.000732421875
-0.00439453125
0.000732421875
-0.0032958984375
0.005126953125
-0.0029296875
0.0040283203125
0.0003662109375
0.000732421875
-0.0054931640625
-0.01611328125
0.119781494140625
-0.02197265625
0.075103759765625
0.0194091796875
-0.128204345703125
0.024169921875
-0.085723876953125
-0.000732421875
-0.0047607421875
0.0
0.002197265625
0.0003662109375
0.000732421875
-0.002197265625
0.0025634765625
-0.0032958984375
0.000732421875
-0.002197265625
0.0018310546875
-0.0010986328125
0.006591796875
0.0003662109375
0.009521484375
0.0047607421875
0.005859375
0.0054931640625
-0.0032958984375
0.002197265625
-0.0054931640625
-0.0010986328125
-0.005126953125
-0.00146484375
-0.0040283203125
0.0003662109375
-0.0025634765625
0.000732421875
-0.000732421875
0.00146484375
0.0
0.000732421875
0.0
0.0018310546875
0.002197265625
0.0003662109375
0.0003662109375
-0.0025634765625
0.0
-0.0010986328125
-0.00146484375
-0.00146484375
-0.0003662109375
-0.00146484375
-0.000732421875
0.0010986328125
-0.0010986328125
0.002197265625
0.0032958984375
-0.0018310546875
0.0
-0.005859375
-0.0040283203125
-0.003662109375
0.008056640625
0.003662109375
0.0069580078125
0.00439453125
-0.0047607421875
-0.000732421875
-0.003662109375
0.0003662109375
-0.0018310546875
0.0
0.0
0.0003662109375
-0.01904296875
-0.0113525390625
0.115386962890625
-0.0263671875
0.098907470703125
0.0098876953125
-0.114288330078125
0.025634765625
-0.094512939453125
0.00439453125
-0.0128173828125
0.0025634765625
0.0029296875
-0.0010986328125
0.00146484375
-0.0025634765625
0.000732421875
-0.0003662109375
0.0029296875
0.0003662109375
0.003662109375
-0.000732421875
0.005126953125
-0.000732421875
0.010986328125
0.0032958984375
0.008056640625
0.0054931640625
-0.002197265625
0.0018310546875
-0.0047607421875
0.0
-0.0040283203125
-0.000732421875
-0.00439453125
-0.000732421875
-0.00146484375
0.0018310546875
-0.0003662109375
0.002197265625
0.0
-0.000732421875
0.000732421875
-0.0025634765625
0.0010986328125
-0.00146484375
0.0010986328125
-0.0010986328125
0.0003662109375
-0.00146484375
0.00146484375
-0.0010986328125
0.0003662109375
-0.0003662109375
-0.0003662109375
-0.00146484375
-0.000732421875
-0.0018310546875
0.0003662109375
-0.0025634765625
0.0003662109375
-0.0032958984375
-0.0062255859375
-0.0025634765625
0.002197265625
0.002197265625
0.0106201171875
0.0040283203125
-0.00146484375
-0.0010986328125
-0.0047607421875
0.0003662109375
-0.0018310546875
-0.0003662109375
-0.0025634765625
-0.0003662109375
-0.016845703125
-0.00439453125
0.0732421875
-0.0274658203125
0.109893798828125
-0.0047607421875
-0.0574951171875
0.0205078125
-0.107696533203125
0.0047607421875
-0.0263671875
0.0
0.0029296875
-0.0003662109375
0.00146484375
-0.000732421875
0.002197265625
-0.0040283203125
0.0029296875
-0.003662109375
0.005126953125
-0.003662109375
0.00439453125
-0.0040283203125
0.0087890625
0.0032958984375
0.0091552734375
0.008056640625
0.0
0.0032958984375
-0.0069580078125
0.0003662109375
-0.0047607421875
0.0003662109375
-0.003662109375
0.0003662109375
-0.0029296875
-0.000732421875
0.0
0.0
-0.0018310546875
0.0025634765625
0.0003662109375
0.0029296875
-0.0018310546875
0.003662109375
-0.0032958984375
0.003662109375
0.0010986328125
0.0025634765625
0.00146484375
0.0029296875
-0.00146484375
0.0040283203125
0.0
0.002197265625
-0.000732421875
0.002197265625
-0.0018310546875
0.000732421875
-0.0010986328125
-0.000732421875
-0.003662109375
0.000732421875
0.0076904296875
0.0040283203125
0.008056640625
0.003662109375
-0.0029296875
-0.0003662109375
-0.0025634765625
-0.0003662109375
-0.0047607421875
0.0
-0.00146484375
0.0029296875
-0.021240234375
-0.009521484375
0.102203369140625
-0.02783203125
0.111358642578125
0.005126953125
-0.094146728515625
0.0267333984375
-0.101837158203125
0.0069580078125
-0.02197265625
0.00146484375
0.0018310546875
0.000732421875
0.00146484375
0.00146484375
0.0029296875
-0.0003662109375
0.002197265625
-0.00146484375
0.0018310546875
-0.0010986328125
0.005126953125
-0.0040283203125
0.0091552734375
-0.0003662109375
0.0084228515625
0.0069580078125
-0.0010986328125
0.005859375
-0.0047607421875
0.00146484375
-0.0040283203125
0.0003662109375
-0.0025634765625
0.0
-0.0029296875
-0.0010986328125
-0.0018310546875
0.0
0.0
0.0
0.0
-0.000732421875
0.002197265625
-0.000732421875
0.0003662109375
-0.00146484375
0.0
-0.000732421875
-0.0010986328125
0.0
0.0
-0.000732421875
0.0003662109375
0.0003662109375
0.0
0.0018310546875
0.003662109375
-0.002197265625
-0.000732421875
-0.0032958984375
-0.005859375
-0.0018310546875
-0.00146484375
-0.0003662109375
0.01025390625
0.00146484375
0.005126953125
-0.0010986328125
-0.0018310546875
-0.0003662109375
-0.0029296875
0.0010986328125
-0.00439453125
0.00146484375
-0.0040283203125
0.002197265625
0.038818359375
-0.02490234375
0.128570556640625
-0.0186767578125
0.0120849609375
0.0252685546875
-0.140289306640625
0.0172119140625
-0.0662841796875
0.000732421875
0.0029296875
0.002197265625
0.0029296875
0.0
0.0010986328125
0.0003662109375
0.0
0.0
0.0018310546875
-0.00146484375
0.00439453125
-0.0018310546875
0.0054931640625
-0.002197265625
0.0106201171875
0.0025634765625
0.0069580078125
0.005126953125
-0.003662109375
0.0025634765625
-0.0062255859375
0.00146484375
-0.0032958984375
0.000732421875
-0.00146484375
-0.000732421875
-0.00146484375
-0.0010986328125
0.0
0.000732421875
0.000732421875
0.0003662109375
-0.0003662109375
-0.0003662109375
0.0003662109375
-0.0010986328125
0.0003662109375
-0.000732421875
-0.0003662109375
-0.000732421875
0.0
-0.0003662109375
0.0003662109375
-0.0003662109375
0.0010986328125
-0.00146484375
0.000732421875
0.0
-0.000732421875
-0.002197265625
-0.0018310546875
-0.0040283203125
-0.0010986328125
-0.003662109375
0.0
0.0010986328125
0.0084228515625
0.0047607421875
0.0029296875
0.0003662109375
-0.000732421875
-0.000732421875
-0.00146484375
-0.0003662109375
-0.0054931640625
-0.000732421875
-0.0032958984375
0.0025634765625
0.046875
-0.0230712890625
0.123077392578125
-0.0179443359375
-0.0018310546875
0.0201416015625
-0.135894775390625
0.0135498046875
-0.0574951171875
-0.0003662109375
0.005859375
-0.00146484375
0.0029296875
-0.0010986328125
0.0029296875
-0.0025634765625
0.003662109375
-0.0040283203125
0.0032958984375
-0.0054931640625
0.006591796875
-0.00439453125
0.009521484375
-0.0018310546875
0.0087890625
0.00439453125
0.00146484375
0.0054931640625
-0.005859375
-0.0003662109375
-0.0047607421875
-0.0018310546875
-0.0018310546875
-0.00146484375
-0.0025634765625
-0.000732421875
-0.0040283203125
-0.0029296875
-0.000732421875
-0.0032958984375
0.0010986328125
-0.002197265625
0.0010986328125
-0.0025634765625
0.0010986328125
-0.0018310546875
-0.0010986328125
-0.0003662109375
0.0
0.000732421875
0.0032958984375
-0.0025634765625
0.0
-0.003662109375
-0.002197265625
-0.0032958984375
0.0
-0.00439453125
-0.0003662109375
-0.0040283203125
-0.000732421875
-0.0032958984375
-0.0010986328125
-0.003662109375
0.0029296875
-0.0003662109375
0.008056640625
0.0
-0.0010986328125
-0.0029296875
-0.003662109375
-0.0003662109375
-0.0003662109375
0.0010986328125
-0.003662109375
0.003662109375
-0.0146484375
0.002197265625
0.0699462890625
-0.0186767578125
0.10546875
-0.005126953125
-0.0531005859375
0.0223388671875
-0.1102294921875
0.013916015625
-0.0325927734375
0.0062255859375
0.002197265625
0.0054931640625
0.0003662109375
0.005126953125
0.0010986328125
0.0025634765625
0.00146484375
0.00146484375
0.0025634765625
0.0010986328125
0.005859375
0.0003662109375
0.00732421875
0.003662109375
0.00732421875
0.008056640625
0.0032958984375
0.0054931640625
-0.00439453125
0.002197265625
-0.0047607421875
0.003662109375
-0.00146484375
0.0040283203125
-0.002197265625
0.003662109375
-0.0018310546875
0.003662109375
0.0003662109375
0.0032958984375
0.0029296875
0.0018310546875
0.0003662109375
0.0018310546875
-0.000732421875
0.002197265625
0.0003662109375
-0.0003662109375
-0.0003662109375
-0.000732421875
0.0
0.000732421875
0.0010986328125
0.0003662109375
0.00146484375
0.0003662109375
0.000732421875
0.00146484375
-0.00146484375
0.0010986328125
-0.0003662109375
-0.00146484375
-0.0025634765625
-0.002197265625
0.0025634765625
0.0029296875
0.009521484375
0.0040283203125
-0.0018310546875
0.0
-0.0032958984375
0.0010986328125
-0.002197265625
0.0
-0.0025634765625
-0.000732421875
-0.01171875
-0.0087890625
0.0849609375
-0.028564453125
0.123077392578125
-0.00146484375
-0.063720703125
0.025634765625
-0.123809814453125
0.009521484375
-0.0333251953125
0.002197265625
0.0025634765625
0.00146484375
0.00146484375
0.0
0.0018310546875
-0.0010986328125
0.0018310546875
-0.0025634765625
0.002197265625
-0.0054931640625
0.005126953125
-0.0054931640625
0.0084228515625
0.0010986328125
0.0091552734375
0.005859375
0.0032958984375
0.005126953125
-0.0025634765625
0.00146484375
-0.0047607421875
-0.000732421875
-0.0040283203125
0.0
-0.003662109375
-0.0010986328125
-0.0010986328125
-0.00146484375
0.0
-0.000732421875
-0.0003662109375
0.0003662109375
0.0032958984375
0.000732421875
0.00146484375
-0.0010986328125
0.0
-0.0010986328125
0.0010986328125
0.002197265625
0.0003662109375
0.00146484375
-0.000732421875
-0.00146484375
0.0
-0.00146484375
0.000732421875
-0.0010986328125
0.0003662109375
-0.000732421875
0.0018310546875
-0.0010986328125
-0.0029296875
-0.00146484375
-0.003662109375
-0.0003662109375
0.01025390625
0.0032958984375
0.0040283203125
0.000732421875
-0.00439453125
-0.00146484375
-0.0029296875
0.0010986328125
-0.0010986328125
-0.0003662109375
0.0018310546875
0.0018310546875
0.0098876953125
-0.01904296875
0.122711181640625
-0.0205078125
0.0523681640625
0.0208740234375
-0.136260986328125
0.019775390625
-0.0772705078125
-0.0003662109375
0.0003662109375
0.0
0.0029296875
0.000732421875
0.002197265625
-0.000732421875
0.0
-0.003662109375
0.0029296875
-0.005126953125
0.005859375
-0.0047607421875
0.0087890625
-0.0025634765625
0.0113525390625
0.0047607421875
0.005126953125
0.0069580078125
-0.0040283203125
0.0029296875
-0.0054931640625
0.0003662109375
-0.005126953125
-0.0025634765625
-0.002197265625
-0.00439453125
0.0
-0.0040283203125
0.0003662109375
-0.002197265625
0.00146484375
-0.000732421875
0.002197265625
-0.0010986328125
0.002197265625
-0.0003662109375
0.000732421875
0.000732421875
-0.000732421875
-0.0010986328125
-0.000732421875
-0.0010986328125
0.003662109375
-0.0018310546875
-0.0010986328125
-0.0029296875
-0.0010986328125
-0.003662109375
0.0010986328125
-0.0047607421875
-0.00146484375
-0.0032958984375
-0.000732421875
-0.0062255859375
-0.0040283203125
-0.0084228515625
0.005859375
-0.003662109375
0.0098876953125
-0.002197265625
-0.0032958984375
-0.0040283203125
-0.0040283203125
-0.000732421875
-0.00146484375
0.0025634765625
-0.002197265625
0.0029296875
-0.01611328125
-0.000732421875
0.0699462890625
-0.0201416015625
0.1072998046875
-0.003662109375
-0.0516357421875
0.0216064453125
-0.106201171875
0.012451171875
-0.0303955078125
0.0069580078125
0.000732421875
0.0040283203125
0.0003662109375
0.0018310546875
0.0003662109375
0.0010986328125
-0.0010986328125
0.0010986328125
0.002197265625
0.0003662109375
0.0047607421875
0.0010986328125
0.006591796875
0.0040283203125
0.005126953125
0.0084228515625
0.0
0.0076904296875
-0.0040283203125
0.003662109375
-0.0040283203125
0.0029296875
-0.00439453125
0.0047607421875
-0.0018310546875
0.005859375
0.0003662109375
0.00439453125
-0.002197265625
0.0040283203125
-0.00146484375
0.0029296875
0.00146484375
0.00146484375
0.0010986328125
0.0029296875
0.0003662109375
0.0029296875
0.0025634765625
0.0003662109375
-0.0003662109375
0.0
-0.0010986328125
0.000732421875
0.00146484375
0.0
-0.0003662109375
0.0010986328125
0.0010986328125
0.0
-0.000732421875
-0.0029296875
-0.0047607421875
-0.0029296875
0.000732421875
0.0018310546875
0.0087890625
0.0018310546875
0.0018310546875
-0.002197265625
-0.0010986328125
0.00146484375
0.0
0.0025634765625
-0.0047607421875
0.002197265625
-0.0120849609375
-0.0062255859375
0.0823974609375
-0.0274658203125
0.124542236328125
-0.00439453125
-0.0589599609375
0.0223388671875
-0.129669189453125
0.0106201171875
-0.0347900390625
0.0040283203125
0.00439453125
0.0025634765625
0.000732421875
0.0003662109375
0.002197265625
-0.00146484375
0.0032958984375
-0.00146484375
0.0025634765625
-0.0025634765625
0.003662109375
-0.0025634765625
0.01025390625
-0.0003662109375
0.01025390625
0.0047607421875
0.0010986328125
0.0029296875
-0.00439453125
-0.00146484375
-0.0047607421875
-0.0018310546875
-0.0032958984375
-0.0010986328125
-0.0010986328125
-0.000732421875
-0.000732421875
-0.0010986328125
-0.0003662109375
-0.000732421875
0.0010986328125
-0.0018310546875
-0.0010986328125
-0.0010986328125
0.0010986328125
0.0
0.0018310546875
-0.00146484375
0.00146484375
-0.00146484375
0.0003662109375
0.0003662109375
-0.002197265625
0.0
0.0003662109375
-0.000732421875
0.0010986328125
-0.0010986328125
-0.0018310546875
-0.0010986328125
-0.0003662109375
-0.00146484375
-0.000732421875
-0.0018310546875
-0.00146484375
0.0010986328125
0.0106201171875
0.0040283203125
0.005859375
0.0003662109375
-0.006591796875
-0.000732421875
-0.00439453125
0.00146484375
-0.00146484375
0.0003662109375
-0.0003662109375
0.00146484375
0.0128173828125
-0.018310546875
0.123809814453125
-0.0194091796875
0.0494384765625
0.0201416015625
-0.134796142578125
0.018310546875
-0.0772705078125
0.0003662109375
-0.00146484375
0.00146484375
0.0032958984375
0.0
0.0010986328125
-0.0010986328125
0.0010986328125
-0.0018310546875
0.00439453125
-0.0025634765625
0.00439453125
-0.005126953125
0.005859375
-0.00146484375
0.01171875
0.0040283203125
0.00732421875
0.006591796875
-0.002197265625
0.0047607421875
-0.00439453125
0.000732421875
-0.00439453125
-0.000732421875
-0.002197265625
-0.0010986328125
-0.00146484375
0.000732421875
0.0
0.0
0.00146484375
-0.002197265625
0.002197265625
-0.0029296875
0.002197265625
-0.0018310546875
-0.0010986328125
-0.0010986328125
-0.00146484375
-0.0040283203125
-0.00146484375
-0.005859375
0.0
-0.0032958984375
0.000732421875
-0.00146484375
0.00146484375
-0.00146484375
0.000732421875
-0.0018310546875
0.0
-0.0018310546875
-0.0025634765625
-0.0025634765625
-0.003662109375
-0.0025634765625
0.0106201171875
0.00146484375
0.00732421875
-0.0018310546875
-0.0047607421875
-0.005126953125
-0.003662109375
-0.003662109375
-0.00146484375
-0.0018310546875
0.0010986328125
0.000732421875
-0.0135498046875
-0.0091552734375
0.1021728515625
-0.022705078125
0.0772705078125
0.003662109375
-0.1065673828125
0.0172119140625
-0.0772705078125
0.00146484375
-0.0054931640625
0.002197265625
0.0018310546875
0.0003662109375
-0.0003662109375
0.0
0.0029296875
0.0003662109375
0.0010986328125
-0.0018310546875
0.000732421875
-0.002197265625
0.005859375
0.0003662109375
0.01025390625
0.0047607421875
0.0054931640625
0.008056640625
0.0
0.0054931640625
-0.005126953125
0.002197265625
-0.005859375
0.0010986328125
-0.0029296875
0.0018310546875
-0.0040283203125
0.0029296875
-0.0032958984375
0.00146484375
-0.0003662109375
0.0018310546875
0.00146484375
0.002197265625
0.00146484375
0.0003662109375
0.000732421875
0.0003662109375
0.0
0.00146484375
-0.000732421875
0.0003662109375
0.0
-0.0003662109375
0.0010986328125
0.0003662109375
0.0
0.0025634765625
-0.0010986328125
0.0025634765625
0.000732421875
0.000732421875
-0.0010986328125
-0.000732421875
-0.002197265625
0.0025634765625
0.0106201171875
0.0062255859375
0.00439453125
0.002197265625
-0.0054931640625
0.0003662109375
-0.0040283203125
0.002197265625
-0.0032958984375
0.002197265625
-0.0003662109375
0.0018310546875
0.0325927734375
-0.0216064453125
0.122344970703125
-0.0179443359375
0.0216064453125
0.02197265625
-0.135162353515625
0.017578125
-0.06884765625
0.0025634765625
0.0025634765625
0.002197265625
0.0029296875
0.0010986328125
0.0
-0.0003662109375
0.000732421875
-0.0010986328125
0.00146484375
-0.0025634765625
0.00439453125
-0.0040283203125
0.006591796875
-0.000732421875
0.01025390625
0.0032958984375
0.006591796875
0.005859375
-0.0025634765625
0.0029296875
-0.00439453125
0.0
-0.0047607421875
-0.0010986328125
-0.0025634765625
0.0
-0.00146484375
0.0010986328125
-0.0010986328125
-0.0010986328125
0.0
0.0
0.0018310546875
0.0010986328125
0.0010986328125
0.0
-0.000732421875
0.0
0.002197265625
0.0
0.0025634765625
-0.0018310546875
0.0003662109375
-0.00146484375
0.002197265625
-0.0010986328125
0.002197265625
-0.0018310546875
0.0
-0.0010986328125
-0.000732421875
-0.0018310546875
-0.0018310546875
-0.0029296875
-0.005126953125
-0.0029296875
0.0025634765625
0.0025634765625
0.0135498046875
0.003662109375
0.000732421875
-0.0010986328125
-0.0040283203125
0.0003662109375
-0.002197265625
0.00146484375
-0.0029296875
0.000732421875
-0.0113525390625
-0.0087890625
0.0845947265625
-0.028564453125
0.124908447265625
-0.0010986328125
-0.0633544921875
0.0274658203125
-0.129302978515625
0.010986328125
-0.035888671875
0.00146484375
0.0025634765625
0.000732421875
0.002197265625
0.0003662109375
0.0025634765625
-0.002197265625
0.0010986328125
-0.0018310546875
0.0025634765625
-0.0029296875
0.0047607421875
-0.0040283203125
0.01025390625
0.0003662109375
0.010986328125
0.005126953125
0.00146484375
0.0040283203125
-0.0032958984375
0.00146484375
-0.003662109375
0.00146484375
-0.002197265625
0.0010986328125
-0.002197265625
0.00146484375
-0.003662109375
0.000732421875
0.002197265625
0.0
0.003662109375
0.0
-0.0010986328125
0.000732421875
-0.0003662109375
0.0003662109375
0.0025634765625
-0.000732421875
0.0003662109375
-0.0003662109375
-0.0003662109375
0.0
0.0
-0.00146484375
0.00146484375
-0.002197265625
0.0018310546875
-0.0010986328125
0.0010986328125
-0.0003662109375
0.0
-0.0003662109375
-0.0025634765625
-0.002197265625
-0.002197265625
-0.0029296875
0.0084228515625
0.00146484375
0.00732421875
0.0003662109375
-0.003662109375
-0.0018310546875
-0.0025634765625
0.000732421875
-0.002197265625
0.0
-0.00146484375
0.0018310546875
-0.0032958984375
-0.012451171875
0.1058349609375
-0.0238037109375
0.0640869140625
0.008056640625
-0.114990234375
0.0150146484375
-0.0750732421875
-0.0018310546875
-0.002197265625
0.0
0.0025634765625
-0.0018310546875
0.000732421875
-0.0040283203125
0.00146484375
-0.003662109375
0.0018310546875
-0.003662109375
0.005126953125
-0.005126953125
0.0076904296875
-0.0010986328125
0.0084228515625
0.0054931640625
0.0047607421875
0.006591796875
-0.0010986328125
0.0047607421875
-0.0054931640625
0.0029296875
-0.00439453125
0.00146484375
-0.0025634765625
0.00146484375
-0.0054931640625
0.0
-0.002197265625
-0.0003662109375
0.00146484375
0.000732421875
-0.0003662109375
-0.0003662109375
0.0018310546875
0.0
0.000732421875
0.00146484375
-0.000732421875
0.0
0.00146484375
0.0
-0.00146484375
0.0029296875
-0.0018310546875
0.0018310546875
-0.000732421875
0.0
0.0
0.0010986328125
-0.000732421875
0.000732421875
-0.0054931640625
-0.000732421875
-0.0032958984375
0.0
0.0087890625
0.003662109375
0.0054931640625
0.0029296875
-0.0029296875
0.0018310546875
-0.0029296875
0.00146484375
-0.0025634765625
0.0010986328125
-0.000732421875
0.00439453125
0.009521484375
-0.013916015625
0.112060546875
-0.0179443359375
0.050537109375
0.01611328125
-0.123779296875
0.0201416015625
-0.0732421875
0.003662109375
0.0003662109375
0.00146484375
0.0025634765625
0.0
0.002197265625
-0.0003662109375
0.0025634765625
-0.0010986328125
0.000732421875
-0.000732421875
0.0029296875
-0.0010986328125
0.0091552734375
-0.00146484375
0.0106201171875
0.0029296875
0.006591796875
0.0047607421875
-0.0025634765625
0.003662109375
-0.0047607421875
0.00146484375
-0.002197265625
0.0
-0.003662109375
0.0
-0.0010986328125
0.00146484375
0.00146484375
-0.0003662109375
0.000732421875
0.000732421875
-0.0003662109375
0.0018310546875
-0.000732421875
-0.000732421875
0.0
-0.002197265625
0.0003662109375
-0.002197265625
0.0018310546875
0.0
0.0010986328125
-0.000732421875
0.0010986328125
-0.00146484375
0.0
-0.0010986328125
-0.000732421875
-0.0003662109375
0.0003662109375
-0.0003662109375
-0.0010986328125
-0.0025634765625
-0.0029296875
-0.0032958984375
0.009521484375
0.002197265625
0.0084228515625
0.0018310546875
-0.00439453125
-0.00146484375
-0.0040283203125
-0.00146484375
-0.003662109375
-0.00146484375
0.0010986328125
-0.00146484375
-0.01025390625
-0.0142822265625
0.117950439453125
-0.0230712890625
0.0860595703125
0.012451171875
-0.122344970703125
0.024169921875
-0.08935546875
0.00146484375
-0.0087890625
0.0003662109375
0.0025634765625
0.0018310546875
0.0018310546875
-0.0003662109375
0.0025634765625
-0.0029296875
0.0025634765625
-0.0025634765625
0.0029296875
-0.0025634765625
0.00732421875
-0.0025634765625
0.0106201171875
0.0018310546875
0.0069580078125
0.0062255859375
-0.0018310546875
0.0029296875
-0.005859375
-0.000732421875
-0.0025634765625
-0.000732421875
-0.0003662109375
0.000732421875
-0.0018310546875
-0.000732421875
-0.0018310546875
-0.00146484375
0.00146484375
-0.0003662109375
-0.0003662109375
-0.00146484375
-0.000732421875
0.0
0.002197265625
0.000732421875
0.00146484375
-0.00146484375
-0.0010986328125
-0.0018310546875
0.00146484375
-0.000732421875
0.0025634765625
-0.002197265625
-0.000732421875
-0.0010986328125
0.0018310546875
0.0010986328125
0.00146484375
-0.0029296875
-0.0010986328125
-0.005126953125
-0.00439453125
-0.0040283203125
0.0010986328125
0.000732421875
0.01025390625
0.0010986328125
0.0003662109375
-0.0029296875
-0.0018310546875
-0.0010986328125
-0.000732421875
-0.00146484375
-0.0040283203125
0.0
-0.012451171875
-0.000732421875
0.0732421875
-0.0238037109375
0.11279296875
-0.013916015625
-0.0509033203125
0.0135498046875
-0.113525390625
0.00732421875
-0.03369140625
0.00146484375
0.0018310546875
0.0
-0.0003662109375
-0.0003662109375
0.002197265625
0.0
0.002197265625
-0.0025634765625
0.000732421875
-0.0040283203125
0.005859375
-0.0029296875
0.0091552734375
0.000732421875
0.009521484375
0.0040283203125
0.0032958984375
0.003662109375
-0.003662109375
0.0
-0.006591796875
0.0
-0.005126953125
0.0029296875
-0.0029296875
0.0025634765625
-0.0029296875
0.00146484375
-0.0003662109375
0.0003662109375
0.000732421875
0.002197265625
-0.0003662109375
0.00439453125
-0.0018310546875
0.0054931640625
-0.0018310546875
0.0054931640625
-0.0010986328125
0.003662109375
0.0
0.00146484375
-0.0010986328125
0.000732421875
-0.000732421875
0.00146484375
0.0003662109375
0.002197265625
-0.0003662109375
0.002197265625
-0.000732421875
0.0010986328125
-0.0029296875
0.002197265625
0.0091552734375
0.005859375
0.0084228515625
0.0047607421875
-0.0054931640625
0.00146484375
-0.005126953125
0.000732421875
-0.0029296875
0.002197265625
0.002197265625
0.0
-0.0179443359375
-0.0087890625
0.1094970703125
-0.0223388671875
0.0992431640625
0.003662109375
-0.1116943359375
0.0216064453125
-0.09375
0.005126953125
-0.0113525390625
0.0029296875
0.0025634765625
0.0018310546875
0.0018310546875
0.0003662109375
0.0010986328125
-0.0010986328125
0.00146484375
-0.002197265625
0.00439453125
-0.0047607421875
0.00732421875
-0.0032958984375
0.0087890625
0.0003662109375
0.0069580078125
0.005126953125
0.0
0.005126953125
-0.005126953125
-0.0003662109375
-0.0032958984375
-0.00146484375
0.0003662109375
0.0
0.0
-0.000732421875
-0.0018310546875
-0.002197265625
0.0
-0.0003662109375
0.0025634765625
0.0003662109375
0.0018310546875
-0.000732421875
0.000732421875
-0.0018310546875
0.0
-0.000732421875
0.0
0.0010986328125
0.0003662109375
0.0
0.00146484375
-0.00146484375
0.0003662109375
-0.0010986328125
0.000732421875
0.0
0.0010986328125
-0.000732421875
-0.0018310546875
-0.0025634765625
-0.0018310546875
-0.0029296875
0.0069580078125
0.0018310546875
0.0084228515625
0.00146484375
-0.00439453125
-0.0010986328125
-0.0069580078125
0.000732421875
-0.0029296875
-0.0003662109375
0.0003662109375
0.0
-0.0205078125
-0.0087890625
0.1109619140625
-0.0252685546875
0.110595703125
0.0062255859375
-0.10107421875
0.025634765625
-0.1025390625
0.005859375
-0.0208740234375
0.002197265625
0.0040283203125
0.0010986328125
0.0018310546875
-0.0010986328125
0.0003662109375
-0.003662109375
0.00146484375
-0.0029296875
0.003662109375
-0.0032958984375
0.0069580078125
-0.0029296875
0.009521484375
0.002197265625
0.0076904296875
0.005859375
0.000732421875
0.00439453125
-0.00439453125
0.000732421875
-0.0040283203125
-0.0003662109375
-0.0018310546875
0.0
-0.0025634765625
-0.00146484375
-0.0010986328125
-0.0010986328125
0.002197265625
-0.0025634765625
-0.00146484375
-0.0018310546875
0.0
0.000732421875
0.00146484375
-0.0010986328125
-0.002197265625
-0.00146484375
-0.0010986328125
0.0003662109375
0.0018310546875
0.0
0.002197265625
0.0
0.0003662109375
0.000732421875
-0.0003662109375
0.0
0.000732421875
-0.0003662109375
0.000732421875
-0.0018310546875
-0.0040283203125
-0.0029296875
-0.0010986328125
0.0
0.0128173828125
0.0032958984375
0.0025634765625
0.000732421875
-0.005126953125
0.0
-0.000732421875
0.0003662109375
-0.0032958984375
-0.0018310546875
-0.0003662109375
0.003662109375
0.0150146484375
-0.01318359375
0.1109619140625
-0.0216064453125
0.0413818359375
0.010986328125
-0.1212158203125
0.0135498046875
-0.068115234375
-0.000732421875
0.00146484375
-0.00146484375
0.00146484375
-0.0029296875
0.0003662109375
-0.0029296875
0.0003662109375
-0.00439453125
0.00146484375
-0.0062255859375
0.0047607421875
-0.00732421875
0.0087890625
-0.0040283203125
0.0113525390625
0.00146484375
0.006591796875
0.003662109375
-0.003662109375
0.0010986328125
-0.006591796875
0.0
-0.00146484375
0.0
-0.003662109375
-0.000732421875
-0.0040283203125
-0.0010986328125
0.0003662109375
0.0
0.0
0.00146484375
-0.000732421875
0.0018310546875
0.0003662109375
0.002197265625
-0.0010986328125
0.00146484375
-0.000732421875
0.0018310546875
0.0
0.0032958984375
0.0003662109375
0.002197265625
0.0
0.000732421875
-0.0003662109375
0.00146484375
0.0
0.000732421875
0.0
-0.000732421875
-0.0025634765625
-0.0018310546875
-0.005126953125
0.0003662109375
0.0091552734375
0.00439453125
0.00732421875
0.0025634765625
-0.00439453125
-0.000732421875
-0.0062255859375
0.0
-0.002197265625
0.0
0.0029296875
-0.00146484375
-0.00732421875
-0.0098876953125
0.110595703125
-0.0201416015625
0.072509765625
0.0069580078125
-0.1190185546875
0.0186767578125
-0.0794677734375
0.0025634765625
-0.002197265625
0.0032958984375
0.00146484375
0.002197265625
0.0
-0.0003662109375
0.00146484375
-0.0029296875
0.00146484375
-0.003662109375
0.0032958984375
-0.003662109375
0.0069580078125
-0.000732421875
0.0106201171875
0.003662109375
0.006591796875
0.0069580078125
-0.00146484375
0.00439453125
-0.0047607421875
0.0
-0.0029296875
-0.000732421875
-0.002197265625
-0.000732421875
-0.0025634765625
-0.0003662109375
-0.00146484375
-0.00146484375
-0.000732421875
0.0003662109375
0.00146484375
-0.0003662109375
0.0010986328125
-0.0018310546875
0.0
0.0
-0.0003662109375
0.0010986328125
-0.002197265625
0.0018310546875
-0.0003662109375
0.002197265625
0.00146484375
0.0032958984375
0.0029296875
0.0018310546875
0.00439453125
0.0025634765625
0.002197265625
0.00146484375
0.0
-0.000732421875
-0.0029296875
-0.0010986328125
-0.0029296875
0.00146484375
0.0087890625
0.003662109375
0.0047607421875
0.0
-0.002197265625
0.0
-0.0018310546875
0.002197265625
-0.0032958984375
-0.0003662109375
-0.003662109375
0.0010986328125
0.0450439453125
-0.02490234375
0.130401611328125
-0.01904296875
0.005126953125
0.024169921875
-0.141387939453125
0.016845703125
-0.0640869140625
0.0025634765625
0.0029296875
0.0010986328125
0.00146484375
0.000732421875
0.0010986328125
-0.000732421875
0.00146484375
-0.002197265625
0.0025634765625
-0.0032958984375
0.005859375
-0.0054931640625
0.006591796875
-0.002197265625
0.009521484375
0.0040283203125
0.005859375
0.0062255859375
-0.00439453125
0.0040283203125
-0.00439453125
0.00146484375
-0.0032958984375
-0.00146484375
-0.0032958984375
-0.0003662109375
-0.0010986328125
-0.0003662109375
-0.002197265625
-0.0003662109375
-0.000732421875
0.0010986328125
0.000732421875
0.0018310546875
0.0003662109375
-0.0003662109375
0.00146484375
-0.0029296875
-0.0003662109375
-0.000732421875
0.0003662109375
-0.0010986328125
0.00146484375
-0.00146484375
0.000732421875
-0.000732421875
0.000732421875
0.0003662109375
-0.0003662109375
0.0003662109375
0.0
0.0
0.0
-0.000732421875
-0.0032958984375
-0.0018310546875
0.003662109375
0.0025634765625
0.0098876953125
0.0029296875
-0.0003662109375
-0.002197265625
-0.0025634765625
-0.0010986328125
-0.0018310546875
0.0003662109375
-0.003662109375
0.0010986328125
-0.0106201171875
-0.002197265625
0.0794677734375
-0.024169921875
0.1175537109375
-0.0087890625
-0.0582275390625
0.01904296875
-0.119384765625
0.0076904296875
-0.0311279296875
0.0010986328125
0.0018310546875
0.000732421875
0.002197265625
-0.00146484375
0.002197265625
-0.00146484375
0.0018310546875
-0.0025634765625
0.003662109375
-0.0047607421875
0.005126953125
-0.003662109375
0.0076904296875
0.00146484375
0.0076904296875
0.0062255859375
0.0032958984375
0.0047607421875
-0.0029296875
0.000732421875
-0.005859375
-0.0010986328125
-0.00439453125
-0.0003662109375
-0.0025634765625
0.0
-0.00146484375
-0.000732421875
0.0003662109375
0.0
0.000732421875
0.000732421875
0.0010986328125
0.0
-0.0003662109375
0.0
0.0018310546875
-0.000732421875
0.0003662109375
-0.00146484375
-0.0018310546875
-0.002197265625
0.00146484375
-0.0032958984375
0.002197265625
-0.00439453125
0.00146484375
-0.00146484375
-0.00146484375
0.0010986328125
-0.0018310546875
-0.0018310546875
-0.0029296875
-0.00439453125
-0.0032958984375
-0.0029296875
0.0091552734375
-0.0010986328125
0.0069580078125
-0.0032958984375
-0.003662109375
-0.003662109375
-0.0032958984375
-0.0025634765625
-0.0029296875
-0.0018310546875
-0.0010986328125
0.0029296875
0.0281982421875
-0.0172119140625
0.109130859375
-0.0205078125
0.0260009765625
0.01171875
-0.117919921875
0.0135498046875
-0.0640869140625
0.00439453125
0.00146484375
0.005859375
0.00146484375
0.00439453125
-0.0003662109375
0.0010986328125
-0.0010986328125
0.00146484375
0.0025634765625
0.0
0.0025634765625
-0.0010986328125
0.0047607421875
0.0029296875
0.01025390625
0.0069580078125
0.003662109375
0.00732421875
-0.0018310546875
0.003662109375
-0.003662109375
0.0029296875
-0.00439453125
0.0029296875
-0.00439453125
0.00146484375
-0.00146484375
0.0
0.000732421875
0.00146484375
0.00146484375
0.00146484375
0.000732421875
-0.000732421875
0.0
0.00146484375
0.00146484375
0.00146484375
-0.000732421875
0.00146484375
0.0010986328125
0.000732421875
0.0
0.0
-0.0003662109375
0.0003662109375
0.00146484375
0.0003662109375
0.000732421875
0.0003662109375
0.0010986328125
-0.0018310546875
0.0
-0.0018310546875
-0.00439453125
-0.000732421875
0.003662109375
0.00146484375
0.009521484375
0.0018310546875
-0.0003662109375
-0.0018310546875
-0.0025634765625
-0.000732421875
-0.0029296875
0.0
-0.00146484375
0.0003662109375
-0.0150146484375
-0.0069580078125
0.0882568359375
-0.027099609375
0.119384765625
-0.000732421875
-0.0721435546875
0.02490234375
-0.117919921875
0.0091552734375
-0.028564453125
0.0032958984375
0.00146484375
0.00146484375
0.000732421875
0.0010986328125
0.003662109375
-0.0003662109375
0.00146484375
-0.0032958984375
0.00146484375
-0.0032958984375
0.005859375
-0.000732421875
0.009521484375
0.00146484375
0.0087890625
0.005126953125
0.0018310546875
0.0054931640625
-0.0025634765625
0.0010986328125
-0.00439453125
-0.0003662109375
-0.005859375
-0.00146484375
-0.0032958984375
-0.00146484375
0.0003662109375
0.0003662109375
0.0029296875
0.0
0.000732421875
0.0
-0.0010986328125
0.0003662109375
0.0
0.0003662109375
-0.0003662109375
0.0
0.0010986328125
0.000732421875
0.000732421875
0.0
0.000732421875
-0.00146484375
0.00146484375
-0.0018310546875
0.0010986328125
0.0
-0.0003662109375
0.0003662109375
-0.0010986328125
-0.0010986328125
-0.000732421875
-0.0010986328125
-0.0054931640625
-0.00146484375
-0.0025634765625
0.0025634765625
0.01171875
0.0018310546875
0.00439453125
-0.0040283203125
-0.000732421875
-0.0018310546875
-0.0029296875
0.002197265625
-0.0062255859375
0.0010986328125
-0.005126953125
0.000732421875
0.0633544921875
-0.0234375
0.132965087890625
-0.015380859375
-0.02490234375
0.021240234375
-0.141754150390625
0.013916015625
-0.0509033203125
0.0032958984375
0.0047607421875
0.00146484375
0.0018310546875
0.0003662109375
0.0
-0.000732421875
0.0010986328125
-0.002197265625
0.0040283203125
-0.0025634765625
0.0047607421875
-0.0018310546875
0.008056640625
0.0029296875
0.010986328125
0.006591796875
0.0029296875
0.00439453125
-0.0029296875
0.0
-0.003662109375
-0.00146484375
-0.005126953125
0.0010986328125
-0.0029296875
0.0018310546875
-0.000732421875
-0.000732421875
-0.000732421875
-0.0010986328125
0.000732421875
0.0
0.002197265625
-0.000732421875
0.0003662109375
-0.000732421875
0.000732421875
-0.0003662109375
0.002197265625
-0.002197265625
-0.0010986328125
0.0
0.0
0.0
0.0010986328125
-0.002197265625
0.0
-0.0010986328125
0.0018310546875
-0.0018310546875
0.0010986328125
-0.00146484375
-0.0003662109375
-0.0025634765625
-0.0029296875
-0.003662109375
-0.0010986328125
0.000732421875
0.0113525390625
0.0018310546875
0.0062255859375
-0.00146484375
-0.005126953125
0.0
-0.0029296875
-0.000732421875
0.000732421875
-0.0054931640625
-0.0003662109375
0.0025634765625
0.021240234375
-0.0157470703125
0.1116943359375
-0.0238037109375
0.0289306640625
0.009521484375
-0.12451171875
0.0120849609375
-0.06298828125
-0.0018310546875
0.003662109375
-0.00146484375
0.0018310546875
0.0003662109375
0.0
-0.000732421875
0.0018310546875
0.000732421875
0.00146484375
-0.00146484375
0.002197265625
-0.00439453125
0.005859375
-0.0003662109375
0.0087890625
0.005126953125
0.0054931640625
0.006591796875
-0.003662109375
0.003662109375
-0.0032958984375
0.000732421875
-0.002197265625
-0.0003662109375
-0.0029296875
-0.000732421875
-0.0029296875
0.0
-0.0018310546875
0.0003662109375
0.0003662109375
0.0
0.0
0.0025634765625
-0.0003662109375
0.0010986328125
-0.0003662109375
-0.0018310546875
-0.0003662109375
-0.0010986328125
-0.00146484375
0.0003662109375
0.0003662109375
0.0025634765625
0.0003662109375
0.002197265625
-0.00146484375
0.0018310546875
0.0
0.00146484375
0.00146484375
0.0010986328125
-0.0010986328125
-0.002197265625
-0.005126953125
-0.0010986328125
0.0047607421875
0.0062255859375
0.0076904296875
0.0047607421875
-0.0029296875
0.0025634765625
-0.003662109375
0.003662109375
-0.002197265625
0.0032958984375
0.0
0.0032958984375
-0.0164794921875
-0.0047607421875
0.0849609375
-0.024169921875
0.1146240234375
-0.0010986328125
-0.0706787109375
0.0238037109375
-0.110595703125
0.0084228515625
-0.02783203125
0.0029296875
0.0025634765625
0.00146484375
0.0029296875
-0.000732421875
0.0018310546875
-0.003662109375
0.0010986328125
-0.002197265625
0.00146484375
-0.000732421875
0.0054931640625
-0.0047607421875
0.0076904296875
0.0003662109375
0.009521484375
0.0054931640625
0.00439453125
0.0018310546875
-0.00439453125
0.00146484375
-0.00439453125
0.002197265625
-0.005859375
0.0029296875
-0.009521484375
0.002197265625
-0.00439453125
0.00146484375
-0.0003662109375
-0.0003662109375
-0.0010986328125
0.0
0.0018310546875
0.002197265625
-0.0003662109375
0.002197265625
-0.0025634765625
0.0040283203125
-0.002197265625
-0.0003662109375
-0.0003662109375
-0.0018310546875
0.0025634765625
0.0
0.00439453125
-0.0010986328125
0.0018310546875
-0.0003662109375
-0.000732421875
-0.0010986328125
0.002197265625
-0.00146484375
0.0018310546875
-0.0025634765625
-0.005126953125
-0.0040283203125
-0.0003662109375
0.000732421875
0.012451171875
0.0029296875
0.0025634765625
-0.000732421875
-0.002197265625
0.002197265625
-0.0025634765625
0.00439453125
-0.005126953125
0.0
-0.009521484375
-0.0069580078125
0.0809326171875
-0.025634765625
0.125244140625
-0.0084228515625
-0.0538330078125
0.0205078125
-0.1300048828125
0.012451171875
-0.038818359375
0.0029296875
0.00439453125
0.000732421875
0.0010986328125
0.00146484375
-0.0010986328125
-0.0018310546875
0.0
-0.0040283203125
0.0025634765625
-0.0054931640625
0.006591796875
-0.00439453125
0.0091552734375
-0.0003662109375
0.0098876953125
0.0029296875
0.0032958984375
0.0054931640625
-0.0047607421875
0.0032958984375
-0.005126953125
0.000732421875
-0.0025634765625
0.0003662109375
-0.0032958984375
-0.0003662109375
-0.0029296875
0.0
0.0
0.0010986328125
0.0018310546875
0.000732421875
0.0010986328125
0.000732421875
0.00146484375
0.0003662109375
0.000732421875
-0.000732421875
-0.0003662109375
-0.00146484375
0.0025634765625
-0.0003662109375
0.0018310546875
0.000732421875
0.0003662109375
-0.000732421875
0.0018310546875
-0.0010986328125
0.0032958984375
-0.002197265625
0.0025634765625
-0.0029296875
0.002197265625
-0.0018310546875
-0.0032958984375
-0.0029296875
-0.0010986328125
-0.0003662109375
0.01318359375
0.00146484375
0.0054931640625
-0.0018310546875
-0.002197265625
-0.0003662109375
-0.00146484375
-0.002197265625
-0.002197265625
-0.0040283203125
-0.00439453125
0.0029296875
0.0556640625
-0.019775390625
0.1182861328125
-0.0223388671875
-0.018310546875
0.008056640625
-0.12451171875
0.0062255859375
-0.047607421875
-0.0029296875
0.005126953125
-0.002197265625
0.00439453125
-0.002197265625
0.0010986328125
-0.00439453125
0.0029296875
-0.0032958984375
0.005859375
-0.0040283203125
0.0054931640625
-0.00439453125
0.00732421875
-0.000732421875
0.0084228515625
0.0047607421875
0.00439453125
0.0047607421875
-0.0029296875
0.00146484375
-0.003662109375
0.00146484375
-0.0018310546875
0.002197265625
-0.0032958984375
0.002197265625
-0.0047607421875
0.0018310546875
-0.0032958984375
0.0029296875
0.0
0.0029296875
-0.002197265625
0.0047607421875
-0.0032958984375
0.005859375
-0.0029296875
0.003662109375
-0.0029296875
0.003662109375
-0.0025634765625
0.0040283203125
-0.00146484375
0.0047607421875
-0.0018310546875
0.0040283203125
-0.002197265625
0.0018310546875
-0.000732421875
0.0018310546875
-0.0003662109375
0.0029296875
0.0010986328125
0.0010986328125
-0.005859375
-0.0010986328125
0.0018310546875
0.0032958984375
0.0087890625
0.005126953125
-0.0025634765625
0.0018310546875
-0.00146484375
0.0032958984375
-0.0018310546875
0.00146484375
-0.0029296875
0.0010986328125
-0.015380859375
-0.00146484375
0.08203125
-0.0216064453125
0.11572265625
-0.0010986328125
-0.0655517578125
0.02197265625
-0.11572265625
0.0091552734375
-0.0281982421875
0.0032958984375
0.0047607421875
-0.000732421875
0.0018310546875
-0.0010986328125
0.000732421875
-0.0025634765625
0.00146484375
-0.003662109375
0.0032958984375
-0.0032958984375
0.0054931640625
-0.0032958984375
0.006591796875
0.0010986328125
0.0087890625
0.0054931640625
0.0029296875
0.0032958984375
-0.00439453125
-0.000732421875
-0.0047607421875
-0.00146484375
-0.0029296875
0.0
-0.0025634765625
-0.0003662109375
-0.002197265625
-0.0003662109375
0.00146484375
-0.0003662109375
0.0
-0.000732421875
-0.0003662109375
-0.0010986328125
0.000732421875
-0.00146484375
0.0010986328125
0.0
-0.00146484375
0.0010986328125
0.0003662109375
-0.0010986328125
0.0025634765625
-0.0018310546875
0.0003662109375
-0.00146484375
0.0018310546875
-0.000732421875
0.00146484375
0.000732421875
0.0
0.0003662109375
0.0
-0.0025634765625
-0.0047607421875
-0.0025634765625
-0.0010986328125
0.000732421875
0.0106201171875
0.0018310546875
0.003662109375
-0.0018310546875
0.0
0.0003662109375
-0.0025634765625
0.002197265625
-0.00732421875
-0.0003662109375
-0.0076904296875
0.0003662109375
0.0736083984375
-0.0245361328125
0.1314697265625
-0.0135498046875
-0.0384521484375
0.0186767578125
-0.1402587890625
0.0098876953125
-0.04541015625
0.0029296875
0.0047607421875
0.0010986328125
0.0010986328125
0.0003662109375
0.0029296875
-0.0010986328125
0.0029296875
-0.0029296875
0.0029296875
-0.003662109375
0.0047607421875
-0.003662109375
0.00732421875
0.0
0.01025390625
0.005859375
0.0054931640625
0.005859375
-0.0040283203125
0.0029296875
-0.0047607421875
0.002197265625
-0.002197265625
0.0010986328125
-0.00439453125
0.0010986328125
-0.002197265625
0.0
-0.0003662109375
0.0
0.0010986328125
0.0018310546875
0.000732421875
-0.000732421875
0.0
0.0
0.0018310546875
0.0003662109375
-0.0018310546875
-0.0010986328125
0.000732421875
-0.000732421875
0.002197265625
-0.0010986328125
0.0
0.0003662109375
0.0018310546875
-0.002197265625
0.0018310546875
-0.0032958984375
-0.0018310546875
0.00146484375
-0.005859375
0.005126953125
-0.0076904296875
0.0018310546875
-0.0054931640625
-0.0029296875
0.01025390625
0.0003662109375
0.0106201171875
0.00146484375
-0.000732421875
-0.002197265625
-0.0018310546875
0.0
-0.002197265625
0.0003662109375
0.002197265625
0.00146484375
-0.0201416015625
-0.0029296875
0.0941162109375
-0.0252685546875
0.104736328125
-0.005126953125
-0.0845947265625
0.0172119140625
-0.0911865234375
0.002197265625
-0.0164794921875
-0.0018310546875
0.0010986328125
-0.0018310546875
0.002197265625
-0.003662109375
0.003662109375
-0.0054931640625
0.0047607421875
-0.0047607421875
0.0076904296875
-0.0076904296875
0.0062255859375
-0.01171875
0.0087890625
-0.0054931640625
0.009521484375
0.005126953125
0.000732421875
0.0054931640625
-0.003662109375
0.00146484375
-0.0029296875
0.0
-0.0018310546875
0.0010986328125
-0.002197265625
0.002197265625
-0.0032958984375
0.0018310546875
-0.00146484375
0.000732421875
0.0010986328125
0.00146484375
-0.000732421875
0.0018310546875
-0.0010986328125
0.00146484375
-0.000732421875
0.0010986328125
-0.00146484375
0.0003662109375
0.0010986328125
0.0003662109375
-0.0003662109375
0.0
-0.0003662109375
-0.00146484375
0.0003662109375
-0.0010986328125
0.000732421875
0.0
0.0010986328125
0.0003662109375
-0.0047607421875
0.0010986328125
-0.005859375
0.00146484375
0.0076904296875
0.005859375
0.005859375
0.0032958984375
-0.0040283203125
-0.0010986328125
-0.00439453125
0.0018310546875
-0.0032958984375
0.0025634765625
-0.0003662109375
0.0029296875
-0.0216064453125
0.0010986328125
0.0992431640625
-0.018310546875
0.0926513671875
-0.0018310546875
-0.0999755859375
0.018310546875
-0.0853271484375
0.00439453125
-0.010986328125
0.0029296875
0.0032958984375
0.0010986328125
0.0003662109375
0.0
0.000732421875
0.00146484375
0.0
0.0
0.000732421875
-0.0047607421875
0.00732421875
-0.0040283203125
0.0091552734375
0.0029296875
0.005859375
0.008056640625
-0.000732421875
0.0062255859375
-0.0029296875
0.0018310546875
-0.002197265625
-0.0003662109375
-0.00439453125
0.0003662109375
-0.0032958984375
0.000732421875
-0.0003662109375
0.0
0.0
0.0003662109375
0.000732421875
0.000732421875
0.00146484375
-0.0003662109375
-0.0003662109375
0.0
0.000732421875
0.000732421875
0.0
-0.0010986328125
0.0
-0.0010986328125
0.0029296875
-0.0003662109375
0.000732421875
-0.0003662109375
-0.0010986328125
0.0
0.0
-0.0010986328125
-0.0003662109375
-0.000732421875
-0.0029296875
-0.002197265625
-0.005126953125
-0.0032958984375
0.008056640625
0.0018310546875
0.010986328125
0.00146484375
-0.0029296875
-0.00146484375
-0.0047607421875
0.000732421875
-0.0040283203125
0.000732421875
-0.0003662109375
0.0018310546875
-0.0208740234375
-0.0076904296875
0.09814453125
-0.028564453125
0.1160888671875
-0.0018310546875
-0.0867919921875
0.0205078125
-0.1051025390625
0.003662109375
-0.022705078125
0.000732421875
0.002197265625
0.000732421875
0.002197265625
-0.000732421875
0.0003662109375
-0.0018310546875
0.0003662109375
-0.0032958984375
0.0047607421875
-0.0040283203125
0.0062255859375
-0.0029296875
0.0084228515625
0.0018310546875
0.0113525390625
0.005126953125
0.002197265625
0.0029296875
-0.0040283203125
-0.000732421875
-0.002197265625
-0.0032958984375
-0.0025634765625
-0.00146484375
-0.0018310546875
0.000732421875
-0.0029296875
0.0003662109375
-0.00146484375
-0.000732421875
0.0029296875
-0.0025634765625
0.0047607421875
-0.0025634765625
0.0029296875
-0.0003662109375
0.000732421875
-0.0003662109375
0.0003662109375
-0.000732421875
0.00146484375
-0.0003662109375
0.0032958984375
-0.0018310546875
0.000732421875
-0.0018310546875
0.0
0.0
0.000732421875
0.0
-0.000732421875
-0.0018310546875
-0.003662109375
-0.0047607421875
-0.0029296875
-0.005126953125
0.005859375
0.0010986328125
0.002197265625
0.0040283203125
-0.006591796875
0.0010986328125
-0.005126953125
0.0003662109375
-0.0010986328125
0.0018310546875
0.002197265625
0.0025634765625
-0.0186767578125
-0.0010986328125
0.103271484375
-0.01611328125
0.0875244140625
0.0029296875
-0.1080322265625
0.017578125
-0.08349609375
0.0029296875
-0.0076904296875
0.003662109375
0.003662109375
0.0025634765625
0.00146484375
0.00146484375
0.0010986328125
-0.000732421875
0.0018310546875
-0.000732421875
0.0054931640625
-0.0018310546875
0.0087890625
-0.0032958984375
0.0076904296875
0.0018310546875
0.0040283203125
0.00732421875
-0.00146484375
0.005126953125
-0.005859375
0.00146484375
-0.0054931640625
0.0025634765625
-0.0025634765625
0.000732421875
-0.00146484375
-0.0010986328125
-0.0003662109375
0.000732421875
0.003662109375
0.0
0.002197265625
0.0
-0.0010986328125
-0.0010986328125
0.0003662109375
-0.002197265625
0.0003662109375
0.0
0.0003662109375
0.0
0.0
-0.0003662109375
-0.0003662109375
-0.000732421875
0.0
-0.0010986328125
0.0
-0.000732421875
0.0018310546875
-0.00146484375
0.0032958984375
-0.00146484375
-0.0010986328125
-0.0018310546875
-0.0047607421875
-0.0025634765625
0.00732421875
0.000732421875
0.008056640625
0.000732421875
-0.005126953125
-0.0010986328125
-0.0054931640625
0.00146484375
-0.000732421875
0.0003662109375
0.000732421875
0.00146484375
-0.018310546875
-0.006591796875
0.097412109375
-0.028564453125
0.114990234375
-0.000732421875
-0.08349609375
0.0230712890625
-0.10986328125
0.00732421875
-0.02490234375
0.0040283203125
0.0029296875
0.000732421875
0.000732421875
-0.0003662109375
0.0010986328125
-0.002197265625
0.0029296875
-0.003662109375
0.0047607421875
-0.00439453125
0.005859375
-0.0029296875
0.0076904296875
0.00146484375
0.0087890625
0.006591796875
0.002197265625
0.005859375
-0.00439453125
0.00146484375
-0.005126953125
0.00146484375
-0.0029296875
0.0010986328125
-0.0040283203125
0.000732421875
-0.0018310546875
0.000732421875
0.0003662109375
0.0
-0.00146484375
-0.0018310546875
0.000732421875
-0.0018310546875
0.0010986328125
-0.00146484375
0.000732421875
-0.002197265625
0.0010986328125
-0.000732421875
0.0018310546875
-0.0010986328125
0.0025634765625
-0.0010986328125
0.0025634765625
-0.0010986328125
0.0003662109375
-0.0003662109375
0.0
0.0010986328125
-0.0003662109375
0.0
-0.000732421875
0.0
-0.0040283203125
-0.0018310546875
-0.0032958984375
0.000732421875
0.012451171875
0.003662109375
0.005859375
0.0
-0.006591796875
-0.000732421875
-0.0047607421875
0.0003662109375
-0.0025634765625
0.0010986328125
-0.0003662109375
0.002197265625
0.0142822265625
-0.0157470703125
0.120849609375
-0.0179443359375
0.0465087890625
0.0164794921875
-0.1322021484375
0.0172119140625
-0.07470703125
0.0
0.000732421875
0.002197265625
0.00146484375
0.0010986328125
0.0018310546875
-0.0018310546875
0.002197265625
-0.0025634765625
0.00146484375
-0.0040283203125
0.005126953125
-0.0047607421875
0.006591796875
-0.002197265625
0.0091552734375
0.003662109375
0.0091552734375
0.0047607421875
-0.0003662109375
0.0018310546875
-0.0062255859375
0.0003662109375
-0.002197265625
0.0
0.000732421875
-0.00146484375
0.0
-0.0010986328125
-0.000732421875
-0.0003662109375
-0.000732421875
-0.0010986328125
0.00146484375
-0.00146484375
0.0025634765625
0.0
0.0029296875
-0.000732421875
0.0018310546875
-0.0010986328125
-0.000732421875
0.0029296875
0.00146484375
-0.0003662109375
-0.0018310546875
-0.0032958984375
-0.0025634765625
-0.0040283203125
0.0032958984375
-0.0054931640625
0.000732421875
-0.0040283203125
0.000732421875
-0.0025634765625
0.0
-0.00439453125
-0.0040283203125
-0.003662109375
0.01025390625
0.002197265625
0.0087890625
0.00146484375
-0.0054931640625
-0.0029296875
-0.0062255859375
-0.0018310546875
-0.0029296875
0.0003662109375
0.0
0.00146484375
-0.0230712890625
-0.002197265625
0.0985107421875
-0.02490234375
0.0904541015625
-0.008056640625
-0.0992431640625
0.0157470703125
-0.0791015625
0.0047607421875
-0.009521484375
0.0047607421875
0.00146484375
0.0032958984375
0.0003662109375
0.00146484375
-0.0010986328125
0.000732421875
0.0010986328125
0.0
0.0040283203125
0.000732421875
0.00439453125
0.0047607421875
0.00732421875
0.0076904296875
0.0047607421875
0.0091552734375
-0.0018310546875
0.00732421875
-0.0047607421875
0.0032958984375
-0.0076904296875
0.0029296875
-0.005859375
0.005859375
-0.0018310546875
0.00439453125
-0.00146484375
0.0018310546875
-0.0003662109375
0.000732421875
0.00146484375
0.00146484375
-0.0010986328125
0.003662109375
-0.0010986328125
0.0029296875
0.00146484375
0.0018310546875
0.0010986328125
0.000732421875
-0.0003662109375
0.0010986328125
0.0010986328125
-0.0010986328125
0.0
-0.00146484375
-0.002197265625
-0.0003662109375
-0.00146484375
-0.0003662109375
0.00146484375
-0.0003662109375
-0.0032958984375
0.0
-0.0076904296875
0.0
0.0069580078125
0.003662109375
0.0084228515625
0.0018310546875
-0.0032958984375
-0.0029296875
-0.0040283203125
-0.0003662109375
-0.00146484375
-0.000732421875
0.0010986328125
0.0003662109375
-0.0208740234375
-0.0054931640625
0.1065673828125
-0.0230712890625
0.1014404296875
0.0
-0.1029052734375
0.017578125
-0.0948486328125
0.002197265625
-0.0135498046875
0.0032958984375
0.0054931640625
-0.0003662109375
0.0003662109375
-0.0025634765625
0.0018310546875
-0.0025634765625
0.002197265625
-0.0032958984375
0.0018310546875
-0.00439453125
0.006591796875
-0.0047607421875
0.0098876953125
-0.0003662109375
0.0062255859375
0.002197265625
0.0025634765625
0.002197265625
-0.00146484375
0.00146484375
-0.0047607421875
0.000732421875
-0.002197265625
-0.0010986328125
-0.0025634765625
-0.0003662109375
-0.002197265625
0.0018310546875
0.0029296875
0.00146484375
0.000732421875
0.0010986328125
0.0003662109375
0.0018310546875
0.00146484375
0.0018310546875
-0.0003662109375
0.0010986328125
0.0
0.000732421875
-0.0018310546875
0.000732421875
0.0
-0.0003662109375
0.00146484375
-0.002197265625
0.0
-0.00146484375
0.0
0.000732421875
0.0003662109375
0.0010986328125
0.0
-0.0018310546875
-0.005126953125
-0.002197265625
-0.0040283203125
0.0029296875
0.0106201171875
0.0029296875
0.00439453125
-0.0018310546875
-0.00146484375
-0.0003662109375
-0.0025634765625
0.0010986328125
-0.0062255859375
0.0003662109375
-0.005126953125
0.002197265625
0.0615234375
-0.02197265625
0.13037109375
-0.01611328125
-0.0223388671875
0.01904296875
-0.1387939453125
0.0113525390625
-0.049072265625
0.0010986328125
0.0047607421875
0.0010986328125
-0.00146484375
-0.00146484375
0.00146484375
-0.0025634765625
0.0040283203125
-0.0032958984375
0.003662109375
-0.0062255859375
0.0069580078125
-0.006591796875
0.0106201171875
-0.003662109375
0.013916015625
0.0025634765625
0.005859375
0.0054931640625
-0.003662109375
0.0003662109375
-0.0047607421875
-0.000732421875
-0.0025634765625
0.0010986328125
-0.002197265625
-0.0003662109375
-0.0010986328125
-0.002197265625
0.000732421875
-0.0003662109375
0.000732421875
0.0003662109375
0.0003662109375
-0.0003662109375
-0.000732421875
0.0018310546875
0.0010986328125
-0.000732421875
0.0018310546875
-0.0029296875
0.0
-0.0003662109375
0.0003662109375
0.000732421875
0.0018310546875
0.0
-0.00146484375
0.000732421875
-0.0003662109375
0.00146484375
0.00146484375
0.00146484375
-0.00146484375
0.00146484375
-0.006591796875
-0.00146484375
-0.00439453125
0.0
0.0084228515625
0.00146484375
0.0032958984375
0.0
-0.0010986328125
0.000732421875
-0.0018310546875
0.000732421875
-0.00439453125
0.0
-0.006591796875
0.005126953125
0.05419921875
-0.0172119140625
0.120849609375
-0.017578125
-0.017578125
0.013916015625
-0.12890625
0.0120849609375
-0.04833984375
0.00439453125
0.00439453125
0.00146484375
0.002197265625
0.00146484375
0.0003662109375
0.0
0.000732421875
0.0003662109375
0.0025634765625
-0.0018310546875
0.00439453125
-0.005126953125
0.008056640625
-0.00146484375
0.01025390625
0.0040283203125
0.0047607421875
0.008056640625
-0.0029296875
0.005126953125
-0.0047607421875
0.002197265625
-0.0029296875
0.00146484375
-0.0029296875
0.0
-0.0025634765625
-0.00146484375
-0.0032958984375
0.0018310546875
-0.002197265625
0.0040283203125
-0.000732421875
0.00146484375
-0.000732421875
0.0
0.000732421875
-0.0003662109375
0.0025634765625
0.0003662109375
0.0010986328125
-0.0010986328125
-0.00146484375
-0.0029296875
-0.0003662109375
-0.00146484375
-0.0003662109375
0.0
-0.000732421875
0.0003662109375
-0.0003662109375
0.0003662109375
0.0003662109375
-0.00146484375
-0.0018310546875
-0.0029296875
-0.000732421875
-0.000732421875
0.0087890625
0.003662109375
-0.0003662109375
0.00439453125
-0.0069580078125
0.00146484375
-0.0032958984375
-0.0010986328125
-0.0025634765625
-0.00146484375
-0.0003662109375
-0.0003662109375
0.0150146484375
-0.01904296875
0.1197509765625
-0.02197265625
0.043212890625
0.0128173828125
-0.1285400390625
0.0150146484375
-0.06884765625
0.0003662109375
0.0040283203125
0.00146484375
0.003662109375
-0.0010986328125
0.000732421875
-0.0029296875
0.0010986328125
-0.0003662109375
0.0
-0.0003662109375
0.0018310546875
-0.0025634765625
0.0069580078125
-0.0003662109375
0.0091552734375
0.00439453125
0.005859375
0.006591796875
0.0
0.0040283203125
-0.0029296875
-0.0003662109375
-0.0025634765625
-0.0054931640625
-0.00146484375
-0.00732421875
-0.003662109375
-0.0032958984375
-0.0029296875
0.0
-0.000732421875
0.0025634765625
0.002197265625
0.003662109375
0.003662109375
0.0003662109375
0.0010986328125
-0.0025634765625
0.0010986328125
-0.0018310546875
-0.0003662109375
-0.0003662109375
0.0029296875
-0.0025634765625
0.0076904296875
-0.000732421875
0.0062255859375
-0.000732421875
0.0029296875
-0.003662109375
0.0
-0.003662109375
0.0
-0.0047607421875
0.0
-0.0047607421875
-0.003662109375
-0.0032958984375
0.005859375
0.00146484375
0.00732421875
-0.0010986328125
-0.0029296875
-0.0062255859375
-0.0040283203125
-0.0018310546875
-0.0010986328125
-0.0003662109375
0.00146484375
0.0
-0.0172119140625
-0.0025634765625
0.1021728515625
-0.0205078125
0.0845947265625
-0.00439453125
-0.1043701171875
0.01171875
-0.0765380859375
-0.000732421875
-0.006591796875
0.0
0.0047607421875
0.0
0.0029296875
-0.002197265625
0.00146484375
-0.0018310546875
0.0032958984375
0.0
0.0029296875
0.0003662109375
0.006591796875
0.002197265625
0.0084228515625
0.006591796875
0.0091552734375
0.0076904296875
0.0
0.005126953125
-0.0069580078125
0.0054931640625
-0.0025634765625
0.0029296875
-0.0047607421875
0.000732421875
-0.005859375
0.000732421875
-0.00146484375
0.0003662109375
-0.00146484375
0.0003662109375
0.0003662109375
-0.0003662109375
0.0
0.00146484375
-0.003662109375
0.0029296875
-0.0032958984375
0.0018310546875
-0.0010986328125
0.002197265625
-0.0010986328125
0.0025634765625
-0.00146484375
0.0029296875
0.0
0.0032958984375
-0.0018310546875
0.0040283203125
-0.002197265625
0.00439453125
0.000732421875
0.0025634765625
-0.0054931640625
0.0025634765625
-0.005126953125
0.00732421875
0.009521484375
0.0091552734375
0.0029296875
0.0032958984375
-0.0018310546875
0.002197265625
-0.0029296875
0.0025634765625
-0.0062255859375
0.002197265625
-0.0047607421875
0.003662109375
0.0498046875
-0.0205078125
0.12158203125
-0.016845703125
-0.0087890625
0.0157470703125
-0.1351318359375
0.0120849609375
-0.0556640625
0.0029296875
0.003662109375
0.002197265625
0.00146484375
0.00146484375
0.0029296875
0.000732421875
0.00146484375
-0.0003662109375
0.0003662109375
0.0003662109375
0.0047607421875
-0.000732421875
0.00732421875
-0.0010986328125
0.008056640625
0.005126953125
0.0029296875
0.006591796875
-0.005859375
0.0018310546875
-0.003662109375
-0.0018310546875
-0.0029296875
-0.0025634765625
-0.003662109375
-0.0025634765625
-0.002197265625
-0.00146484375
0.00146484375
0.0003662109375
0.0047607421875
-0.0003662109375
0.0010986328125
-0.0003662109375
-0.0010986328125
-0.0010986328125
0.0
-0.0010986328125
0.0018310546875
-0.002197265625
0.002197265625
-0.002197265625
0.00146484375
-0.002197265625
0.000732421875
-0.002197265625
0.0010986328125
-0.000732421875
0.0010986328125
-0.00146484375
0.00146484375
-0.0025634765625
0.0003662109375
-0.0029296875
-0.003662109375
-0.0025634765625
-0.0025634765625
0.0
0.01025390625
0.0003662109375
0.00732421875
-0.0029296875
-0.0018310546875
0.00146484375
-0.0047607421875
0.0032958984375
-0.00439453125
0.0
-0.00439453125
0.00146484375
0.05859375
-0.0238037109375
0.1300048828125
-0.0172119140625
-0.017578125
0.0194091796875
-0.1402587890625
0.01318359375
-0.0531005859375
0.0040283203125
0.0032958984375
0.0029296875
0.00146484375
0.0
0.0018310546875
-0.002197265625
0.0018310546875
-0.002197265625
0.002197265625
-0.003662109375
0.0032958984375
-0.003662109375
0.006591796875
0.0003662109375
0.0084228515625
0.005859375
0.0076904296875
0.005126953125
-0.003662109375
0.000732421875
-0.005126953125
0.0
-0.0018310546875
-0.000732421875
-0.002197265625
0.0
0.0003662109375
-0.00146484375
0.0
-0.0003662109375
0.002197265625
0.00146484375
0.0018310546875
0.0
-0.00146484375
0.0
-0.0018310546875
0.0010986328125
0.000732421875
0.000732421875
0.0010986328125
-0.000732421875
0.0003662109375
-0.000732421875
0.0010986328125
-0.0003662109375
0.000732421875
-0.00146484375
0.0003662109375
-0.0010986328125
0.000732421875
-0.000732421875
0.0003662109375
-0.00146484375
-0.0003662109375
-0.00146484375
-0.0040283203125
-0.002197265625
0.0087890625
0.002197265625
0.008056640625
0.0029296875
-0.005126953125
-0.0018310546875
-0.0040283203125
0.0003662109375
-0.0029296875
0.0018310546875
0.002197265625
-0.00146484375
-0.0201416015625
-0.006591796875
0.1087646484375
-0.0223388671875
0.0999755859375
0.0003662109375
-0.1083984375
0.0208740234375
-0.0926513671875
0.005859375
-0.012451171875
0.0029296875
0.0029296875
0.0018310546875
0.002197265625
0.0003662109375
0.0029296875
-0.003662109375
0.00146484375
-0.0025634765625
0.0029296875
-0.0032958984375
0.00439453125
-0.003662109375
0.0084228515625
0.0025634765625
0.0098876953125
0.00732421875
0.0003662109375
0.005126953125
-0.005859375
0.0003662109375
-0.0029296875
-0.00146484375
-0.0032958984375
-0.0003662109375
-0.003662109375
0.000732421875
0.00146484375
-0.00146484375
0.0010986328125
0.0
0.0003662109375
-0.000732421875
0.000732421875
-0.002197265625
0.0018310546875
-0.000732421875
0.00146484375
-0.0003662109375
0.0003662109375
-0.0003662109375
0.002197265625
-0.0003662109375
0.0018310546875
-0.0025634765625
0.0
-0.0029296875
0.0003662109375
-0.0018310546875
0.0032958984375
-0.0025634765625
0.0025634765625
-0.0010986328125
0.0010986328125
-0.0003662109375
-0.0032958984375
-0.0025634765625
0.005859375
-0.0010986328125
0.0106201171875
0.0003662109375
-0.0018310546875
-0.0032958984375
-0.00146484375
-0.0025634765625
-0.0003662109375
-0.0025634765625
-0.002197265625
0.0
-0.0172119140625
-0.0018310546875
0.0787353515625
-0.0252685546875
0.1080322265625
-0.0091552734375
-0.0626220703125
0.0164794921875
-0.1036376953125
0.0047607421875
-0.0281982421875
0.0
0.0029296875
-0.0003662109375
0.0029296875
-0.0025634765625
0.0032958984375
-0.0040283203125
0.0084228515625
-0.0029296875
0.005126953125
-0.002197265625
0.003662109375
-0.000732421875
0.0047607421875
0.0029296875
0.006591796875
0.006591796875
0.002197265625
0.005859375
-0.005126953125
0.003662109375
-0.0032958984375
0.0029296875
-0.0040283203125
0.003662109375
-0.005126953125
0.005126953125
-0.0040283203125
0.005126953125
-0.003662109375
0.0029296875
-0.00146484375
0.0025634765625
0.0
0.0032958984375
-0.0010986328125
0.0032958984375
-0.002197265625
0.003662109375
-0.000732421875
0.0040283203125
-0.000732421875
0.0032958984375
0.0003662109375
0.0018310546875
0.000732421875
0.0010986328125
0.0
0.0
0.00146484375
-0.0010986328125
0.0
-0.000732421875
-0.00439453125
-0.0010986328125
-0.0025634765625
0.0025634765625
0.0106201171875
0.0032958984375
0.002197265625
-0.0025634765625
-0.00439453125
-0.000732421875
-0.00146484375
0.00146484375
-0.00439453125
0.0018310546875
-0.003662109375
0.0032958984375
0.0494384765625
-0.0216064453125
0.12744140625
-0.017578125
-0.0010986328125
0.019775390625
-0.13916015625
0.0146484375
-0.0615234375
0.0010986328125
0.0032958984375
0.0025634765625
0.0025634765625
0.002197265625
0.0018310546875
-0.0018310546875
0.0010986328125
-0.0032958984375
0.00146484375
-0.0025634765625
0.003662109375
-0.0029296875
0.0062255859375
-0.00146484375
0.0087890625
0.0032958984375
0.0047607421875
0.005859375
-0.0018310546875
0.0029296875
-0.005126953125
0.0
-0.0047607421875
0.0010986328125
-0.0025634765625
0.0010986328125
-0.002197265625
-0.0010986328125
-0.0010986328125
-0.0010986328125
0.0
-0.00146484375
0.0003662109375
-0.0010986328125
0.00146484375
0.0003662109375
0.002197265625
-0.000732421875
0.0010986328125
0.0010986328125
-0.0010986328125
-0.0010986328125
0.0
-0.0047607421875
-0.0010986328125
0.0003662109375
-0.005126953125
0.0054931640625
-0.01025390625
0.005859375
-0.006591796875
0.0018310546875
-0.0003662109375
-0.0010986328125
-0.0040283203125
-0.002197265625
-0.000732421875
0.002197265625
0.0106201171875
0.0029296875
0.0047607421875
-0.0003662109375
0.00146484375
0.0003662109375
0.0003662109375
-0.0003662109375
-0.0032958984375
0.0018310546875
-0.0091552734375
-0.0025634765625
0.0791015625
-0.025634765625
0.1322021484375
-0.0120849609375
-0.04833984375
0.0186767578125
-0.13330078125
0.012451171875
-0.03955078125
0.0025634765625
0.0040283203125
0.0
0.00146484375
-0.0003662109375
0.000732421875
-0.002197265625
0.0018310546875
-0.0029296875
0.0029296875
-0.0029296875
0.00439453125
-0.0025634765625
0.008056640625
-0.0018310546875
0.0128173828125
0.0010986328125
0.0084228515625
0.003662109375
-0.0018310546875
-0.000732421875
-0.00146484375
-0.0025634765625
0.0
-0.0018310546875
-0.0029296875
-0.0025634765625
-0.00146484375
-0.00439453125
0.0018310546875
-0.0054931640625
-0.0025634765625
-0.0040283203125
-0.0032958984375
-0.00146484375
-0.00146484375
0.000732421875
-0.0003662109375
0.000732421875
0.0003662109375
-0.0003662109375
-0.0018310546875
-0.00146484375
0.0010986328125
-0.0018310546875
0.000732421875
-0.0029296875
0.0
-0.00146484375
0.0025634765625
-0.002197265625
0.0040283203125
-0.0040283203125
0.000732421875
-0.005859375
0.0029296875
-0.0069580078125
0.0172119140625
0.0
0.0106201171875
0.0010986328125
-0.002197265625
-0.003662109375
-0.00146484375
-0.008056640625
-0.00146484375
-0.01171875
0.00146484375
-0.008056640625
-0.0179443359375
-0.0098876953125
0.09814453125
-0.02490234375
0.08349609375
-0.00146484375
-0.103271484375
0.0179443359375
-0.07763671875
0.0040283203125
-0.008056640625
0.0047607421875
0.0010986328125
0.0040283203125
0.000732421875
0.0003662109375
0.0010986328125
0.0010986328125
0.0010986328125
0.00146484375
0.0018310546875
0.0025634765625
0.005126953125
0.005126953125
0.006591796875
0.0076904296875
0.00439453125
0.012451171875
-0.0029296875
0.01171875
-0.006591796875
0.0084228515625
-0.0062255859375
0.006591796875
-0.003662109375
0.006591796875
-0.0040283203125
0.010986328125
-0.005859375
0.009521484375
-0.0025634765625
0.0054931640625
0.0
0.00732421875
0.0010986328125
0.005126953125
0.0025634765625
0.0029296875
-0.000732421875
0.0029296875
-0.0018310546875
0.0003662109375
0.0025634765625
-0.0025634765625
0.0
-0.000732421875
-0.00146484375
0.0003662109375
0.0003662109375
-0.0003662109375
0.0
0.000732421875
-0.00146484375
-0.0018310546875
-0.002197265625
-0.005126953125
0.0087890625
0.000732421875
0.008056640625
0.0025634765625
-0.005126953125
-0.0010986328125
-0.0047607421875
0.0
-0.00146484375
0.0003662109375
0.0010986328125
0.000732421875
-0.02197265625
-0.005859375
0.1080322265625
-0.0223388671875
0.1051025390625
-0.0018310546875
-0.10546875
0.0157470703125
-0.095947265625
0.0018310546875
-0.0150146484375
0.0
0.0003662109375
0.0
-0.00146484375
-0.000732421875
0.0018310546875
-0.0025634765625
0.0047607421875
-0.0029296875
0.0040283203125
-0.0029296875
0.005859375
-0.0032958984375
0.010986328125
0.000732421875
0.0087890625
0.005126953125
-0.000732421875
0.0025634765625
-0.0054931640625
0.0018310546875
-0.005126953125
0.0010986328125
-0.0025634765625
0.0
-0.00146484375
-0.000732421875
-0.0018310546875
-0.00146484375
0.0010986328125
-0.0003662109375
0.000732421875
0.0
0.0018310546875
0.0003662109375
0.0010986328125
-0.000732421875
0.0
-0.000732421875
0.0003662109375
0.0003662109375
0.0
-0.000732421875
-0.0010986328125
0.0
-0.0018310546875
0.0003662109375
0.0010986328125
-0.00146484375
0.002197265625
0.0
0.0010986328125
-0.0025634765625
-0.005859375
-0.0032958984375
-0.00146484375
0.0025634765625
0.010986328125
0.0025634765625
0.0040283203125
-0.00146484375
0.0003662109375
0.0
-0.0025634765625
0.0010986328125
-0.005859375
-0.0003662109375
-0.0091552734375
-0.003662109375
0.0728759765625
-0.0238037109375
0.12744140625
-0.01025390625
-0.043212890625
0.0186767578125
-0.132568359375
0.01025390625
-0.043212890625
0.00146484375
0.000732421875
0.0018310546875
0.000732421875
0.00146484375
0.005126953125
-0.0010986328125
0.006591796875
-0.003662109375
0.005126953125
-0.00439453125
0.006591796875
-0.005126953125
0.0087890625
-0.00146484375
0.0106201171875
0.0054931640625
0.0047607421875
0.005126953125
-0.0040283203125
-0.0003662109375
-0.005859375
-0.002197265625
-0.003662109375
0.000732421875
-0.0032958984375
-0.0003662109375
-0.000732421875
-0.000732421875
-0.0003662109375
-0.0010986328125
-0.0010986328125
-0.00146484375
0.0018310546875
0.0
0.0010986328125
-0.0003662109375
-0.0010986328125
-0.000732421875
0.0003662109375
-0.0003662109375
0.002197265625
-0.000732421875
-0.0003662109375
-0.000732421875
-0.000732421875
-0.000732421875
0.0
-0.0025634765625
0.0010986328125
-0.000732421875
0.0018310546875
0.0
-0.00439453125
-0.0025634765625
-0.0032958984375
0.000732421875
0.0091552734375
0.002197265625
0.003662109375
-0.0010986328125
0.0
0.000732421875
0.0003662109375
0.0
-0.003662109375
-0.0010986328125
-0.009521484375
-0.002197265625
0.0604248046875
-0.0234375
0.1182861328125
-0.0164794921875
-0.0318603515625
0.0146484375
-0.12451171875
0.013916015625
-0.0421142578125
0.005859375
0.0029296875
0.0047607421875
0.0
0.0025634765625
-0.0003662109375
0.00146484375
0.002197265625
0.0010986328125
0.0029296875
0.0003662109375
0.0047607421875
0.0003662109375
0.0084228515625
0.000732421875
0.009521484375
0.0062255859375
0.0029296875
0.0076904296875
-0.005126953125
0.002197265625
-0.0047607421875
0.000732421875
-0.0029296875
0.002197265625
-0.00439453125
0.0003662109375
-0.0032958984375
0.0
0.0010986328125
0.0018310546875
0.0010986328125
0.002197265625
0.0
0.0003662109375
0.00146484375
-0.0010986328125
0.0010986328125
0.0018310546875
0.0
0.000732421875
-0.000732421875
0.00146484375
-0.00146484375
0.0029296875
0.000732421875
-0.0018310546875
0.00146484375
-0.0018310546875
-0.0040283203125
0.003662109375
-0.0084228515625
0.0029296875
-0.0128173828125
0.0003662109375
-0.0069580078125
0.0032958984375
0.0172119140625
0.0025634765625
0.0084228515625
-0.0018310546875
-0.006591796875
-0.0003662109375
-0.0040283203125
0.00146484375
-0.0040283203125
0.0
0.000732421875
0.0003662109375
0.031494140625
-0.0223388671875
0.1248779296875
-0.0216064453125
0.0274658203125
0.0164794921875
-0.134033203125
0.015380859375
-0.06591796875
0.0003662109375
0.00439453125
0.0010986328125
0.0047607421875
-0.0003662109375
0.0040283203125
0.00439453125
0.003662109375
0.0054931640625
0.002197265625
