-0.181304931640625
0.0999755859375
-0.178375244140625
0.123779296875
-0.005859375
0.044708251953125
0.0003662109375
0.0172119140625
0.021240234375
-0.014312744140625
0.02197265625
-0.0538330078125
0.030426025390625
-0.0186767578125
0.008056640625
0.02783203125
-0.0069580078125
0.002197265625
0.029327392578125
-0.025634765625
0.0303955078125
-0.034423828125
0.01171875
-0.013916015625
0.002197265625
-0.0087890625
-0.0098876953125
0.012451171875
-0.005859375
0.0087890625
0.0040283203125
-0.0113525390625
0.0106201171875
-0.0120849609375
0.0084228515625
-0.0029296875
-0.0087890625
0.0223388671875
-0.0113525390625
0.0263671875
-0.0029296875
0.0384521484375
0.0054931640625
0.038818359375
0.017578125
0.0054931640625
0.0032958984375
-0.0029296875
-0.0157470703125
0.006591796875
-0.036285400390625
0.037750244140625
-0.048370361328125
0.062652587890625
-0.07763671875
0.0926513671875
-0.085693359375
0.09375
-0.038818359375
0.0428466796875
-0.0230712890625
0.0230712890625
-0.009521484375
0.0084228515625
0.016845703125
-0.013916015625
0.038818359375
-0.0267333984375
0.0384521484375
-0.03076171875
0.035888671875
-0.037353515625
0.035888671875
-0.032958984375
0.0098876953125
-0.028564453125
0.0128173828125
-0.0205078125
0.027099609375
-0.0194091796875
0.025665283203125
-0.03076171875
0.017608642578125
-0.025634765625
-0.030059814453125
0.0
-0.013580322265625
0.0032958984375
-0.0113525390625
0.009521484375
-0.068115234375
0.052734375
-0.0604248046875
0.049072265625
-0.0384521484375
0.03076171875
-0.016845703125
0.009521484375
0.0087890625
-0.028564453125
0.0274658203125
-0.0498046875
0.049072265625
-0.063720703125
0.0633544921875
-0.068145751953125
0.082427978515625
-0.089019775390625
0.097076416015625
-0.0948486328125
0.071044921875
-0.0648193359375
0.0340576171875
-0.0333251953125
0.0128173828125
-0.0172119140625
0.0128173828125
-0.0205078125
0.0172119140625
-0.02197265625
0.0325927734375
-0.0311279296875
0.03515625
-0.024169921875
0.0325927734375
-0.035888671875
0.041015625
-0.05419921875
0.0296630859375
-0.0325927734375
0.03515625
-0.0384521484375
0.034423828125
-0.035919189453125
-0.006591796875
0.0076904296875
-0.0087890625
0.016143798828125
0.0172119140625
-0.0106201171875
0.01318359375
-0.017608642578125
0.0029296875
-0.008453369140625
-0.0084228515625
0.009185791015625
-0.0238037109375
0.016876220703125
-0.024169921875
0.01904296875
-0.0274658203125
0.030029296875
-0.029296875
0.0267333984375
-0.018310546875
0.0208740234375
-0.03662109375
0.040283203125
-0.0267333984375
0.03662109375
-0.012451171875
0.005859375
0.0164794921875
0.002197265625
0.0245361328125
0.0128173828125
-0.009521484375
0.017578125
-0.0106201171875
0.0150146484375
-0.0457763671875
0.041015625
-0.0545654296875
0.05126953125
-0.0234375
0.01904296875
-0.0194091796875
0.006591796875
-0.0098876953125
-0.0032958984375
-0.01318359375
-0.0267333984375
-0.0230712890625
-0.02490234375
-0.0234375
-0.0025634765625
-0.024169921875
0.0113525390625
-0.0179443359375
0.016845703125
-0.0069580078125
0.0150146484375
0.0029296875
0.0069580078125
0.0032958984375
0.005859375
0.005859375
0.0281982421875
0.0142822265625
0.03369140625
0.024169921875
0.015380859375
0.0157470703125
0.005859375
0.00146484375
0.0098876953125
0.00146484375
0.01171875
0.0062255859375
0.0076904296875
0.0018310546875
0.01025390625
-0.0025634765625
0.006591796875
-0.000732421875
0.0003662109375
-0.005859375
0.0
-0.009521484375
0.0106201171875
-0.0128173828125
0.0223388671875
-0.0150146484375
0.0274658203125
-0.0062255859375
0.017974853515625
-0.010986328125
0.016143798828125
-0.00146484375
0.0113525390625
0.01171875
-0.002197265625
0.0098876953125
-0.005859375
0.012451171875
-0.016510009765625
0.000732421875
-0.027862548828125
0.01904296875
-0.009521484375
0.0157470703125
0.0120849609375
-0.0029296875
-0.00146484375
0.0076904296875
-0.009521484375
0.00732421875
-0.0084228515625
0.0076904296875
-0.0146484375
0.0047607421875
-0.0120849609375
-0.000732421875
-0.0069580078125
0.0025634765625
-0.00439453125
0.0029296875
-0.0032958984375
-0.000732421875
-0.005126953125
0.0
-0.009521484375
-0.0003662109375
-0.01171875
0.0146484375
-0.01611328125
0.0325927734375
-0.0325927734375
0.018310546875
-0.0234375
0.00146484375
-0.0084228515625
0.0040283203125
-0.0025634765625
0.0062255859375
0.0003662109375
0.0216064453125
-0.0234375
0.038818359375
-0.0450439453125
0.0263671875
-0.0406494140625
-0.0003662109375
-0.0128173828125
-0.008056640625
0.0062255859375
0.00146484375
0.00146484375
0.0025634765625
-0.006591796875
-0.000732421875
-0.0098876953125
0.031494140625
-0.0399169921875
0.041015625
-0.04833984375
0.0025634765625
-0.005859375
-0.017578125
0.0179443359375
-0.0128173828125
0.0406494140625
-0.0223388671875
0.0556640625
-0.0245361328125
0.05419921875
-0.0205078125
0.040283203125
-0.02490234375
0.0150146484375
-0.01318359375
0.0003662109375
-0.013916015625
-0.0260009765625
0.0128173828125
-0.00439453125
0.0106201171875
0.0260009765625
-0.0113525390625
0.0087890625
-0.00732421875
-0.0054931640625
-0.0146484375
-0.0069580078125
-0.005126953125
-0.0047607421875
0.0289306640625
-0.0018310546875
0.019775390625
0.0010986328125
-0.0128173828125
0.0010986328125
-0.0113525390625
0.0084228515625
-0.0084228515625
-0.0003662109375
-0.00439453125
-0.0084228515625
-0.0054931640625
-0.0087890625
0.0076904296875
-0.0172119140625
0.0179443359375
-0.030029296875
0.0040283203125
-0.022705078125
-0.008056640625
-0.01171875
-0.008056640625
-0.005126953125
-0.0047607421875
-0.005126953125
-0.035888671875
0.0260009765625
-0.03515625
0.0498046875
-0.000732421875
0.0157470703125
0.0010986328125
0.0032958984375
-0.0010986328125
0.0087890625
-0.013916015625
0.0142822265625
-0.0091552734375
0.010986328125
0.002197265625
-0.0029296875
0.0032958984375
-0.00439453125
0.0098876953125
-0.0062255859375
0.0146484375
-0.0084228515625
0.0091552734375
-0.009521484375
0.0069580078125
-0.0128173828125
0.009521484375
-0.0047607421875
-0.0010986328125
-0.0113525390625
-0.008056640625
-0.005126953125
0.0010986328125
0.01025390625
0.0025634765625
0.012451171875
-0.00439453125
0.0091552734375
0.0062255859375
0.01025390625
0.00146484375
0.0040283203125
0.021240234375
0.00146484375
0.0098876953125
0.0186767578125
-0.0172119140625
0.00732421875
-0.00146484375
-0.0003662109375
-0.0069580078125
-0.005859375
-0.005859375
-0.0223388671875
0.0076904296875
-0.0230712890625
0.0076904296875
-0.019775390625
-0.0003662109375
-0.019775390625
0.010986328125
-0.0205078125
0.0150146484375
-0.024169921875
0.0281982421875
-0.0465087890625
0.0618896484375
-0.0582275390625
0.08056640625
-0.0736083984375
0.0941162109375
-0.097076416015625
0.088653564453125
-0.086822509765625
0.030059814453125
-0.0435791015625
-0.0098876953125
-0.0172119140625
-0.01025390625
-0.01318359375
0.0
0.0029296875
-0.0029296875
0.0135498046875
-0.031524658203125
0.0201416015625
-0.045074462890625
0.0399169921875
-0.03076171875
0.0281982421875
-0.032958984375
0.0091552734375
-0.091552734375
0.064483642578125
-0.0860595703125
0.077301025390625
-0.02783203125
0.030029296875
-0.0091552734375
0.01611328125
-0.002197265625
0.0040283203125
0.002197265625
-0.0003662109375
-0.0029296875
0.017578125
-0.00439453125
0.0245361328125
-0.0018310546875
0.0208740234375
0.0010986328125
0.015380859375
0.003662109375
0.0069580078125
-0.0120849609375
-0.0164794921875
0.01025390625
0.0076904296875
0.0069580078125
0.031494140625
-0.0172119140625
0.005126953125
-0.0040283203125
0.0069580078125
-0.00439453125
0.010986328125
-0.00439453125
0.009521484375
-0.0010986328125
0.002197265625
0.0
-0.0010986328125
-0.0054931640625
0.01025390625
-0.01318359375
0.0157470703125
-0.0128173828125
0.0113525390625
-0.005859375
0.008056640625
0.0032958984375
0.0098876953125
0.0087890625
-0.00146484375
0.0194091796875
-0.0098876953125
0.0179443359375
-0.0128173828125
0.00439453125
-0.0201416015625
-0.006591796875
-0.0084228515625
-0.0076904296875
0.002197265625
-0.0003662109375
0.0062255859375
-0.002197265625
0.0062255859375
0.000732421875
0.000732421875
0.002197265625
0.008056640625
0.0010986328125
0.017578125
0.0040283203125
0.0084228515625
0.01025390625
0.0029296875
0.010986328125
0.00439453125
0.0106201171875
0.0010986328125
0.0076904296875
0.0025634765625
0.0076904296875
0.002197265625
0.012451171875
0.003662109375
0.0076904296875
0.000732421875
-0.00439453125
-0.000732421875
-0.006591796875
0.013916015625
0.00146484375
0.018310546875
0.006591796875
0.0010986328125
0.01171875
-0.0091552734375
-0.0003662109375
-0.035888671875
0.003662109375
-0.0179443359375
-0.0135498046875
0.0322265625
-0.027099609375
0.0157470703125
-0.005126953125
-0.0047607421875
0.00439453125
-0.0032958984375
0.0164794921875
-0.0018310546875
0.0106201171875
0.0025634765625
-0.0025634765625
-0.0025634765625
-0.0047607421875
-0.0047607421875
-0.005859375
0.0003662109375
-0.0113525390625
0.000732421875
-0.0087890625
0.000732421875
-0.00146484375
-0.0029296875
0.0069580078125
-0.0120849609375
0.01171875
-0.0201416015625
0.008056640625
-0.0164794921875
0.0025634765625
-0.0146484375
-0.00439453125
-0.0040283203125
-0.006591796875
0.012451171875
-0.0040283203125
0.015380859375
-0.0047607421875
0.01611328125
-0.003662109375
0.01171875
0.00146484375
0.0087890625
0.0025634765625
0.0029296875
-0.0003662109375
-0.000732421875
-0.000732421875
0.000732421875
-0.0010986328125
0.0054931640625
-0.0062255859375
0.002197265625
-0.0054931640625
0.0018310546875
-0.0054931640625
0.006591796875
-0.0076904296875
0.0054931640625
-0.010986328125
0.01171875
-0.0120849609375
0.0054931640625
-0.01025390625
0.00732421875
-0.003662109375
0.0146484375
0.0025634765625
0.005859375
0.0040283203125
-0.0047607421875
0.008056640625
-0.01025390625
-0.0311279296875
0.0205078125
0.005126953125
0.00146484375
0.03662109375
-0.0245361328125
-0.002197265625
-0.0040283203125
0.0029296875
-0.00439453125
0.0010986328125
-0.0025634765625
0.0062255859375
-0.00439453125
0.005859375
-0.00146484375
0.0040283203125
0.0018310546875
-0.0003662109375
0.0
-0.0106201171875
0.0
-0.0040283203125
0.0062255859375
0.0010986328125
0.0040283203125
0.0040283203125
-0.0003662109375
0.0120849609375
-0.003662109375
0.009521484375
-0.0091552734375
0.0062255859375
-0.0018310546875
0.00732421875
0.0003662109375
0.0032958984375
-0.0025634765625
0.0032958984375
-0.000732421875
0.0029296875
-0.00146484375
0.0003662109375
-0.0029296875
0.0025634765625
0.0003662109375
-0.0010986328125
-0.0018310546875
-0.0069580078125
-0.000732421875
-0.002197265625
0.003662109375
0.0
-0.0010986328125
0.0
0.0
-0.000732421875
0.0
-0.0032958984375
-0.0003662109375
0.000732421875
0.002197265625
0.0
0.002197265625
-0.0087890625
-0.0018310546875
-0.005126953125
-0.003662109375
0.0054931640625
-0.0062255859375
-0.000732421875
0.00439453125
0.000732421875
0.009521484375
0.00439453125
-0.0010986328125
0.00439453125
-0.0040283203125
0.006591796875
-0.01318359375
-0.022705078125
0.003662109375
0.01025390625
0.0018310546875
0.02783203125
-0.0098876953125
-0.0062255859375
0.0029296875
0.0003662109375
-0.0029296875
0.0018310546875
-0.002197265625
0.000732421875
0.000732421875
-0.002197265625
-0.003662109375
-0.0040283203125
0.0010986328125
-0.0087890625
0.0054931640625
-0.0084228515625
0.0032958984375
-0.005126953125
0.0029296875
-0.0032958984375
0.0047607421875
0.002197265625
0.0025634765625
0.0113525390625
-0.0062255859375
0.0146484375
-0.010986328125
0.0135498046875
-0.0098876953125
0.01025390625
-0.0047607421875
0.0025634765625
-0.003662109375
-0.000732421875
0.000732421875
0.0
0.0
0.0029296875
-0.00146484375
0.002197265625
0.0010986328125
0.0010986328125
-0.002197265625
0.00146484375
-0.00146484375
-0.0025634765625
-0.00439453125
0.00439453125
-0.0029296875
0.0040283203125
0.00146484375
0.0010986328125
0.002197265625
0.0029296875
0.0
-0.002197265625
-0.00146484375
-0.0003662109375
0.002197265625
0.0025634765625
-0.000732421875
0.0010986328125
-0.0032958984375
-0.0010986328125
-0.003662109375
-0.003662109375
0.0
-0.0025634765625
0.0010986328125
0.00146484375
-0.0018310546875
0.0047607421875
0.0205078125
0.00439453125
0.0303955078125
-0.0164794921875
0.0069580078125
0.0113525390625
-0.0146484375
0.0142822265625
0.005126953125
-0.0128173828125
0.012451171875
-0.0018310546875
-0.0040283203125
-0.00146484375
0.000732421875
-0.000732421875
0.0
-0.000732421875
-0.0032958984375
-0.0032958984375
-0.000732421875
-0.00146484375
0.0025634765625
-0.0032958984375
0.00146484375
-0.0120849609375
0.00732421875
-0.010986328125
0.010986328125
-0.012451171875
0.00732421875
-0.0062255859375
-0.000732421875
0.0087890625
-0.008056640625
0.0084228515625
-0.0091552734375
0.0
-0.005859375
0.0003662109375
-0.0029296875
-0.0003662109375
-0.00439453125
0.0010986328125
-0.0025634765625
0.00146484375
-0.002197265625
-0.000732421875
-0.0003662109375
0.002197265625
-0.000732421875
0.0003662109375
-0.0040283203125
0.0
-0.0040283203125
0.0010986328125
-0.0029296875
-0.00439453125
0.0
-0.0040283203125
-0.0010986328125
-0.0010986328125
-0.000732421875
0.00146484375
0.0003662109375
0.0047607421875
-0.0025634765625
0.0091552734375
-0.0098876953125
0.0003662109375
-0.003662109375
-0.0025634765625
0.013916015625
0.003662109375
0.005859375
0.0069580078125
-0.00439453125
0.013916015625
-0.0106201171875
-0.015380859375
0.0084228515625
0.01611328125
0.00146484375
0.0303955078125
-0.0150146484375
-0.0087890625
-0.0003662109375
-0.002197265625
-0.00439453125
-0.0029296875
-0.002197265625
-0.0047607421875
-0.0003662109375
-0.002197265625
-0.002197265625
-0.0003662109375
-0.002197265625
-0.0062255859375
0.002197265625
-0.0091552734375
0.005126953125
-0.009521484375
0.0029296875
-0.0128173828125
0.000732421875
-0.0069580078125
0.0003662109375
0.0040283203125
-0.003662109375
0.005859375
-0.0040283203125
0.0054931640625
-0.0029296875
0.0032958984375
-0.019775390625
0.0003662109375
-0.03515625
-0.0029296875
-0.0263671875
-0.0003662109375
-0.0113525390625
0.0003662109375
-0.005126953125
-0.0029296875
-0.0054931640625
-0.0018310546875
-0.000732421875
0.00146484375
-0.005859375
0.0018310546875
-0.0128173828125
0.0003662109375
-0.0098876953125
-0.0003662109375
-0.0135498046875
0.0032958984375
-0.0245361328125
0.0069580078125
-0.037353515625
0.0146484375
-0.02783203125
0.0106201171875
-0.0054931640625
0.0018310546875
0.005859375
0.0025634765625
-0.0032958984375
0.003662109375
-0.0098876953125
-0.000732421875
0.0
-0.0179443359375
0.032958984375
-0.015380859375
0.05126953125
-0.0025634765625
0.02783203125
0.0
-0.0040283203125
-0.01318359375
0.0142822265625
-0.0120849609375
0.0531005859375
0.0135498046875
0.0076904296875
0.009521484375
-0.019775390625
0.00146484375
-0.0047607421875
0.0069580078125
-0.006591796875
0.0087890625
-0.0106201171875
0.0128173828125
-0.018310546875
0.0054931640625
-0.013916015625
0.0084228515625
-0.01611328125
0.005859375
-0.0146484375
-0.000732421875
-0.0040283203125
0.0054931640625
-0.015380859375
0.005126953125
-0.018310546875
0.005859375
-0.0054931640625
0.01318359375
-0.006591796875
0.010986328125
-0.0098876953125
0.000732421875
0.0018310546875
-0.006591796875
0.0172119140625
-0.00439453125
0.0142822265625
0.0047607421875
0.0098876953125
0.000732421875
0.0098876953125
-0.0018310546875
0.010986328125
-0.006591796875
0.0087890625
-0.00732421875
0.0054931640625
-0.0054931640625
0.0047607421875
-0.009521484375
0.0047607421875
-0.0062255859375
0.0087890625
-0.0032958984375
0.01171875
-0.00439453125
0.0120849609375
-0.005859375
0.0040283203125
-0.00439453125
0.0
-0.0025634765625
-0.0062255859375
-0.0018310546875
-0.0157470703125
-0.00732421875
0.00439453125
-0.0032958984375
0.0194091796875
0.0054931640625
0.0069580078125
0.003662109375
0.0032958984375
-0.010986328125
0.0106201171875
-0.0391845703125
0.0556640625
0.0054931640625
0.006591796875
0.0318603515625
-0.04541015625
0.0
-0.002197265625
-0.0010986328125
0.0040283203125
-0.003662109375
0.002197265625
-0.0010986328125
0.002197265625
0.0
0.0025634765625
-0.003662109375
0.00146484375
-0.0054931640625
0.0054931640625
-0.0098876953125
0.0054931640625
-0.010986328125
0.0032958984375
-0.0062255859375
0.0069580078125
-0.0003662109375
0.0032958984375
0.0106201171875
0.00146484375
0.009521484375
-0.000732421875
0.0025634765625
-0.00439453125
0.0029296875
0.0018310546875
-0.0018310546875
0.0010986328125
-0.00439453125
-0.0010986328125
-0.0025634765625
0.003662109375
0.000732421875
0.005126953125
0.00146484375
0.0010986328125
-0.0010986328125
-0.0018310546875
-0.0003662109375
0.0025634765625
0.0003662109375
0.0018310546875
0.000732421875
-0.0003662109375
0.0029296875
-0.00146484375
0.0040283203125
0.002197265625
0.000732421875
-0.000732421875
0.0
-0.0054931640625
0.0010986328125
0.00146484375
-0.0003662109375
-0.0010986328125
0.003662109375
-0.0040283203125
0.0
-0.01025390625
-0.009521484375
0.0054931640625
-0.000732421875
0.017578125
0.0069580078125
0.0047607421875
0.00439453125
-0.0003662109375
-0.0087890625
0.00146484375
-0.0263671875
0.0498046875
0.0179443359375
-0.005126953125
0.0340576171875
-0.0538330078125
-0.0003662109375
-0.0076904296875
-0.0025634765625
-0.0018310546875
0.0003662109375
0.0018310546875
-0.000732421875
-0.0029296875
-0.002197265625
0.0029296875
-0.00146484375
0.0010986328125
-0.002197265625
0.002197265625
-0.009521484375
0.0029296875
-0.0098876953125
0.0018310546875
0.0003662109375
0.0047607421875
0.0018310546875
0.00146484375
0.00439453125
-0.0032958984375
0.009521484375
-0.0062255859375
0.0069580078125
-0.0010986328125
-0.00146484375
-0.0032958984375
-0.0010986328125
-0.0029296875
0.0025634765625
-0.000732421875
0.000732421875
-0.002197265625
0.0
0.0029296875
-0.000732421875
0.0010986328125
0.0062255859375
0.0010986328125
0.0087890625
0.000732421875
0.00146484375
-0.0010986328125
-0.0003662109375
-0.00439453125
-0.0018310546875
-0.0010986328125
-0.003662109375
0.0054931640625
-0.005126953125
0.00439453125
-0.0003662109375
0.0040283203125
0.002197265625
0.0025634765625
0.005126953125
0.0032958984375
0.00146484375
0.0029296875
-0.0047607421875
0.000732421875
-0.0018310546875
-0.006591796875
-0.0076904296875
0.006591796875
-0.00732421875
0.010986328125
-0.006591796875
0.0003662109375
-0.0062255859375
-0.00146484375
-0.005126953125
-0.0054931640625
-0.0208740234375
-0.012451171875
0.01318359375
-0.005126953125
0.013916015625
0.0128173828125
-0.0142822265625
0.0047607421875
0.000732421875
-0.00146484375
0.0010986328125
0.002197265625
-0.0018310546875
0.0010986328125
-0.0029296875
0.002197265625
-0.00439453125
0.0018310546875
-0.005859375
0.0047607421875
-0.0091552734375
0.0029296875
-0.0113525390625
0.0047607421875
-0.0069580078125
0.0054931640625
-0.0069580078125
0.002197265625
0.0018310546875
0.0029296875
0.010986328125
-0.0040283203125
0.0113525390625
-0.005126953125
0.005126953125
-0.0032958984375
0.000732421875
-0.0018310546875
0.000732421875
-0.00146484375
-0.0003662109375
-0.00439453125
-0.0003662109375
-0.0054931640625
-0.0010986328125
-0.00732421875
0.000732421875
-0.003662109375
0.00146484375
0.0
0.0040283203125
0.0098876953125
0.0029296875
0.0047607421875
0.0010986328125
-0.009521484375
0.0040283203125
-0.0120849609375
0.0047607421875
-0.0205078125
0.0
-0.0157470703125
0.0010986328125
-0.01025390625
0.0069580078125
-0.021240234375
-0.003662109375
-0.0234375
-0.0029296875
-0.0098876953125
0.0029296875
-0.0194091796875
0.0018310546875
-0.0223388671875
0.0032958984375
-0.005126953125
-0.0084228515625
-0.00146484375
0.0201416015625
0.0146484375
0.0120849609375
0.025634765625
-0.0179443359375
0.01611328125
-0.0003662109375
0.005126953125
0.00439453125
0.0054931640625
0.0040283203125
0.005126953125
0.0069580078125
0.00439453125
0.005126953125
0.0069580078125
-0.003662109375
0.00732421875
-0.0029296875
0.01171875
-0.0062255859375
0.0091552734375
-0.0069580078125
0.0087890625
0.0
0.0142822265625
0.0047607421875
0.00439453125
0.0084228515625
-0.005859375
0.005859375
-0.0047607421875
0.0054931640625
0.00146484375
0.0003662109375
0.005859375
-0.006591796875
0.0091552734375
-0.0040283203125
0.018310546875
-0.002197265625
0.01611328125
-0.0010986328125
0.0106201171875
0.0003662109375
0.0106201171875
0.0018310546875
0.006591796875
-0.000732421875
0.006591796875
0.0025634765625
0.012451171875
-0.000732421875
0.006591796875
0.0
0.0025634765625
0.0106201171875
-0.0010986328125
0.01025390625
-0.005859375
0.0018310546875
-0.0047607421875
-0.0032958984375
-0.005126953125
0.00146484375
-0.0025634765625
0.003662109375
-0.0098876953125
-0.0076904296875
-0.0069580078125
-0.0087890625
0.0062255859375
-0.0029296875
0.005859375
-0.000732421875
-0.0010986328125
0.0
-0.00732421875
-0.0142822265625
-0.0303955078125
0.017578125
-0.0157470703125
0.0157470703125
0.018310546875
-0.016845703125
0.0029296875
-0.0010986328125
-0.00439453125
0.000732421875
-0.0010986328125
-0.0010986328125
-0.003662109375
0.0
-0.005859375
-0.0032958984375
-0.0018310546875
-0.003662109375
0.000732421875
-0.0091552734375
0.0040283203125
-0.01318359375
0.0355224609375
-0.01025390625
0.0311279296875
-0.003662109375
0.0087890625
0.0047607421875
0.0076904296875
0.006591796875
-0.0003662109375
0.003662109375
-0.0025634765625
0.0
-0.0047607421875
0.0010986328125
-0.01611328125
0.0289306640625
-0.0538330078125
0.0732421875
-0.1065673828125
0.0732421875
-0.1131591796875
0.0439453125
-0.06591796875
0.0216064453125
-0.0245361328125
0.0003662109375
0.01025390625
-0.0098876953125
0.0263671875
-0.010986328125
0.0091552734375
-0.0084228515625
0.0003662109375
-0.006591796875
-0.0010986328125
-0.0087890625
0.000732421875
-0.01025390625
0.0076904296875
-0.0062255859375
0.019775390625
-0.002197265625
0.027099609375
-0.005859375
0.0230712890625
-0.01904296875
0.0216064453125
-0.0252685546875
0.0311279296875
-0.0157470703125
0.037353515625
-0.00732421875
0.0179443359375
-0.0076904296875
0.0439453125
-0.0267333984375
0.0552978515625
0.0
0.03955078125
0.016845703125
0.0113525390625
0.005859375
-0.116455078125
0.0172119140625
-0.0472412109375
0.0150146484375
0.010986328125
0.0150146484375
-0.0194091796875
0.008056640625
-0.02197265625
0.000732421875
0.0435791015625
-0.0029296875
0.247222900390625
0.0238037109375
-0.336944580078125
0.0281982421875
-0.41131591796875
-0.00439453125
-0.027099609375
-0.006591796875
0.221588134765625
-0.0029296875
0.0010986328125
-0.000732421875
-0.199249267578125
0.0
0.1593017578125
-0.01171875
0.0355224609375
-0.017578125
-0.019775390625
-0.01171875
-0.059326171875
-0.005859375
-0.0406494140625
-0.0040283203125
-0.017578125
-0.0062255859375
0.113189697265625
-0.008056640625
0.120513916015625
-0.0076904296875
0.015380859375
0.0
0.016845703125
0.0003662109375
-0.0018310546875
-0.0062255859375
0.013916015625
-0.0062255859375
0.0194091796875
-0.0047607421875
0.0230712890625
-0.005126953125
0.017578125
-0.0062255859375
0.009521484375
-0.0029296875
0.0029296875
0.0003662109375
0.0010986328125
-0.0018310546875
0.0062255859375
-0.0040283203125
0.0025634765625
-0.00146484375
0.0135498046875
-0.0062255859375
0.0205078125
-0.0047607421875
0.0106201171875
-0.0032958984375
-0.0091552734375
-0.00146484375
0.0029296875
0.0040283203125
0.0172119140625
-0.0252685546875
0.024169921875
0.00732421875
0.015380859375
0.0223388671875
-0.0076904296875
-0.012451171875
-0.0069580078125
-0.0047607421875
-0.00732421875
-0.0025634765625
0.0018310546875
-0.0018310546875
0.0
-0.00439453125
-0.0018310546875
-0.009521484375
-0.000732421875
-0.0087890625
-0.0091552734375
-0.0084228515625
0.00146484375
-0.0142822265625
-0.000732421875
-0.0084228515625
-0.0018310546875
-0.0010986328125
-0.0091552734375
0.003662109375
-0.01318359375
0.0069580078125
-0.0106201171875
0.008056640625
-0.009521484375
0.0047607421875
0.0010986328125
-0.002197265625
0.0010986328125
-0.002197265625
0.0003662109375
-0.000732421875
-0.005859375
0.0010986328125
0.0018310546875
-0.0010986328125
-0.0025634765625
-0.0018310546875
-0.0047607421875
0.0
0.00732421875
-0.002197265625
0.0
-0.000732421875
0.0025634765625
-0.000732421875
0.002197265625
-0.0032958984375
0.00146484375
-0.0025634765625
-0.0025634765625
0.0
0.0025634765625
-0.002197265625
0.0018310546875
-0.0029296875
0.0003662109375
0.0054931640625
0.003662109375
-0.0047607421875
-0.0018310546875
-0.0054931640625
0.0128173828125
0.0025634765625
0.0029296875
0.0032958984375
-0.0135498046875
0.0029296875
-0.016845703125
-0.01171875
-0.02197265625
0.017578125
0.0025634765625
0.01171875
0.01904296875
-0.0120849609375
0.01025390625
0.000732421875
-0.0010986328125
-0.003662109375
0.0054931640625
0.0018310546875
0.0029296875
0.002197265625
0.000732421875
-0.003662109375
0.0029296875
-0.003662109375
-0.0164794921875
-0.0029296875
-0.0252685546875
-0.0054931640625
-0.02490234375
-0.005859375
-0.0157470703125
-0.005126953125
-0.0135498046875
0.0054931640625
0.0018310546875
0.0146484375
0.0
-0.0025634765625
0.0010986328125
-0.009521484375
0.01611328125
0.0
0.010986328125
0.0010986328125
0.0194091796875
-0.0087890625
0.0186767578125
-0.0106201171875
0.0146484375
-0.0047607421875
0.0084228515625
-0.00146484375
0.0098876953125
0.000732421875
0.0069580078125
0.0010986328125
0.0047607421875
0.0018310546875
0.0076904296875
-0.002197265625
-0.0018310546875
0.0040283203125
0.005859375
0.0018310546875
0.002197265625
0.000732421875
0.0047607421875
0.005126953125
0.00439453125
0.003662109375
-0.0018310546875
0.0003662109375
0.002197265625
-0.002197265625
0.0
0.0018310546875
0.0040283203125
-0.00439453125
-0.0047607421875
0.0010986328125
0.0142822265625
0.005859375
0.0142822265625
0.0032958984375
0.0062255859375
0.003662109375
0.0032958984375
-0.01171875
-0.0032958984375
-0.0267333984375
0.05419921875
0.0157470703125
-0.002197265625
0.0318603515625
-0.0479736328125
-0.000732421875
-0.00439453125
0.00146484375
-0.0018310546875
0.0032958984375
0.000732421875
0.002197265625
0.000732421875
0.0003662109375
0.00146484375
-0.0029296875
0.002197265625
-0.00439453125
0.009521484375
-0.009521484375
0.00439453125
-0.0113525390625
0.0076904296875
-0.0029296875
0.0087890625
0.0062255859375
0.0062255859375
0.0098876953125
-0.0047607421875
0.010986328125
-0.00732421875
0.005859375
-0.0018310546875
0.0025634765625
0.005126953125
0.0003662109375
0.010986328125
-0.0032958984375
0.0
0.0003662109375
0.00732421875
0.00146484375
-0.022705078125
-0.000732421875
-0.0333251953125
0.000732421875
-0.00439453125
-0.0003662109375
0.0025634765625
0.00439453125
0.01025390625
0.0029296875
0.010986328125
-0.00146484375
0.0062255859375
-0.00146484375
-0.005126953125
0.0010986328125
0.003662109375
0.0018310546875
0.002197265625
-0.003662109375
-0.0032958984375
-0.0040283203125
0.002197265625
0.00146484375
0.0113525390625
-0.0018310546875
0.0399169921875
-0.005859375
0.0655517578125
0.005126953125
0.0428466796875
0.0120849609375
-0.0040283203125
0.003662109375
-0.008056640625
-0.0142822265625
0.0003662109375
-0.012451171875
0.027099609375
0.0146484375
-0.003662109375
0.01171875
-0.0399169921875
0.0003662109375
-0.000732421875
0.0025634765625
0.0032958984375
-0.0032958984375
0.0
0.0003662109375
0.00732421875
0.00146484375
0.0076904296875
-0.0025634765625
0.0084228515625
-0.00732421875
0.0098876953125
-0.009521484375
0.0216064453125
-0.0054931640625
0.0208740234375
-0.0029296875
0.012451171875
0.0040283203125
-0.0003662109375
0.0157470703125
-0.0128173828125
0.0120849609375
-0.015380859375
0.0010986328125
-0.0135498046875
-0.0029296875
-0.00732421875
-0.003662109375
-0.0032958984375
0.0010986328125
0.0029296875
0.0
0.0
-0.00439453125
-0.0032958984375
-0.0025634765625
-0.00439453125
0.0010986328125
-0.00146484375
-0.0003662109375
-0.0025634765625
-0.000732421875
-0.009521484375
0.00146484375
-0.003662109375
-0.0003662109375
-0.002197265625
-0.0054931640625
0.0003662109375
-0.0010986328125
-0.0029296875
0.0054931640625
-0.0018310546875
-0.000732421875
-0.00146484375
0.0
-0.0025634765625
0.005126953125
-0.00439453125
0.0
-0.01904296875
-0.0087890625
0.0003662109375
-0.0054931640625
0.009521484375
0.0025634765625
0.002197265625
0.00439453125
-0.00146484375
0.0062255859375
-0.00732421875
-0.0377197265625
0.0413818359375
0.0054931640625
0.0
0.041015625
-0.0439453125
-0.0106201171875
-0.0069580078125
-0.002197265625
0.0
-0.0010986328125
0.0032958984375
-0.0025634765625
-0.0025634765625
0.006591796875
-0.0047607421875
0.0054931640625
-0.0003662109375
-0.005126953125
0.0047607421875
-0.0135498046875
0.000732421875
-0.0091552734375
0.005126953125
-0.0069580078125
0.002197265625
-0.0047607421875
-0.005126953125
0.0087890625
-0.0142822265625
0.012451171875
-0.0186767578125
0.0087890625
-0.012451171875
0.0029296875
-0.0032958984375
0.0003662109375
0.002197265625
0.002197265625
-0.00146484375
0.000732421875
0.00146484375
-0.003662109375
-0.0003662109375
-0.0003662109375
0.0032958984375
0.0025634765625
0.0018310546875
-0.0025634765625
-0.0010986328125
-0.0032958984375
0.0029296875
-0.0025634765625
-0.0010986328125
-0.0018310546875
0.006591796875
-0.000732421875
0.0076904296875
-0.0018310546875
0.00439453125
-0.0032958984375
0.0040283203125
-0.000732421875
0.0047607421875
0.0029296875
0.0
-0.0003662109375
-0.0062255859375
-0.00439453125
-0.00146484375
0.000732421875
-0.00439453125
0.0032958984375
-0.002197265625
-0.005126953125
0.0113525390625
-0.002197265625
0.013916015625
0.0029296875
0.0003662109375
0.0018310546875
-0.005859375
0.0025634765625
-0.0150146484375
-0.02783203125
0.00439453125
0.0106201171875
0.0062255859375
0.03076171875
-0.0113525390625
-0.0062255859375
0.0032958984375
0.0010986328125
-0.0054931640625
0.01318359375
-0.01318359375
0.005859375
-0.0087890625
-0.0098876953125
0.0010986328125
-0.0029296875
0.0040283203125
-0.0054931640625
0.0018310546875
-0.0087890625
0.0128173828125
-0.0098876953125
0.0069580078125
-0.0047607421875
0.0003662109375
-0.0003662109375
-0.002197265625
0.00439453125
-0.0091552734375
0.013916015625
-0.0091552734375
0.0047607421875
0.002197265625
-0.00439453125
0.0157470703125
-0.0010986328125
0.006591796875
0.0003662109375
0.0062255859375
0.0040283203125
0.005126953125
0.002197265625
0.005126953125
-0.0018310546875
0.0040283203125
0.0018310546875
-0.0029296875
0.0032958984375
0.000732421875
-0.0025634765625
-0.0032958984375
0.0003662109375
-0.0010986328125
0.0003662109375
-0.000732421875
-0.002197265625
-0.00146484375
0.002197265625
-0.0010986328125
0.002197265625
0.000732421875
-0.002197265625
0.0003662109375
-0.0025634765625
-0.005126953125
0.003662109375
-0.008056640625
-0.006591796875
-0.00732421875
-0.008056640625
0.0076904296875
-0.00146484375
0.005126953125
-0.00146484375
-0.006591796875
0.00146484375
-0.012451171875
-0.01904296875
-0.0098876953125
0.0164794921875
0.0
0.021240234375
-0.005126953125
-0.01318359375
-0.00732421875
0.000732421875
-0.006591796875
0.000732421875
-0.0025634765625
0.00146484375
-0.0029296875
0.0
-0.0018310546875
-0.002197265625
0.0029296875
-0.00439453125
0.0010986328125
-0.008056640625
0.00146484375
-0.0113525390625
0.0003662109375
-0.0076904296875
0.0150146484375
0.0010986328125
0.0120849609375
0.0098876953125
-0.0025634765625
0.0106201171875
-0.00732421875
0.005859375
-0.006591796875
0.0029296875
0.000732421875
0.0029296875
-0.00146484375
0.0040283203125
0.0
-0.005126953125
-0.000732421875
-0.0018310546875
0.0054931640625
0.003662109375
0.0018310546875
-0.0032958984375
-0.005859375
0.00146484375
0.00146484375
0.0040283203125
0.005126953125
0.00146484375
0.0025634765625
0.0010986328125
-0.005126953125
-0.0029296875
-0.0018310546875
-0.0010986328125
0.000732421875
0.00146484375
0.0003662109375
-0.00146484375
-0.00146484375
-0.00146484375
-0.0025634765625
0.0003662109375
-0.0010986328125
0.0
-0.0113525390625
-0.0047607421875
-0.0025634765625
0.0
0.01025390625
0.0062255859375
0.00732421875
0.0029296875
-0.0029296875
0.0025634765625
-0.0113525390625
-0.03662109375
0.0296630859375
0.0087890625
0.005859375
0.0369873046875
-0.0303955078125
-0.0084228515625
-0.0040283203125
-0.000732421875
0.0003662109375
-0.0003662109375
0.0010986328125
0.0040283203125
0.00146484375
-0.0010986328125
0.0018310546875
-0.005126953125
-0.0018310546875
-0.0018310546875
0.0010986328125
-0.0047607421875
0.003662109375
-0.010986328125
0.0040283203125
-0.0113525390625
-0.0018310546875
-0.0032958984375
0.003662109375
0.0098876953125
0.0003662109375
0.01171875
-0.0084228515625
0.0054931640625
-0.0062255859375
0.003662109375
-0.0029296875
-0.002197265625
0.010986328125
-0.0369873046875
0.03515625
-0.044677734375
0.0509033203125
-0.0120849609375
0.0281982421875
0.000732421875
0.00439453125
0.0040283203125
0.0032958984375
0.0029296875
-0.0069580078125
0.0
-0.015380859375
0.000732421875
-0.0047607421875
0.0029296875
0.0032958984375
0.005126953125
-0.0029296875
0.0032958984375
-0.0010986328125
0.0025634765625
0.0029296875
0.0054931640625
0.0062255859375
0.0040283203125
0.0120849609375
0.0003662109375
0.0076904296875
0.002197265625
-0.01318359375
0.0032958984375
-0.0501708984375
0.0029296875
-0.04248046875
-0.003662109375
0.0025634765625
-0.0010986328125
0.0208740234375
0.005126953125
0.01171875
0.0047607421875
0.0029296875
0.0069580078125
-0.0062255859375
-0.009521484375
-0.0263671875
0.0245361328125
-0.010986328125
0.0179443359375
0.0230712890625
-0.019775390625
0.018310546875
0.000732421875
0.003662109375
0.006591796875
0.008056640625
0.0047607421875
0.00439453125
0.0018310546875
-0.0029296875
0.0010986328125
0.0069580078125
-0.00439453125
0.012451171875
-0.0084228515625
0.016845703125
-0.01171875
0.0150146484375
-0.00732421875
0.01611328125
-0.005859375
0.0098876953125
0.0029296875
0.0003662109375
0.0135498046875
-0.0003662109375
0.009521484375
0.00146484375
0.002197265625
0.0069580078125
0.002197265625
-0.000732421875
0.00439453125
-0.0029296875
0.0032958984375
-0.0032958984375
0.0025634765625
-0.0054931640625
-0.0032958984375
-0.0069580078125
-0.0025634765625
-0.0029296875
-0.0025634765625
-0.0032958984375
0.0
-0.0054931640625
0.0069580078125
-0.00439453125
0.0062255859375
-0.010986328125
0.0018310546875
-0.0106201171875
0.0003662109375
-0.006591796875
0.000732421875
-0.0054931640625
0.00146484375
-0.005859375
0.00146484375
-0.010986328125
0.003662109375
-0.029296875
-0.0010986328125
-0.0263671875
0.00146484375
-0.0076904296875
0.01025390625
-0.01904296875
0.005859375
-0.0223388671875
0.0018310546875
-0.016845703125
-0.0362548828125
0.019775390625
0.0084228515625
0.00146484375
0.03955078125
-0.034423828125
-0.00439453125
-0.0010986328125
-0.00146484375
0.005859375
-0.0025634765625
0.0047607421875
-0.000732421875
0.0
0.0010986328125
-0.00146484375
-0.0018310546875
-0.006591796875
-0.0098876953125
-0.015380859375
-0.0135498046875
-0.0054931640625
-0.010986328125
-0.0062255859375
-0.0062255859375
-0.005859375
-0.0025634765625
0.0032958984375
0.0062255859375
0.0010986328125
0.0098876953125
-0.0032958984375
0.0062255859375
-0.005859375
0.002197265625
-0.005126953125
-0.002197265625
0.0029296875
-0.0047607421875
0.009521484375
-0.005859375
0.005126953125
-0.0025634765625
0.0113525390625
-0.0029296875
0.009521484375
-0.0025634765625
0.0040283203125
-0.0018310546875
0.00439453125
-0.000732421875
0.01318359375
0.0003662109375
0.0465087890625
-0.00146484375
0.0377197265625
-0.0003662109375
0.0062255859375
0.0018310546875
0.0010986328125
0.0025634765625
-0.0018310546875
0.0003662109375
-0.0054931640625
0.00146484375
-0.00439453125
0.002197265625
-0.005126953125
0.0029296875
-0.0098876953125
0.00439453125
-0.005859375
-0.0029296875
-0.0120849609375
-0.003662109375
0.0062255859375
0.002197265625
0.0146484375
-0.00146484375
-0.0018310546875
0.00146484375
-0.0003662109375
0.002197265625
-0.00439453125
-0.0457763671875
0.053466796875
0.0098876953125
-0.0120849609375
0.056396484375
-0.084228515625
0.0267333984375
-0.0435791015625
0.0263671875
-0.0333251953125
0.00439453125
-0.0054931640625
-0.0010986328125
-0.0010986328125
-0.006591796875
0.00146484375
-0.0062255859375
0.005126953125
-0.0076904296875
0.0040283203125
-0.0091552734375
0.0029296875
-0.0120849609375
0.0076904296875
-0.013916015625
0.008056640625
-0.00146484375
0.0069580078125
0.0120849609375
0.0025634765625
0.0113525390625
-0.0018310546875
0.0054931640625
-0.0003662109375
0.0010986328125
-0.002197265625
-0.0029296875
0.0062255859375
-0.0047607421875
0.0047607421875
0.0003662109375
0.003662109375
-0.00146484375
0.005126953125
-0.0040283203125
0.0003662109375
-0.0025634765625
0.003662109375
-0.0025634765625
0.003662109375
-0.000732421875
0.0029296875
-0.000732421875
0.0010986328125
-0.0018310546875
0.005126953125
-0.0025634765625
-0.0010986328125
0.0010986328125
-0.000732421875
0.0
0.00439453125
-0.0029296875
0.002197265625
-0.0025634765625
0.005126953125
-0.0032958984375
-0.002197265625
0.0018310546875
0.000732421875
0.0054931640625
-0.0029296875
-0.006591796875
0.00439453125
-0.0069580078125
0.0113525390625
0.00146484375
0.00146484375
0.0032958984375
0.00146484375
0.005126953125
-0.0098876953125
-0.0238037109375
-0.0047607421875
0.009521484375
0.0003662109375
0.0234375
0.0003662109375
-0.012451171875
0.002197265625
0.0018310546875
0.00146484375
0.003662109375
0.0084228515625
0.0010986328125
0.010986328125
0.0010986328125
0.0084228515625
-0.0032958984375
0.005126953125
-0.006591796875
0.0076904296875
-0.00732421875
0.0054931640625
-0.0120849609375
0.0040283203125
-0.0128173828125
0.002197265625
-0.002197265625
0.0025634765625
0.0087890625
-0.003662109375
0.0106201171875
-0.012451171875
0.0047607421875
-0.00732421875
0.0003662109375
-0.005859375
0.000732421875
-0.000732421875
0.00732421875
-0.008056640625
0.009521484375
-0.010986328125
0.009521484375
-0.0062255859375
0.0054931640625
-0.01025390625
0.000732421875
-0.0010986328125
-0.0054931640625
0.00439453125
-0.0098876953125
0.0032958984375
-0.0003662109375
-0.006591796875
0.0087890625
-0.0142822265625
0.0120849609375
-0.01318359375
-0.0003662109375
-0.0091552734375
-0.0054931640625
-0.00439453125
0.0
0.003662109375
0.000732421875
0.002197265625
-0.0003662109375
-0.003662109375
-0.000732421875
-0.0054931640625
-0.006591796875
0.01171875
-0.0054931640625
0.02783203125
0.00146484375
0.008056640625
0.005126953125
-0.00732421875
0.0186767578125
-0.0194091796875
0.0062255859375
-0.0333251953125
0.0260009765625
-0.02197265625
0.0216064453125
-0.030029296875
-0.003662109375
-0.0428466796875
0.0172119140625
-0.0406494140625
0.0069580078125
-0.052734375
-0.0029296875
-0.0325927734375
-0.0025634765625
0.00732421875
-0.0091552734375
0.0120849609375
-0.01611328125
-0.0010986328125
-0.013916015625
0.0069580078125
-0.0128173828125
0.0113525390625
-0.0113525390625
0.0157470703125
-0.008056640625
0.0194091796875
0.002197265625
0.0223388671875
0.0091552734375
0.03515625
0.0047607421875
0.0267333984375
0.00146484375
0.0164794921875
-0.0113525390625
0.021240234375
-0.0146484375
0.018310546875
-0.0040283203125
0.003662109375
-0.002197265625
0.005126953125
-0.0029296875
0.0098876953125
-0.0032958984375
0.005126953125
-0.0018310546875
0.005126953125
0.0010986328125
0.0018310546875
-0.0029296875
0.0029296875
-0.0032958984375
0.0010986328125
-0.0003662109375
0.002197265625
-0.0040283203125
0.00732421875
-0.003662109375
0.00439453125
-0.0025634765625
0.002197265625
-0.0018310546875
0.00439453125
-0.0003662109375
0.0091552734375
-0.0018310546875
0.0047607421875
0.0003662109375
0.009521484375
0.0025634765625
0.0040283203125
-0.005859375
0.0113525390625
-0.0032958984375
0.015380859375
0.0010986328125
0.00439453125
0.00146484375
0.000732421875
0.0032958984375
-0.009521484375
-0.0069580078125
-0.017578125
0.021240234375
-0.0062255859375
0.0047607421875
0.0216064453125
-0.019775390625
0.0106201171875
0.0032958984375
0.0018310546875
0.0010986328125
0.0087890625
-0.000732421875
0.0025634765625
-0.0029296875
0.002197265625
-0.0032958984375
0.0
-0.00439453125
0.0040283203125
-0.010986328125
0.005126953125
-0.01171875
0.0018310546875
-0.0106201171875
0.0091552734375
-0.0062255859375
0.009521484375
0.0091552734375
0.002197265625
0.0164794921875
-0.009521484375
0.0113525390625
-0.0062255859375
0.0040283203125
-0.0106201171875
0.0018310546875
-0.009521484375
0.0
0.0003662109375
0.002197265625
0.0025634765625
-0.0025634765625
0.0003662109375
-0.005126953125
-0.005859375
0.0018310546875
-0.0010986328125
0.002197265625
0.0
0.000732421875
-0.0003662109375
0.0
0.000732421875
-0.0025634765625
0.00146484375
-0.0010986328125
-0.0018310546875
-0.000732421875
-0.00439453125
-0.0025634765625
0.002197265625
0.0106201171875
-0.0106201171875
0.0113525390625
-0.010986328125
0.00146484375
-0.005859375
-0.0003662109375
-0.0157470703125
-0.005859375
-0.0010986328125
-0.003662109375
0.0087890625
0.0029296875
0.0003662109375
-0.00146484375
-0.0054931640625
-0.0135498046875
0.008056640625
-0.0150146484375
0.0318603515625
0.015380859375
-0.005859375
0.0172119140625
-0.0325927734375
-0.00146484375
-0.00439453125
0.0
0.0
-0.0032958984375
0.0
-0.00146484375
0.00439453125
-0.00146484375
0.0003662109375
-0.0047607421875
0.0018310546875
-0.009521484375
0.00439453125
-0.0098876953125
0.0054931640625
-0.01171875
0.0054931640625
-0.0084228515625
0.0010986328125
0.002197265625
-0.002197265625
0.006591796875
-0.0091552734375
0.00732421875
-0.0062255859375
0.0076904296875
-0.0040283203125
0.0
-0.0018310546875
-0.005126953125
0.0018310546875
-0.005859375
0.0135498046875
-0.0054931640625
0.0062255859375
-0.0010986328125
-0.005126953125
-0.0003662109375
0.00439453125
0.002197265625
-0.000732421875
-0.002197265625
0.0018310546875
-0.00146484375
0.003662109375
0.0032958984375
-0.00146484375
0.010986328125
-0.0106201171875
0.01171875
-0.0142822265625
0.0047607421875
-0.0062255859375
-0.0087890625
0.0091552734375
-0.0128173828125
0.0150146484375
-0.0010986328125
0.0003662109375
0.0
0.0025634765625
-0.000732421875
0.00146484375
0.0032958984375
-0.0032958984375
-0.002197265625
-0.00439453125
-0.006591796875
0.0032958984375
0.002197265625
0.012451171875
0.0054931640625
-0.000732421875
0.000732421875
-0.00439453125
-0.0120849609375
0.0018310546875
-0.0223388671875
0.04541015625
0.017578125
-0.0029296875
0.027099609375
-0.0487060546875
-0.0029296875
-0.0029296875
0.0003662109375
-0.003662109375
0.0
-0.0003662109375
0.0010986328125
0.0010986328125
0.0010986328125
0.00146484375
-0.0029296875
0.0018310546875
-0.005126953125
0.0
-0.009521484375
0.00439453125
-0.0106201171875
0.0047607421875
-0.006591796875
0.0029296875
0.0003662109375
0.00146484375
0.0135498046875
0.0010986328125
0.0146484375
-0.00732421875
0.005859375
-0.0040283203125
0.0010986328125
0.000732421875
0.0018310546875
-0.0003662109375
0.003662109375
0.000732421875
-0.0003662109375
-0.0029296875
0.0
0.0040283203125
0.0010986328125
0.00146484375
-0.0010986328125
0.00146484375
-0.0010986328125
0.0040283203125
0.0025634765625
0.0029296875
0.00439453125
0.000732421875
0.00146484375
-0.0025634765625
0.0
-0.0003662109375
0.000732421875
-0.0025634765625
0.003662109375
0.0003662109375
0.0
-0.0018310546875
-0.000732421875
0.000732421875
0.0032958984375
-0.000732421875
-0.0047607421875
-0.0069580078125
-0.00439453125
0.01025390625
0.0018310546875
0.0135498046875
0.0029296875
0.002197265625
0.0047607421875
-0.0003662109375
-0.009521484375
0.005859375
0.0047607421875
0.0186767578125
0.0172119140625
0.0003662109375
0.0018310546875
-0.019775390625
0.000732421875
-0.005859375
0.0003662109375
0.00146484375
0.0003662109375
-0.0047607421875
0.0025634765625
0.0003662109375
-0.002197265625
0.0018310546875
-0.0069580078125
0.00439453125
-0.005859375
0.01904296875
-0.0069580078125
0.012451171875
-0.01025390625
-0.0029296875
-0.0047607421875
0.0040283203125
0.0054931640625
0.003662109375
0.0091552734375
-0.01171875
0.0084228515625
-0.01025390625
0.00146484375
-0.0047607421875
-0.00146484375
0.000732421875
-0.0018310546875
0.0047607421875
-0.000732421875
0.0047607421875
0.005126953125
0.0054931640625
0.0025634765625
0.0040283203125
-0.0032958984375
0.0003662109375
-0.00439453125
-0.0062255859375
0.0010986328125
-0.0029296875
0.0010986328125
-0.003662109375
-0.000732421875
-0.0054931640625
-0.0003662109375
0.00146484375
-0.002197265625
-0.0010986328125
0.000732421875
-0.003662109375
-0.003662109375
-0.00732421875
-0.0029296875
-0.008056640625
-0.0003662109375
-0.01318359375
-0.0025634765625
-0.008056640625
0.00146484375
0.00146484375
0.003662109375
-0.01171875
-0.0032958984375
-0.0142822265625
-0.0054931640625
0.0087890625
0.0003662109375
0.0120849609375
0.0018310546875
0.0
0.0032958984375
0.0054931640625
0.000732421875
-0.000732421875
-0.0399169921875
0.052734375
0.0087890625
0.0069580078125
0.0450439453125
-0.0589599609375
-0.0010986328125
-0.008056640625
-0.003662109375
-0.003662109375
-0.0040283203125
0.000732421875
0.0025634765625
0.0142822265625
-0.0025634765625
0.0135498046875
-0.0069580078125
0.0010986328125
-0.0040283203125
0.002197265625
-0.0087890625
-0.0018310546875
-0.0150146484375
-0.009521484375
-0.0098876953125
0.0
-0.00146484375
0.000732421875
0.00439453125
0.0025634765625
0.01025390625
0.000732421875
0.0106201171875
-0.003662109375
0.0062255859375
-0.00146484375
0.0
-0.0010986328125
0.0010986328125
0.002197265625
0.005126953125
-0.0018310546875
0.000732421875
-0.0010986328125
0.002197265625
0.0040283203125
0.0
0.0018310546875
-0.006591796875
-0.0029296875
-0.000732421875
-0.0010986328125
0.002197265625
0.002197265625
0.0003662109375
-0.000732421875
0.002197265625
0.000732421875
0.0018310546875
0.0003662109375
0.0010986328125
0.0003662109375
-0.002197265625
0.0010986328125
-0.0018310546875
-0.0003662109375
0.0047607421875
0.0029296875
-0.0003662109375
0.0010986328125
0.002197265625
-0.0047607421875
-0.008056640625
-0.0029296875
-0.009521484375
0.0076904296875
0.0040283203125
0.0040283203125
0.0010986328125
-0.000732421875
0.0032958984375
-0.0054931640625
-0.015380859375
-0.0069580078125
0.0172119140625
0.0032958984375
0.0216064453125
0.0091552734375
-0.0087890625
0.00732421875
0.0040283203125
0.002197265625
0.00439453125
0.005859375
0.00439453125
-0.0010986328125
-0.0010986328125
-0.00439453125
-0.0069580078125
-0.00146484375
-0.0098876953125
0.003662109375
-0.008056640625
0.0120849609375
-0.012451171875
0.0069580078125
-0.01171875
0.0069580078125
-0.0032958984375
0.0029296875
0.0091552734375
-0.0032958984375
0.0172119140625
0.0106201171875
0.01318359375
0.0157470703125
0.0084228515625
0.0106201171875
0.0029296875
-0.0018310546875
0.0003662109375
-0.021240234375
0.0029296875
-0.0369873046875
0.0025634765625
-0.0281982421875
-0.003662109375
-0.009521484375
-0.0040283203125
-0.00732421875
0.000732421875
-0.00439453125
-0.00146484375
0.000732421875
-0.0029296875
0.002197265625
-0.002197265625
-0.000732421875
-0.00146484375
0.000732421875
-0.002197265625
-0.00146484375
0.0003662109375
-0.0018310546875
0.000732421875
-0.000732421875
-0.0040283203125
-0.0010986328125
-0.0018310546875
0.0010986328125
0.0032958984375
-0.003662109375
-0.005859375
0.0018310546875
-0.0054931640625
0.01171875
0.003662109375
0.008056640625
0.0018310546875
-0.00146484375
-0.0029296875
-0.01025390625
-0.0142822265625
-0.0260009765625
0.019775390625
-0.0146484375
0.01025390625
0.01025390625
-0.018310546875
0.0047607421875
-0.0003662109375
0.0018310546875
-0.002197265625
0.0010986328125
0.0018310546875
0.0025634765625
0.0003662109375
0.0018310546875
-0.0032958984375
0.0010986328125
-0.0040283203125
0.0029296875
-0.0091552734375
0.0018310546875
-0.0091552734375
0.009521484375
-0.005126953125
0.006591796875
0.0029296875
0.0032958984375
0.01025390625
-0.0029296875
0.013916015625
-0.00732421875
0.01171875
-0.002197265625
0.0040283203125
-0.0054931640625
-0.00146484375
0.005859375
0.0003662109375
0.021240234375
0.0
0.0142822265625
-0.00146484375
-0.00146484375
0.003662109375
0.0003662109375
-0.002197265625
0.002197265625
-0.0062255859375
-0.0025634765625
0.0003662109375
-0.0032958984375
0.0018310546875
-0.0040283203125
-0.003662109375
0.0
0.0
0.000732421875
0.002197265625
-0.0025634765625
0.00146484375
-0.0076904296875
0.003662109375
-0.00732421875
-0.0003662109375
0.0010986328125
-0.0010986328125
0.0010986328125
0.000732421875
0.0018310546875
0.00146484375
0.00146484375
0.0
-0.0069580078125
-0.01171875
0.0054931640625
-0.0091552734375
0.0164794921875
0.0010986328125
0.0098876953125
0.0029296875
-0.000732421875
0.0047607421875
-0.0091552734375
-0.0128173828125
-0.01171875
0.015380859375
0.005126953125
0.0128173828125
0.0098876953125
-0.016845703125
0.000732421875
0.000732421875
-0.0010986328125
-0.00146484375
-0.0025634765625
-0.002197265625
0.0018310546875
0.0032958984375
-0.002197265625
0.000732421875
-0.0018310546875
-0.0069580078125
-0.0025634765625
-0.006591796875
0.002197265625
-0.0091552734375
0.002197265625
-0.010986328125
0.003662109375
-0.003662109375
0.00732421875
0.0084228515625
0.00146484375
0.0150146484375
-0.0025634765625
0.0084228515625
-0.0113525390625
0.00146484375
-0.008056640625
-0.00146484375
-0.0003662109375
-0.0018310546875
0.0010986328125
0.00146484375
0.0003662109375
0.0029296875
0.0047607421875
0.0010986328125
0.0
0.0003662109375
-0.0054931640625
0.0003662109375
0.0047607421875
0.0003662109375
0.0018310546875
0.000732421875
-0.000732421875
0.0
-0.00146484375
-0.000732421875
-0.0003662109375
-0.0018310546875
0.0
-0.0010986328125
-0.0018310546875
0.0003662109375
0.0
-0.0018310546875
-0.005126953125
0.0003662109375
0.0018310546875
-0.00146484375
0.00146484375
-0.000732421875
0.000732421875
0.00146484375
-0.003662109375
-0.002197265625
-0.012451171875
-0.0029296875
0.0087890625
-0.00146484375
0.0113525390625
0.0029296875
0.0
0.003662109375
-0.0025634765625
0.005126953125
-0.01025390625
-0.030029296875
0.017578125
0.008056640625
0.005126953125
0.0318603515625
-0.0216064453125
-0.0087890625
0.00146484375
0.0120849609375
-0.009521484375
0.0113525390625
-0.01611328125
0.0010986328125
-0.0032958984375
-0.000732421875
-0.002197265625
-0.006591796875
0.0032958984375
-0.0113525390625
0.00146484375
-0.0113525390625
0.0029296875
-0.005126953125
0.005859375
0.009521484375
-0.0142822265625
0.02197265625
-0.0230712890625
0.0186767578125
-0.0223388671875
0.0179443359375
-0.0289306640625
0.0120849609375
-0.0333251953125
0.002197265625
-0.0230712890625
0.0025634765625
-0.0128173828125
0.00146484375
-0.016845703125
0.0040283203125
-0.0120849609375
0.0047607421875
-0.002197265625
0.0
0.0
0.0047607421875
-0.0205078125
0.003662109375
-0.030029296875
-0.00439453125
-0.0135498046875
0.008056640625
-0.01611328125
0.0091552734375
-0.0223388671875
0.0
-0.013916015625
0.0025634765625
0.0120849609375
-0.002197265625
0.0142822265625
-0.0018310546875
0.002197265625
-0.002197265625
0.0029296875
-0.0029296875
0.0054931640625
0.000732421875
-0.0018310546875
-0.01025390625
0.00146484375
-0.0032958984375
0.0194091796875
0.000732421875
0.005126953125
0.0018310546875
-0.010986328125
0.003662109375
-0.0208740234375
-0.01318359375
-0.050567626953125
0.013916015625
-0.132598876953125
0.0135498046875
-0.1611328125
-0.01318359375
-0.145751953125
0.0010986328125
-0.0963134765625
0.005859375
-0.063018798828125
0.0025634765625
-0.130401611328125
0.003662109375
-0.1300048828125
0.0047607421875
-0.195220947265625
0.0263671875
-0.147613525390625
0.022705078125
0.0
0.005859375
0.0
0.01318359375
0.0
0.0113525390625
0.0
0.0238037109375
0.0
0.028564453125
0.0
0.0128173828125
0.0
-0.0018310546875
0.0
-0.0098876953125
0.0
-0.0084228515625
0.0
-0.00439453125
0.0
-0.0069580078125
0.0
-0.0120849609375
0.0
-0.000732421875
0.0
0.008056640625
0.0
-0.0025634765625
0.0
-0.010986328125
0.58746337890625
-0.01318359375
0.57244873046875
-0.018310546875
0.0076904296875
-0.0135498046875
0.0054931640625
-0.0040283203125
0.012115478515625
-0.005859375
-0.000732421875
-0.010986328125
0.003662109375
-0.009521484375
0.0289306640625
-0.005859375
0.0552978515625
-0.0069580078125
0.184600830078125
-0.0040283203125
0.1571044921875
-0.0069580078125
0.337310791015625
-0.0076904296875
0.676116943359375
0.000732421875
0.37103271484375
0.0032958984375
-0.01611328125
-0.000732421875
-0.057891845703125
-0.008056640625
-0.099273681640625
-0.031494140625
-0.05859375
0.005859375
-0.0706787109375
0.025634765625
-0.1036376953125
-0.009521484375
-0.0487060546875
-0.0069580078125
-0.0377197265625
-0.005859375
0.064453125
-0.0032958984375
0.0615234375
-0.003662109375
0.0615234375
-0.0106201171875
0.06884765625
-0.0205078125
0.0230712890625
-0.0303955078125
0.104034423828125
-0.0296630859375
0.0494384765625
-0.0223388671875
-0.045806884765625
-0.010986328125
-0.0472412109375
0.002197265625
-0.0142822265625
0.0084228515625
-0.0318603515625
0.0040283203125
-0.047607421875
0.0003662109375
-0.0355224609375
-0.000732421875
-0.04541015625
-0.0003662109375
-0.043212890625
0.00439453125
-0.0318603515625
0.0025634765625
-0.027099609375
0.0032958984375
-0.03515625
0.0025634765625
-0.040283203125
0.0003662109375
-0.0380859375
0.0025634765625
-0.0384521484375
0.003662109375
-0.040313720703125
0.0010986328125
-0.042877197265625
-0.0018310546875
-0.0318603515625
0.00146484375
-0.0303955078125
-0.002197265625
-0.0289306640625
-0.0076904296875
-0.0201416015625
0.0018310546875
-0.0201416015625
-0.0025634765625
0.0032958984375
-0.0084228515625
0.0120849609375
-0.0010986328125
-0.0087890625
0.0025634765625
-0.0260009765625
0.003662109375
-0.029296875
-0.0135498046875
-0.0318603515625
0.0106201171875
-0.0252685546875
0.0146484375
-0.0205078125
-0.0106201171875
-0.035888671875
-0.0003662109375
-0.0260009765625
-0.0010986328125
-0.018310546875
-0.0003662109375
-0.0216064453125
0.00146484375
-0.0238037109375
-0.00146484375
-0.019775390625
-0.0054931640625
-0.0142822265625
-0.0047607421875
-0.0164794921875
-0.0076904296875
-0.01611328125
-0.009521484375
-0.0164794921875
0.0
-0.0098876953125
0.00439453125
-0.012451171875
0.0076904296875
-0.018310546875
0.01171875
-0.022705078125
0.0076904296875
-0.017242431640625
0.00146484375
-0.011383056640625
0.002197265625
-0.0150146484375
0.0054931640625
-0.0120849609375
0.0
-0.009521484375
0.0010986328125
-0.0054931640625
0.0
-0.01025390625
-0.0040283203125
-0.0087890625
0.0003662109375
-0.0106201171875
0.0018310546875
-0.0128173828125
0.002197265625
-0.0069580078125
-0.0003662109375
-0.0087890625
-0.003662109375
-0.0076904296875
0.0003662109375
-0.0087890625
0.0047607421875
-0.0047607421875
0.0010986328125
-0.00439453125
-0.0032958984375
-0.0091552734375
0.000732421875
-0.008056640625
0.0047607421875
-0.009521484375
-0.0062255859375
0.002197265625
-0.006591796875
0.005859375
0.003662109375
0.0010986328125
0.00146484375
-0.005859375
0.0018310546875
-0.006591796875
-0.04248046875
0.0509033203125
0.006591796875
-0.0018310546875
0.046875
-0.0567626953125
0.000732421875
-0.013916015625
0.0025634765625
-0.0076904296875
-0.002197265625
-0.003662109375
-0.00146484375
0.002197265625
-0.0029296875
0.005859375
-0.003662109375
0.0084228515625
-0.005859375
0.018310546875
-0.0076904296875
0.009521484375
-0.0087890625
0.005126953125
-0.005859375
0.005126953125
-0.0040283203125
0.002197265625
0.0084228515625
0.0
0.019775390625
0.0025634765625
0.0113525390625
0.0025634765625
0.00439453125
0.0003662109375
0.0047607421875
0.0025634765625
0.0003662109375
0.0
-0.0010986328125
0.0150146484375
0.0032958984375
0.010986328125
0.005126953125
-0.0062255859375
0.00732421875
-0.0054931640625
0.0047607421875
-0.0289306640625
0.0032958984375
-0.01904296875
0.0040283203125
0.0150146484375
0.00146484375
0.01318359375
0.0029296875
0.006591796875
0.002197265625
0.002197265625
-0.000732421875
-0.0018310546875
0.0
-0.0003662109375
-0.00146484375
-0.00146484375
-0.0003662109375
-0.0003662109375
0.00146484375
0.0029296875
0.0
-0.0003662109375
0.00146484375
-0.002197265625
-0.0062255859375
0.01025390625
-0.0054931640625
0.0281982421875
0.003662109375
0.01611328125
0.0018310546875
-0.0029296875
0.0032958984375
-0.01318359375
-0.015380859375
-0.0098876953125
0.01171875
0.005126953125
0.0194091796875
0.005859375
-0.010986328125
-0.0003662109375
-0.00146484375
-0.00439453125
-0.0003662109375
-0.0032958984375
-0.0003662109375
-0.000732421875
0.0003662109375
0.02783203125
-0.0069580078125
0.025634765625
-0.008056640625
-0.0098876953125
-0.0054931640625
-0.018310546875
-0.01171875
-0.0150146484375
-0.0113525390625
-0.0025634765625
-0.005859375
-0.0040283203125
0.0076904296875
-0.0091552734375
0.015380859375
-0.0120849609375
0.0098876953125
-0.0098876953125
0.00439453125
-0.0047607421875
0.0018310546875
-0.00732421875
0.0025634765625
-0.0047607421875
-0.0029296875
-0.0135498046875
-0.0047607421875
-0.0201416015625
0.0029296875
-0.0201416015625
0.00146484375
-0.0128173828125
-0.00146484375
-0.005859375
0.00146484375
0.0
-0.000732421875
0.0069580078125
-0.0029296875
-0.0025634765625
-0.0029296875
-0.0010986328125
0.0
-0.00146484375
0.0010986328125
0.0018310546875
-0.000732421875
0.0025634765625
0.0003662109375
-0.000732421875
0.005126953125
0.00146484375
0.000732421875
0.0025634765625
-0.0029296875
0.03515625
0.008056640625
0.034423828125
0.013916015625
-0.0172119140625
0.003662109375
-0.0303955078125
-0.0087890625
-0.0076904296875
0.0029296875
0.022705078125
0.01611328125
-0.01025390625
0.0076904296875
-0.0325927734375
0.0
-0.0018310546875
0.0003662109375
0.0032958984375
0.0003662109375
0.002197265625
-0.0003662109375
0.0054931640625
-0.00146484375
0.006591796875
-0.0047607421875
0.0120849609375
-0.0091552734375
0.0208740234375
-0.010986328125
0.0135498046875
-0.0106201171875
0.01025390625
-0.01025390625
0.005859375
0.002197265625
0.000732421875
0.012451171875
-0.005859375
0.0106201171875
-0.0069580078125
0.00439453125
-0.0029296875
0.0
-0.0054931640625
-0.00146484375
0.0
0.0003662109375
0.000732421875
0.0
0.0
-0.003662109375
0.000732421875
-0.0010986328125
-0.0029296875
0.0003662109375
-0.0040283203125
-0.00146484375
-0.0040283203125
-0.002197265625
-0.00146484375
0.000732421875
-0.0010986328125
0.0
0.0010986328125
-0.0010986328125
0.0025634765625
0.0003662109375
-0.00146484375
0.0003662109375
-0.0040283203125
-0.000732421875
-0.002197265625
-0.002197265625
-0.0003662109375
-0.0029296875
-0.0003662109375
-0.000732421875
0.0040283203125
0.000732421875
0.0003662109375
0.0040283203125
-0.006591796875
-0.0062255859375
-0.0010986328125
-0.0047607421875
0.0047607421875
0.0040283203125
0.0047607421875
0.0018310546875
-0.0032958984375
0.00439453125
-0.008056640625
-0.0120849609375
-0.0142822265625
0.018310546875
-0.005859375
0.0135498046875
0.0076904296875
-0.0186767578125
0.0025634765625
0.0
-0.00439453125
-0.002197265625
-0.0029296875
-0.0040283203125
-0.0018310546875
-0.002197265625
0.0010986328125
-0.00146484375
0.0029296875
-0.005126953125
-0.0018310546875
-0.0098876953125
0.00439453125
-0.01171875
0.0010986328125
-0.010986328125
-0.002197265625
-0.0062255859375
0.010986328125
0.00439453125
0.0333251953125
0.010986328125
0.0223388671875
0.01025390625
-0.006591796875
0.0069580078125
-0.0029296875
0.0032958984375
-0.00439453125
0.0025634765625
-0.0040283203125
0.0018310546875
-0.002197265625
-0.003662109375
-0.005126953125
-0.002197265625
-0.00146484375
0.0018310546875
-0.00146484375
0.0010986328125
-0.0018310546875
0.0040283203125
-0.0029296875
0.0018310546875
0.0010986328125
-0.003662109375
-0.0029296875
0.0
-0.0025634765625
0.0025634765625
0.0003662109375
0.000732421875
-0.0025634765625
0.0
-0.003662109375
-0.000732421875
-0.0040283203125
-0.002197265625
0.0018310546875
-0.0025634765625
-0.00146484375
0.0047607421875
-0.005126953125
0.0010986328125
-0.0106201171875
-0.0054931640625
0.0054931640625
-0.0003662109375
0.01025390625
0.0040283203125
-0.003662109375
0.0029296875
-0.0025634765625
0.0040283203125
-0.0087890625
-0.0472412109375
0.05712890625
0.0047607421875
0.0003662109375
0.052001953125
-0.062255859375
-0.0062255859375
-0.00439453125
-0.002197265625
-0.0047607421875
0.002197265625
0.0
0.0003662109375
-0.00146484375
-0.0047607421875
0.0
-0.0029296875
0.0
-0.0087890625
0.0010986328125
-0.0128173828125
0.0029296875
-0.0128173828125
0.0084228515625
-0.01171875
0.000732421875
-0.0003662109375
-0.0281982421875
0.0128173828125
-0.02783203125
0.015380859375
-0.01025390625
0.00732421875
0.0029296875
0.0040283203125
0.0040283203125
0.0018310546875
0.00439453125
-0.0018310546875
0.0087890625
0.00146484375
0.0029296875
0.0018310546875
-0.0025634765625
0.00146484375
-0.0029296875
0.0029296875
0.0032958984375
-0.0003662109375
0.0032958984375
0.00146484375
0.02490234375
0.0032958984375
0.0311279296875
0.002197265625
0.01318359375
0.00146484375
0.009521484375
-0.0003662109375
0.02490234375
-0.0029296875
0.0355224609375
-0.000732421875
0.010986328125
0.0029296875
0.006591796875
0.0032958984375
0.0106201171875
-0.0018310546875
-0.0047607421875
-0.00732421875
-0.00146484375
-0.003662109375
0.0069580078125
-0.0029296875
0.0025634765625
0.00146484375
-0.006591796875
0.003662109375
-0.0135498046875
-0.0355224609375
0.0157470703125
0.010986328125
-0.0047607421875
0.0377197265625
-0.032958984375
-0.0054931640625
-0.0062255859375
0.002197265625
-0.00732421875
0.00146484375
-0.0113525390625
0.0
-0.0047607421875
-0.0069580078125
-0.013916015625
-0.0062255859375
-0.024169921875
-0.0047607421875
-0.034423828125
-0.010986328125
-0.0230712890625
-0.01025390625
-0.0029296875
-0.005859375
-0.000732421875
-0.0018310546875
0.0010986328125
0.0084228515625
-0.0087890625
0.016845703125
-0.009521484375
0.009521484375
-0.0084228515625
0.0010986328125
-0.003662109375
-0.0003662109375
0.0003662109375
-0.000732421875
-0.009521484375
0.0
-0.0091552734375
-0.000732421875
-0.010986328125
-0.000732421875
-0.0069580078125
-0.0010986328125
-0.0003662109375
-0.003662109375
-0.0029296875
-0.005126953125
-0.0018310546875
-0.00439453125
-0.002197265625
-0.0029296875
-0.0054931640625
0.0010986328125
0.0
0.003662109375
0.0003662109375
0.0010986328125
-0.00146484375
-0.0032958984375
0.0047607421875
0.00146484375
0.00146484375
0.0025634765625
0.005126953125
-0.0010986328125
0.0032958984375
-0.0010986328125
0.0018310546875
0.0
-0.000732421875
-0.008056640625
0.0018310546875
-0.00439453125
0.0135498046875
0.003662109375
0.009521484375
0.002197265625
0.00146484375
0.00146484375
-0.0025634765625
-0.0087890625
-0.0054931640625
0.0135498046875
0.0084228515625
0.0142822265625
0.009521484375
-0.0087890625
-0.005859375
-0.003662109375
-0.0025634765625
-0.0018310546875
0.0025634765625
0.0
-0.00146484375
0.0003662109375
0.000732421875
-0.0025634765625
0.005859375
-0.006591796875
0.0040283203125
-0.0084228515625
0.0047607421875
-0.0113525390625
0.005126953125
-0.012451171875
0.0098876953125
-0.003662109375
0.0084228515625
0.005859375
0.0076904296875
0.012451171875
-0.00146484375
0.01318359375
-0.006591796875
0.006591796875
-0.0025634765625
0.00146484375
-0.00146484375
0.002197265625
0.002197265625
0.0054931640625
0.002197265625
0.0047607421875
0.003662109375
0.002197265625
0.0010986328125
0.0010986328125
0.006591796875
0.0010986328125
0.01025390625
0.0025634765625
0.0091552734375
0.0029296875
0.005126953125
0.00146484375
-0.0010986328125
-0.000732421875
0.006591796875
-0.0003662109375
0.0296630859375
0.002197265625
0.0435791015625
0.005126953125
0.0465087890625
0.0018310546875
0.035888671875
-0.0010986328125
0.00439453125
0.00146484375
-0.0054931640625
-0.000732421875
-0.0003662109375
-0.0032958984375
-0.002197265625
0.0003662109375
-0.006591796875
-0.0029296875
-0.0084228515625
0.000732421875
0.0018310546875
0.006591796875
0.0010986328125
0.0069580078125
-0.01025390625
0.003662109375
-0.01025390625
-0.013916015625
-0.018310546875
0.0157470703125
-0.01611328125
0.0120849609375
0.005126953125
-0.0157470703125
0.0146484375
-0.00146484375
0.0150146484375
-0.0010986328125
0.0062255859375
0.0010986328125
-0.0032958984375
-0.0010986328125
-0.002197265625
-0.0029296875
-0.0040283203125
-0.008056640625
-0.0069580078125
-0.010986328125
-0.0029296875
-0.009521484375
-0.00146484375
-0.012451171875
-0.005859375
-0.0087890625
-0.028564453125
-0.0003662109375
-0.0289306640625
0.0084228515625
-0.012451171875
0.0150146484375
-0.012451171875
0.0120849609375
-0.01025390625
0.002197265625
-0.0098876953125
-0.0018310546875
-0.002197265625
0.0003662109375
-0.0025634765625
0.000732421875
-0.005126953125
-0.0003662109375
-0.003662109375
-0.0025634765625
-0.002197265625
-0.0018310546875
0.00146484375
0.000732421875
0.0003662109375
-0.0003662109375
-0.00146484375
-0.00439453125
-0.002197265625
-0.0010986328125
0.000732421875
-0.0010986328125
-0.00146484375
-0.0029296875
-0.0003662109375
0.0
0.0003662109375
-0.0029296875
-0.0047607421875
-0.0010986328125
-0.024169921875
-0.0018310546875
-0.037353515625
-0.005126953125
-0.00146484375
-0.000732421875
0.0128173828125
0.000732421875
0.00146484375
0.000732421875
-0.006591796875
-0.0062255859375
-0.0047607421875
-0.0377197265625
0.0611572265625
0.0106201171875
-0.0032958984375
0.038818359375
-0.063720703125
0.002197265625
-0.003662109375
0.0032958984375
0.0032958984375
-0.0018310546875
-0.0018310546875
-0.0032958984375
0.0003662109375
-0.003662109375
0.00439453125
-0.0018310546875
0.002197265625
-0.0025634765625
0.005126953125
-0.008056640625
0.005859375
-0.0113525390625
0.0076904296875
-0.005126953125
0.00732421875
0.0018310546875
0.00439453125
0.010986328125
-0.0025634765625
0.012451171875
-0.002197265625
0.00732421875
-0.0047607421875
0.00732421875
-0.0054931640625
0.002197265625
0.0032958984375
0.0029296875
0.0
0.0029296875
0.0010986328125
0.002197265625
-0.0003662109375
0.003662109375
0.0003662109375
0.002197265625
0.005126953125
0.002197265625
-0.0010986328125
0.002197265625
-0.0025634765625
0.006591796875
-0.002197265625
0.0084228515625
0.0003662109375
0.0029296875
-0.0010986328125
-0.0025634765625
0.0029296875
-0.0032958984375
0.0029296875
-0.00146484375
0.0
0.0003662109375
0.0029296875
-0.002197265625
0.0
-0.0032958984375
0.0025634765625
-0.0029296875
-0.0025634765625
0.0
-0.008056640625
-0.0029296875
0.0098876953125
-0.0029296875
0.01171875
0.000732421875
0.0003662109375
0.0003662109375
-0.000732421875
0.0047607421875
-0.012451171875
-0.0391845703125
0.0380859375
0.0069580078125
0.00732421875
0.041015625
-0.041748046875
-0.009521484375
0.00146484375
-0.0018310546875
-0.002197265625
0.0010986328125
-0.002197265625
0.0
0.00146484375
-0.002197265625
-0.0003662109375
-0.0025634765625
0.0032958984375
-0.005859375
0.0032958984375
-0.0106201171875
0.00146484375
-0.0135498046875
0.005126953125
-0.01025390625
0.0091552734375
-0.0025634765625
0.0076904296875
0.008056640625
-0.0003662109375
0.0120849609375
-0.005859375
0.008056640625
-0.0032958984375
0.00146484375
0.0
-0.0025634765625
0.0
-0.00146484375
0.0040283203125
-0.0025634765625
0.0047607421875
-0.0029296875
0.005126953125
-0.003662109375
0.0054931640625
-0.0047607421875
0.005859375
-0.0047607421875
0.01025390625
-0.0018310546875
0.00439453125
-0.0003662109375
0.0029296875
-0.000732421875
0.000732421875
-0.00146484375
0.0032958984375
-0.00146484375
0.0032958984375
0.003662109375
-0.0018310546875
0.003662109375
-0.002197265625
-0.00146484375
-0.000732421875
-0.0018310546875
0.0150146484375
0.0032958984375
0.0274658203125
0.005126953125
0.021240234375
0.0010986328125
0.00439453125
-0.0032958984375
0.0318603515625
-0.0025634765625
0.0281982421875
0.002197265625
-0.00146484375
0.00439453125
-0.0003662109375
0.006591796875
-0.0186767578125
-0.0281982421875
0.0113525390625
0.0087890625
-0.00146484375
0.03076171875
-0.0238037109375
-0.01318359375
-0.0018310546875
-0.0029296875
-0.0062255859375
-0.0029296875
-0.003662109375
-0.0010986328125
-0.006591796875
0.003662109375
-0.00439453125
-0.0029296875
-0.006591796875
-0.005126953125
-0.0029296875
-0.0076904296875
0.000732421875
-0.0128173828125
0.000732421875
-0.0076904296875
0.0018310546875
-0.000732421875
-0.002197265625
0.0098876953125
-0.0032958984375
0.0172119140625
-0.0106201171875
0.009521484375
-0.0128173828125
-0.002197265625
-0.009521484375
0.0003662109375
-0.0029296875
0.0003662109375
-0.000732421875
0.0018310546875
-0.0018310546875
0.005126953125
-0.000732421875
-0.0029296875
-0.0018310546875
-0.0003662109375
-0.0040283203125
0.0025634765625
-0.0047607421875
-0.000732421875
0.0003662109375
-0.005126953125
-0.0025634765625
-0.0029296875
-0.0018310546875
0.002197265625
-0.000732421875
-0.0003662109375
-0.000732421875
-0.00146484375
-0.002197265625
-0.0025634765625
-0.00732421875
-0.0018310546875
-0.0010986328125
-0.003662109375
-0.00732421875
-0.008056640625
0.000732421875
-0.0018310546875
0.009521484375
0.00146484375
0.00146484375
0.00146484375
-0.00439453125
0.006591796875
-0.0076904296875
-0.0545654296875
0.050537109375
-0.0025634765625
-0.00439453125
0.052734375
-0.05712890625
-0.0025634765625
-0.00732421875
0.00439453125
-0.005859375
0.000732421875
0.0010986328125
-0.005126953125
0.0010986328125
-0.003662109375
-0.0032958984375
-0.0010986328125
-0.0018310546875
-0.0025634765625
0.0047607421875
-0.009521484375
0.0029296875
-0.0128173828125
0.0069580078125
-0.0076904296875
0.00439453125
0.002197265625
-0.000732421875
0.0113525390625
-0.00146484375
0.0135498046875
-0.00439453125
0.010986328125
-0.0003662109375
0.0076904296875
0.002197265625
0.0025634765625
0.005126953125
0.000732421875
0.005859375
0.00146484375
0.0076904296875
0.0
0.0069580078125
-0.00146484375
0.01025390625
-0.000732421875
0.013916015625
0.0010986328125
0.009521484375
0.0018310546875
0.0047607421875
0.0003662109375
-0.0029296875
0.0003662109375
-0.00146484375
0.0029296875
0.0384521484375
0.00146484375
0.0406494140625
0.00146484375
0.00732421875
0.0010986328125
0.01904296875
0.00146484375
0.0157470703125
0.0025634765625
-0.0087890625
-0.00732421875
-0.003662109375
-0.00732421875
0.0029296875
-0.0018310546875
0.003662109375
0.0010986328125
-0.00439453125
0.0040283203125
-0.0230712890625
-0.035888671875
0.0128173828125
0.009521484375
-0.0047607421875
0.0362548828125
-0.0311279296875
-0.0091552734375
-0.0087890625
0.0003662109375
-0.012451171875
-0.0018310546875
-0.01318359375
0.0003662109375
-0.0146484375
-0.002197265625
-0.015380859375
-0.002197265625
-0.012451171875
-0.005126953125
-0.003662109375
-0.01171875
-0.002197265625
-0.012451171875
-0.0032958984375
-0.01025390625
-0.0032958984375
-0.00146484375
0.0003662109375
0.00732421875
-0.0054931640625
0.0128173828125
-0.01025390625
0.005859375
-0.0054931640625
0.002197265625
-0.005859375
0.0025634765625
-0.000732421875
-0.0003662109375
-0.000732421875
0.0003662109375
-0.00146484375
0.0003662109375
-0.0003662109375
0.0018310546875
-0.0010986328125
0.0010986328125
-0.00146484375
-0.00146484375
-0.002197265625
0.0010986328125
0.0010986328125
0.0003662109375
-0.00146484375
-0.002197265625
0.00146484375
0.0
0.0025634765625
-0.0003662109375
-0.000732421875
0.000732421875
-0.0010986328125
0.0003662109375
0.003662109375
-0.00146484375
0.0054931640625
0.0010986328125
0.01318359375
0.0025634765625
0.02197265625
0.0
0.03076171875
0.0032958984375
0.0263671875
-0.0010986328125
0.0040283203125
-0.003662109375
0.0069580078125
0.00146484375
0.005859375
0.0018310546875
-0.005859375
0.00146484375
-0.002197265625
-0.016845703125
-0.0029296875
0.0091552734375
-0.003662109375
0.0186767578125
0.000732421875
-0.0062255859375
-0.0084228515625
0.0
-0.01025390625
-0.002197265625
-0.0029296875
0.0
-0.0069580078125
-0.0010986328125
-0.00732421875
-0.0029296875
-0.000732421875
-0.005126953125
-0.00146484375
-0.01171875
0.0
-0.012451171875
-0.0025634765625
-0.0106201171875
-0.0032958984375
-0.000732421875
0.00146484375
0.0084228515625
-0.00146484375
0.009521484375
-0.01171875
0.012451171875
-0.0172119140625
0.0087890625
-0.0091552734375
0.00439453125
-0.0069580078125
0.00439453125
-0.005126953125
0.0018310546875
-0.0047607421875
0.003662109375
-0.003662109375
0.0003662109375
-0.0003662109375
-0.0025634765625
-0.00439453125
0.000732421875
-0.005859375
-0.0010986328125
-0.003662109375
0.0010986328125
-0.00439453125
0.000732421875
-0.0054931640625
-0.0010986328125
-0.00146484375
0.0
-0.002197265625
0.0003662109375
-0.0025634765625
-0.0018310546875
0.0
-0.0003662109375
-0.003662109375
0.0010986328125
-0.0010986328125
-0.0025634765625
-0.0025634765625
0.0
-0.0087890625
0.00439453125
-0.01171875
-0.00146484375
-0.00146484375
-0.00146484375
0.005859375
0.0003662109375
0.0
0.0029296875
-0.00439453125
0.0047607421875
-0.006591796875
-0.0106201171875
-0.013916015625
0.0128173828125
0.0029296875
0.01025390625
0.0146484375
-0.01025390625
-0.0054931640625
0.0
-0.003662109375
-0.0025634765625
-0.00146484375
0.0
-0.0274658203125
-0.0018310546875
-0.02783203125
-0.0025634765625
-0.003662109375
-0.002197265625
0.0
-0.0098876953125
0.0025634765625
-0.0146484375
0.005859375
-0.010986328125
0.010986328125
-0.0076904296875
0.0098876953125
0.003662109375
0.0047607421875
0.0135498046875
0.0
0.0120849609375
-0.0010986328125
0.0076904296875
0.0003662109375
0.0032958984375
0.0029296875
0.0025634765625
0.005126953125
0.0018310546875
0.0040283203125
0.0010986328125
0.0062255859375
-0.0025634765625
0.0047607421875
-0.002197265625
0.00439453125
0.0
0.005126953125
0.0025634765625
0.0062255859375
0.0029296875
0.009521484375
0.0010986328125
0.01318359375
0.000732421875
0.01904296875
-0.002197265625
0.0318603515625
-0.0010986328125
0.0260009765625
0.000732421875
0.0069580078125
0.0
0.0040283203125
-0.000732421875
0.0003662109375
-0.0003662109375
-0.0029296875
0.000732421875
-0.0040283203125
0.00146484375
-0.0010986328125
0.0010986328125
-0.0025634765625
-0.0062255859375
-0.00439453125
-0.0047607421875
0.005859375
-0.000732421875
0.0084228515625
0.0025634765625
-0.0025634765625
0.0040283203125
-0.000732421875
-0.012451171875
-0.0076904296875
0.01611328125
-0.0087890625
0.0146484375
0.0076904296875
-0.0150146484375
0.000732421875
-0.0003662109375
0.0018310546875
0.002197265625
0.0098876953125
0.0003662109375
0.0040283203125
0.0010986328125
0.002197265625
-0.0003662109375
-0.000732421875
-0.003662109375
-0.0025634765625
-0.0091552734375
-0.0018310546875
-0.010986328125
0.0
-0.006591796875
0.0106201171875
-0.005126953125
0.0113525390625
0.0025634765625
0.0
0.013916015625
-0.0106201171875
0.012451171875
-0.0106201171875
0.005126953125
-0.006591796875
-0.0003662109375
-0.0047607421875
-0.000732421875
0.0069580078125
0.0010986328125
0.008056640625
0.000732421875
-0.0018310546875
-0.0010986328125
-0.0010986328125
0.0018310546875
-0.00146484375
0.0029296875
-0.00732421875
-0.0003662109375
-0.0047607421875
-0.0003662109375
-0.002197265625
-0.00146484375
-0.006591796875
0.0
-0.0032958984375
0.0010986328125
-0.0018310546875
-0.0010986328125
-0.006591796875
-0.0003662109375
-0.005859375
0.0003662109375
-0.00146484375
0.0018310546875
-0.0029296875
0.000732421875
-0.0120849609375
-0.0062255859375
-0.00439453125
-0.0029296875
0.0069580078125
-0.0010986328125
0.0029296875
0.0010986328125
-0.0040283203125
0.00732421875
-0.01318359375
-0.0230712890625
-0.000732421875
0.006591796875
0.0040283203125
0.025634765625
-0.0054931640625
-0.0076904296875
-0.0047607421875
0.000732421875
-0.006591796875
0.000732421875
-0.006591796875
-0.003662109375
-0.000732421875
-0.00439453125
-0.000732421875
-0.0010986328125
-0.0025634765625
-0.0018310546875
0.0003662109375
-0.0098876953125
0.0
-0.01171875
-0.0003662109375
-0.0054931640625
0.0032958984375
-0.0010986328125
0.005126953125
0.0054931640625
-0.0069580078125
0.012451171875
-0.0084228515625
0.0084228515625
-0.0040283203125
0.000732421875
-0.00439453125
-0.0003662109375
-0.0018310546875
-0.000732421875
-0.000732421875
0.002197265625
-0.0029296875
0.0018310546875
-0.0025634765625
0.00146484375
0.0010986328125
0.00146484375
-0.0003662109375
-0.000732421875
-0.0010986328125
-0.0018310546875
-0.0032958984375
-0.003662109375
-0.0032958984375
-0.0010986328125
-0.0032958984375
0.0029296875
-0.0032958984375
0.000732421875
-0.0003662109375
-0.000732421875
-0.0029296875
-0.0010986328125
0.0
-0.0018310546875
-0.005859375
-0.0029296875
-0.0084228515625
-0.0040283203125
-0.0025634765625
-0.0003662109375
-0.0029296875
0.003662109375
-0.002197265625
-0.0054931640625
0.0032958984375
-0.005859375
0.008056640625
0.00146484375
0.005126953125
0.0029296875
-0.00146484375
0.006591796875
-0.006591796875
-0.0069580078125
-0.0223388671875
0.0157470703125
0.0029296875
0.0098876953125
0.0263671875
-0.0135498046875
-0.0018310546875
0.0
-0.006591796875
0.000732421875
0.0003662109375
0.002197265625
0.000732421875
-0.0010986328125
-0.000732421875
-0.0010986328125
0.005859375
-0.0047607421875
0.005859375
-0.0062255859375
0.00146484375
-0.00732421875
0.0047607421875
-0.0091552734375
0.0054931640625
-0.008056640625
0.00439453125
0.006591796875
-0.0003662109375
0.018310546875
-0.005859375
0.009521484375
-0.005126953125
0.005126953125
0.0003662109375
0.0025634765625
0.0
-0.000732421875
0.0010986328125
0.0018310546875
0.0029296875
0.00146484375
-0.0010986328125
0.000732421875
0.000732421875
0.000732421875
0.0032958984375
-0.000732421875
0.0025634765625
-0.0018310546875
0.0003662109375
-0.0003662109375
0.002197265625
0.002197265625
0.0018310546875
0.00146484375
0.0
-0.000732421875
0.0003662109375
-0.0025634765625
0.0018310546875
-0.00146484375
0.002197265625
0.0003662109375
-0.00146484375
-0.00146484375
0.0025634765625
0.000732421875
0.0018310546875
0.00146484375
-0.000732421875
0.0018310546875
-0.0047607421875
-0.0047607421875
0.00732421875
-0.0047607421875
0.0106201171875
0.0018310546875
0.00146484375
0.0029296875
0.0
0.0062255859375
-0.01025390625
-0.008056640625
-0.0179443359375
0.0128173828125
0.006591796875
0.0120849609375
0.01904296875
-0.010986328125
-0.0040283203125
-0.0010986328125
-0.0032958984375
-0.002197265625
0.0003662109375
-0.0003662109375
-0.00146484375
0.002197265625
0.0
-0.0025634765625
0.0040283203125
-0.005859375
0.00732421875
-0.00732421875
0.0087890625
-0.0106201171875
0.0087890625
-0.0087890625
0.005126953125
-0.003662109375
0.0098876953125
0.00732421875
0.0084228515625
0.0146484375
-0.005859375
0.010986328125
-0.006591796875
0.0032958984375
-0.003662109375
0.0010986328125
-0.0025634765625
0.0
0.0025634765625
0.00146484375
0.005859375
0.0040283203125
0.003662109375
-0.0010986328125
0.000732421875
0.0
0.0018310546875
0.0
0.003662109375
-0.0047607421875
0.0047607421875
-0.002197265625
0.0018310546875
0.000732421875
-0.0018310546875
0.00146484375
-0.0025634765625
-0.00146484375
0.0032958984375
-0.000732421875
0.002197265625
0.0
-0.0010986328125
-0.0010986328125
0.000732421875
-0.0010986328125
0.000732421875
-0.002197265625
-0.00146484375
0.000732421875
-0.00146484375
0.0010986328125
0.0018310546875
0.002197265625
0.0018310546875
-0.003662109375
-0.0032958984375
-0.005859375
0.0040283203125
-0.000732421875
0.0062255859375
0.0003662109375
-0.005859375
0.0047607421875
-0.008056640625
-0.0025634765625
-0.0391845703125
0.0238037109375
-0.0157470703125
0.00732421875
0.03515625
-0.0238037109375
0.01318359375
0.0
-0.0010986328125
0.0010986328125
-0.0003662109375
0.0
-0.005126953125
0.0
-0.0010986328125
-0.0029296875
0.002197265625
-0.0054931640625
0.00146484375
-0.0076904296875
-0.000732421875
-0.0091552734375
0.00439453125
-0.0113525390625
0.005859375
-0.0069580078125
0.0029296875
0.0076904296875
-0.0018310546875
0.0146484375
-0.010986328125
0.01171875
-0.0084228515625
0.0054931640625
-0.0047607421875
0.0010986328125
-0.0029296875
0.0
0.0003662109375
0.0
-0.0010986328125
0.003662109375
-0.0025634765625
0.00146484375
-0.0018310546875
-0.002197265625
-0.005859375
0.0003662109375
-0.0040283203125
-0.002197265625
0.000732421875
-0.0018310546875
-0.0010986328125
0.0010986328125
-0.0003662109375
0.0010986328125
0.000732421875
-0.0003662109375
-0.000732421875
-0.0018310546875
-0.0018310546875
0.0003662109375
-0.003662109375
0.0010986328125
-0.000732421875
0.0018310546875
0.0003662109375
0.00146484375
-0.00146484375
-0.0003662109375
-0.009521484375
-0.003662109375
0.0025634765625
-0.0010986328125
0.0150146484375
0.0025634765625
0.002197265625
0.000732421875
-0.00146484375
-0.0003662109375
-0.003662109375
-0.041015625
0.0487060546875
0.0069580078125
0.000732421875
0.043212890625
-0.0545654296875
-0.00146484375
-0.006591796875
0.0010986328125
-0.0029296875
-0.0010986328125
-0.0010986328125
0.0010986328125
-0.00146484375
-0.00146484375
0.0032958984375
-0.00439453125
0.00146484375
-0.005126953125
-0.000732421875
-0.010986328125
0.002197265625
-0.0106201171875
-0.0025634765625
-0.0062255859375
-0.0018310546875
-0.002197265625
0.0040283203125
0.0098876953125
-0.0010986328125
0.0135498046875
-0.006591796875
0.0069580078125
-0.0010986328125
0.0010986328125
0.000732421875
-0.0010986328125
-0.0003662109375
0.0029296875
0.0029296875
0.0010986328125
0.0040283203125
0.0
0.0029296875
0.0
0.0018310546875
-0.0018310546875
0.002197265625
0.00146484375
0.005126953125
0.0018310546875
0.0084228515625
0.0003662109375
0.0054931640625
0.00146484375
0.0032958984375
-0.002197265625
0.0010986328125
-0.0040283203125
-0.0003662109375
0.000732421875
0.008056640625
-0.00146484375
0.0069580078125
0.000732421875
0.002197265625
0.0003662109375
0.000732421875
-0.002197265625
0.000732421875
0.003662109375
0.003662109375
0.00146484375
0.005859375
-0.00146484375
-0.000732421875
-0.00146484375
-0.0087890625
-0.003662109375
0.006591796875
0.0
0.008056640625
0.0029296875
0.0025634765625
0.000732421875
0.000732421875
-0.003662109375
-0.003662109375
-0.0216064453125
0.0157470703125
0.01025390625
0.0003662109375
0.0281982421875
-0.0201416015625
-0.0047607421875
-0.006591796875
-0.00146484375
-0.0010986328125
0.00146484375
-0.00146484375
-0.0025634765625
0.00146484375
-0.0032958984375
0.0010986328125
-0.002197265625
0.0
-0.0029296875
0.0032958984375
-0.0113525390625
0.0010986328125
-0.013916015625
0.003662109375
-0.0084228515625
0.00439453125
0.000732421875
0.003662109375
0.01025390625
-0.003662109375
0.013916015625
-0.0084228515625
0.00732421875
-0.008056640625
0.0029296875
-0.0047607421875
0.002197265625
0.0
-0.0003662109375
-0.0029296875
-0.0010986328125
0.000732421875
-0.0010986328125
-0.0025634765625
-0.00146484375
-0.0025634765625
-0.0010986328125
0.0010986328125
0.00146484375
-0.0032958984375
-0.0003662109375
-0.0025634765625
0.0
-0.0003662109375
0.0
0.0
0.00146484375
-0.00146484375
0.0018310546875
-0.00146484375
-0.00146484375
-0.0025634765625
0.00146484375
0.0
0.002197265625
0.0025634765625
-0.0010986328125
-0.0032958984375
-0.0010986328125
-0.0150146484375
-0.005859375
0.00146484375
-0.0032958984375
0.01611328125
0.0018310546875
0.0010986328125
0.0003662109375
-0.0029296875
-0.0025634765625
-0.0010986328125
-0.0325927734375
0.044677734375
0.0025634765625
-0.0010986328125
0.031494140625
-0.052001953125
0.0032958984375
-0.005126953125
0.00146484375
-0.00146484375
-0.00146484375
-0.0040283203125
-0.0029296875
-0.005859375
-0.002197265625
-0.0010986328125
-0.005126953125
0.0047607421875
-0.01025390625
0.0025634765625
-0.009521484375
0.00439453125
-0.013916015625
0.002197265625
-0.006591796875
-0.0029296875
0.0025634765625
-0.0018310546875
0.0098876953125
-0.00439453125
0.0146484375
-0.0084228515625
0.0054931640625
-0.0032958984375
0.002197265625
-0.002197265625
0.00146484375
-0.0040283203125
0.0003662109375
0.00146484375
0.0029296875
0.0032958984375
0.0025634765625
0.00146484375
-0.0047607421875
0.0003662109375
-0.0018310546875
0.000732421875
-0.002197265625
0.0003662109375
-0.0029296875
0.003662109375
0.0032958984375
0.005859375
0.00146484375
0.000732421875
-0.0010986328125
-0.0010986328125
0.0047607421875
0.0010986328125
0.0032958984375
0.0040283203125
-0.0018310546875
0.0029296875
-0.0025634765625
0.006591796875
-0.00146484375
0.006591796875
0.0003662109375
0.002197265625
-0.0032958984375
0.0076904296875
-0.0003662109375
-0.0010986328125
-0.00146484375
-0.005859375
-0.00732421875
0.0084228515625
-0.0040283203125
0.01171875
0.0003662109375
0.005859375
0.000732421875
0.0018310546875
0.0018310546875
-0.00439453125
-0.0340576171875
0.0230712890625
0.0040283203125
0.0047607421875
0.0355224609375
-0.0238037109375
-0.0029296875
-0.002197265625
0.0029296875
-0.0018310546875
0.003662109375
0.000732421875
0.0018310546875
0.00146484375
-0.0010986328125
-0.000732421875
-0.0025634765625
0.00146484375
-0.0032958984375
0.0062255859375
-0.005859375
0.012451171875
-0.0084228515625
0.0106201171875
-0.01025390625
0.0029296875
-0.0032958984375
0.0
0.01025390625
-0.008056640625
0.015380859375
-0.0091552734375
0.0076904296875
-0.006591796875
0.003662109375
-0.0054931640625
0.005126953125
0.0003662109375
0.0032958984375
0.0032958984375
-0.003662109375
-0.0003662109375
0.0010986328125
-0.00146484375
0.0054931640625
-0.0047607421875
-0.0018310546875
-0.0091552734375
-0.0010986328125
-0.0047607421875
-0.0032958984375
-0.0029296875
-0.0018310546875
-0.0003662109375
0.000732421875
-0.0010986328125
0.00146484375
-0.0029296875
0.00146484375
-0.000732421875
-0.00146484375
-0.0003662109375
0.000732421875
-0.00439453125
0.000732421875
-0.002197265625
0.000732421875
0.0003662109375
0.00146484375
-0.006591796875
-0.005859375
-0.0106201171875
-0.0062255859375
0.0047607421875
0.00439453125
0.01025390625
0.005126953125
-0.0047607421875
0.0018310546875
-0.005859375
-0.010986328125
-0.00732421875
0.006591796875
0.005859375
0.0128173828125
0.000732421875
-0.003662109375
-0.013916015625
0.0029296875
-0.003662109375
-0.0003662109375
-0.0029296875
0.0010986328125
-0.002197265625
0.00146484375
-0.0018310546875
0.000732421875
-0.0018310546875
-0.0029296875
-0.0010986328125
-0.0076904296875
0.0010986328125
-0.008056640625
0.0003662109375
-0.0106201171875
0.0029296875
-0.0062255859375
0.0047607421875
0.0032958984375
-0.0010986328125
0.0062255859375
-0.006591796875
0.0084228515625
-0.0076904296875
0.005126953125
-0.002197265625
0.0010986328125
0.000732421875
0.0
0.0
-0.002197265625
0.0032958984375
-0.0025634765625
0.005126953125
-0.005859375
0.0018310546875
-0.0018310546875
-0.0029296875
-0.0010986328125
-0.005859375
-0.003662109375
-0.0054931640625
-0.0003662109375
-0.0076904296875
0.0010986328125
-0.0062255859375
0.0018310546875
-0.0029296875
0.0010986328125
-0.0003662109375
0.00146484375
0.0003662109375
0.0025634765625
0.002197265625
0.0010986328125
0.005859375
0.000732421875
0.002197265625
0.0
-0.0010986328125
0.0
-0.0029296875
0.0003662109375
0.0018310546875
0.0040283203125
-0.0025634765625
-0.0040283203125
0.0062255859375
-0.0062255859375
0.012451171875
0.005126953125
0.0010986328125
0.0054931640625
0.0003662109375
0.0018310546875
-0.0106201171875
-0.0146484375
-0.00146484375
0.0135498046875
0.0069580078125
0.0172119140625
-0.0003662109375
-0.010986328125
-0.0025634765625
0.003662109375
0.002197265625
0.00146484375
0.005859375
-0.005126953125
-0.00146484375
-0.0018310546875
-0.0032958984375
-0.0003662109375
0.0010986328125
-0.0047607421875
0.005859375
-0.0087890625
0.0040283203125
-0.0106201171875
-0.0025634765625
-0.01025390625
-0.0047607421875
-0.0029296875
0.0025634765625
0.006591796875
0.0029296875
0.0098876953125
-0.00439453125
0.010986328125
-0.0032958984375
0.00732421875
-0.00146484375
0.0032958984375
0.0010986328125
0.002197265625
0.0
0.0
0.0003662109375
0.002197265625
0.0062255859375
0.0025634765625
0.002197265625
-0.0018310546875
0.002197265625
-0.0029296875
0.0025634765625
0.0025634765625
0.0
0.00146484375
0.0
-0.0029296875
0.00146484375
0.000732421875
0.0054931640625
0.000732421875
0.003662109375
-0.0018310546875
0.000732421875
-0.0003662109375
0.0010986328125
0.0
0.002197265625
-0.0025634765625
-0.00146484375
-0.0010986328125
0.002197265625
0.000732421875
0.000732421875
-0.0010986328125
0.0
0.003662109375
-0.0018310546875
-0.0010986328125
-0.002197265625
-0.0040283203125
0.0113525390625
0.0
0.0146484375
0.0032958984375
0.008056640625
0.003662109375
-0.000732421875
-0.01171875
-0.00439453125
0.010986328125
0.00439453125
0.0146484375
0.0054931640625
-0.0069580078125
-0.005859375
-0.0003662109375
-0.0047607421875
0.0003662109375
0.0032958984375
0.0025634765625
0.0076904296875
0.0
0.005859375
-0.0029296875
-0.0003662109375
-0.0054931640625
0.0
-0.005859375
0.005126953125
-0.0062255859375
0.0069580078125
-0.0098876953125
0.0069580078125
-0.008056640625
0.0029296875
-0.0003662109375
-0.0025634765625
0.012451171875
-0.009521484375
0.016845703125
-0.0120849609375
0.0091552734375
-0.006591796875
0.0018310546875
-0.00439453125
-0.0025634765625
-0.0047607421875
-0.003662109375
-0.00146484375
0.0029296875
-0.0003662109375
0.00146484375
-0.0010986328125
-0.002197265625
-0.0010986328125
0.0029296875
-0.0029296875
0.0025634765625
0.000732421875
-0.0010986328125
-0.002197265625
-0.0003662109375
-0.0054931640625
-0.00146484375
0.0010986328125
-0.0029296875
0.002197265625
0.000732421875
0.003662109375
0.00146484375
-0.0018310546875
0.0
-0.0047607421875
-0.000732421875
0.0
0.0003662109375
-0.0018310546875
-0.00146484375
-0.0003662109375
0.0025634765625
-0.006591796875
-0.000732421875
-0.009521484375
-0.006591796875
0.01025390625
-0.000732421875
0.0091552734375
0.0029296875
-0.00439453125
0.003662109375
-0.000732421875
-0.009521484375
-0.0018310546875
-0.02783203125
0.0428466796875
0.0146484375
-0.003662109375
0.03076171875
-0.0582275390625
0.000732421875
-0.0076904296875
0.0
0.000732421875
-0.0032958984375
-0.0018310546875
-0.0032958984375
-0.003662109375
-0.0025634765625
-0.0025634765625
-0.00439453125
0.0010986328125
-0.0062255859375
0.0025634765625
-0.0098876953125
0.000732421875
-0.012451171875
-0.0029296875
-0.0054931640625
-0.000732421875
0.002197265625
0.0032958984375
0.009521484375
-0.00146484375
0.0113525390625
-0.0062255859375
0.0076904296875
-0.0047607421875
0.006591796875
0.0
0.003662109375
0.000732421875
-0.000732421875
0.00146484375
-0.0003662109375
0.0010986328125
0.00146484375
0.0032958984375
-0.0025634765625
0.0029296875
0.0
0.0
0.000732421875
0.002197265625
-0.0040283203125
-0.00146484375
0.002197265625
0.0
0.003662109375
0.0018310546875
-0.0018310546875
0.0025634765625
0.0003662109375
0.000732421875
0.0025634765625
0.0018310546875
-0.0029296875
-0.0010986328125
-0.00146484375
0.0
0.0010986328125
0.0040283203125
0.0003662109375
-0.0003662109375
0.002197265625
0.002197265625
-0.0025634765625
-0.0029296875
-0.0047607421875
0.00439453125
0.0003662109375
0.009521484375
0.0003662109375
0.00439453125
0.00146484375
0.0018310546875
-0.0025634765625
-0.0025634765625
-0.0054931640625
-0.0216064453125
0.0238037109375
-0.005859375
0.0098876953125
0.0230712890625
-0.0186767578125
0.005859375
-0.0029296875
0.0003662109375
-0.0003662109375
0.000732421875
-0.0029296875
-0.0018310546875
-0.0003662109375
0.0054931640625
0.000732421875
0.01171875
-0.0047607421875
0.0087890625
-0.0076904296875
0.0062255859375
-0.010986328125
0.0076904296875
-0.01171875
0.0069580078125
-0.0076904296875
0.0054931640625
0.003662109375
-0.0010986328125
0.012451171875
-0.0098876953125
0.0091552734375
-0.01025390625
0.0069580078125
-0.0084228515625
0.0040283203125
-0.00146484375
0.0010986328125
0.0040283203125
-0.0010986328125
0.000732421875
0.0018310546875
0.0010986328125
0.0003662109375
0.0
-0.000732421875
-0.002197265625
-0.00146484375
0.0003662109375
-0.0003662109375
0.000732421875
0.0029296875
-0.00439453125
0.0
-0.0025634765625
0.000732421875
-0.00146484375
0.00146484375
-0.00146484375
0.00146484375
0.00146484375
0.00146484375
-0.0032958984375
0.000732421875
-0.002197265625
-0.0003662109375
-0.00146484375
0.00146484375
-0.002197265625
-0.0025634765625
-0.00732421875
-0.0069580078125
0.0032958984375
0.0003662109375
0.012451171875
0.005859375
-0.0018310546875
0.0029296875
-0.005859375
-0.013916015625
-0.0087890625
0.0069580078125
-0.0003662109375
0.0128173828125
0.0040283203125
-0.00439453125
-0.0062255859375
0.0018310546875
-0.0069580078125
0.0
-0.00439453125
0.002197265625
-0.000732421875
0.000732421875
-0.002197265625
-0.005126953125
-0.003662109375
-0.0047607421875
0.0
-0.0040283203125
0.0003662109375
-0.01318359375
0.0
-0.0128173828125
0.0003662109375
-0.0032958984375
0.0
0.0040283203125
0.0
0.01025390625
-0.0029296875
0.0128173828125
-0.0047607421875
0.0091552734375
-0.002197265625
0.0003662109375
-0.0054931640625
-0.0010986328125
-0.002197265625
0.000732421875
0.0003662109375
-0.0003662109375
0.002197265625
0.00146484375
0.0062255859375
0.0003662109375
-0.00146484375
-0.0010986328125
-0.00146484375
-0.00146484375
0.00146484375
0.002197265625
0.000732421875
0.003662109375
0.0
0.0010986328125
-0.000732421875
-0.003662109375
0.0003662109375
-0.0010986328125
0.0025634765625
0.002197265625
0.00146484375
0.0
0.0003662109375
0.0003662109375
-0.0003662109375
0.00146484375
0.0
0.0010986328125
0.000732421875
-0.0018310546875
0.0
0.002197265625
-0.002197265625
-0.00439453125
0.0087890625
-0.005126953125
0.0062255859375
0.0010986328125
-0.005859375
0.0018310546875
-0.005859375
0.0047607421875
-0.0142822265625
-0.016845703125
-0.0062255859375
0.0150146484375
0.0025634765625
0.018310546875
-0.00439453125
-0.0164794921875
-0.005859375
0.0003662109375
0.0
0.00146484375
0.0
0.0
0.0018310546875
0.002197265625
0.002197265625
-0.0025634765625
-0.0003662109375
-0.0091552734375
0.003662109375
-0.0087890625
0.01025390625
-0.0091552734375
0.0106201171875
-0.008056640625
0.008056640625
-0.003662109375
0.0098876953125
0.0054931640625
0.0010986328125
0.018310546875
0.0018310546875
0.010986328125
0.0010986328125
0.002197265625
-0.0018310546875
0.005126953125
0.002197265625
0.0
0.0029296875
-0.0018310546875
0.0054931640625
0.002197265625
0.0010986328125
0.0010986328125
0.000732421875
-0.0003662109375
0.0003662109375
0.0029296875
0.0032958984375
-0.0010986328125
0.0032958984375
-0.0032958984375
0.0018310546875
0.00146484375
0.005126953125
-0.0010986328125
0.0025634765625
0.00146484375
0.0010986328125
-0.000732421875
-0.0010986328125
-0.00146484375
0.002197265625
0.00146484375
0.0029296875
0.000732421875
0.0003662109375
-0.000732421875
-0.0018310546875
-0.00146484375
-0.0029296875
0.0025634765625
-0.0040283203125
-0.000732421875
-0.0047607421875
-0.005126953125
0.0076904296875
-0.0010986328125
0.006591796875
-0.0003662109375
-0.0018310546875
0.0
-0.003662109375
0.0025634765625
-0.0047607421875
-0.0303955078125
0.0120849609375
0.0087890625
-0.00146484375
0.03369140625
-0.0179443359375
-0.0106201171875
-0.005126953125
0.000732421875
0.0003662109375
0.0040283203125
-0.0029296875
-0.0003662109375
-0.003662109375
-0.00146484375
0.0003662109375
-0.0054931640625
-0.0018310546875
-0.00439453125
-0.0010986328125
-0.00732421875
0.002197265625
-0.0084228515625
0.0047607421875
-0.0087890625
0.00146484375
-0.009521484375
-0.0003662109375
0.005859375
-0.00439453125
0.01904296875
-0.0062255859375
0.01171875
-0.0098876953125
0.0010986328125
-0.0069580078125
0.0
0.0018310546875
0.0010986328125
0.000732421875
0.000732421875
0.0
-0.0010986328125
-0.000732421875
0.0025634765625
0.0010986328125
0.0010986328125
-0.0040283203125
-0.005859375
-0.0029296875
0.0003662109375
-0.00146484375
0.00146484375
-0.0047607421875
-0.0018310546875
-0.005859375
0.0010986328125
-0.0032958984375
0.0018310546875
0.0054931640625
-0.0018310546875
0.0040283203125
-0.002197265625
-0.0025634765625
-0.0010986328125
-0.0054931640625
-0.000732421875
-0.0003662109375
-0.002197265625
-0.0091552734375
-0.0047607421875
0.0
0.0003662109375
0.0062255859375
0.003662109375
-0.0029296875
0.0029296875
-0.0018310546875
-0.0069580078125
-0.0025634765625
-0.0318603515625
0.056396484375
0.0106201171875
0.0018310546875
0.0340576171875
-0.0552978515625
-0.0029296875
-0.005126953125
-0.00146484375
-0.0010986328125
0.002197265625
0.005126953125
-0.0003662109375
-0.002197265625
-0.0032958984375
-0.0047607421875
-0.0018310546875
0.0018310546875
-0.00732421875
0.0018310546875
-0.0106201171875
0.00146484375
-0.002197265625
0.005859375
-0.0062255859375
0.0106201171875
-0.0018310546875
0.00439453125
0.009521484375
-0.003662109375
0.0106201171875
-0.0054931640625
0.0040283203125
-0.002197265625
0.003662109375
0.0003662109375
0.0047607421875
0.0018310546875
0.00146484375
0.0025634765625
0.0
0.0054931640625
-0.0040283203125
0.0087890625
-0.00146484375
0.0
0.000732421875
-0.0003662109375
0.000732421875
0.0032958984375
0.0029296875
0.0010986328125
-0.002197265625
0.000732421875
-0.00146484375
0.00146484375
0.002197265625
0.000732421875
-0.00439453125
0.0010986328125
-0.0010986328125
0.0054931640625
0.00146484375
0.002197265625
-0.0010986328125
0.003662109375
-0.0018310546875
0.0040283203125
0.0018310546875
0.00146484375
0.0029296875
0.0047607421875
0.0018310546875
-0.000732421875
-0.0047607421875
-0.000732421875
-0.0062255859375
0.0120849609375
0.0
0.009521484375
0.0029296875
0.0
0.0032958984375
0.0
-0.01171875
0.0025634765625
-0.0146484375
0.031494140625
0.0135498046875
-0.0010986328125
0.0164794921875
-0.031494140625
0.000732421875
-0.0018310546875
0.000732421875
0.0018310546875
0.002197265625
0.0032958984375
-0.000732421875
0.0003662109375
-0.0040283203125
0.0010986328125
-0.00439453125
0.0018310546875
-0.0076904296875
0.0018310546875
-0.01025390625
0.0054931640625
-0.01171875
0.005126953125
-0.005859375
0.0076904296875
0.0
0.0018310546875
0.012451171875
-0.010986328125
0.015380859375
-0.0128173828125
0.0032958984375
-0.0069580078125
0.0029296875
0.0018310546875
0.0029296875
0.0018310546875
-0.0003662109375
-0.000732421875
-0.0010986328125
-0.000732421875
0.000732421875
0.0
0.0025634765625
-0.000732421875
0.00146484375
-0.0018310546875
-0.0040283203125
-0.0029296875
-0.0047607421875
-0.0032958984375
0.002197265625
0.0003662109375
0.0040283203125
-0.000732421875
0.0018310546875
-0.002197265625
-0.0029296875
-0.002197265625
-0.0010986328125
0.00146484375
0.003662109375
-0.00146484375
0.0
-0.000732421875
-0.0018310546875
0.00146484375
0.0003662109375
-0.002197265625
0.0010986328125
-0.0018310546875
-0.000732421875
-0.0098876953125
-0.005859375
0.00439453125
-0.0018310546875
0.005859375
0.002197265625
-0.00439453125
0.0018310546875
-0.00146484375
0.0032958984375
-0.01171875
-0.0054931640625
-0.0245361328125
0.017578125
0.0003662109375
0.0084228515625
0.018310546875
-0.0150146484375
-0.0054931640625
0.0018310546875
-0.005859375
0.0018310546875
-0.0025634765625
-0.0018310546875
-0.002197265625
-0.0003662109375
0.000732421875
-0.003662109375
0.002197265625
-0.0098876953125
0.00146484375
-0.0087890625
-0.003662109375
-0.010986328125
0.0054931640625
-0.01025390625
0.0040283203125
-0.0047607421875
0.0018310546875
0.005859375
0.0010986328125
0.013916015625
-0.005126953125
0.0135498046875
-0.0029296875
0.0040283203125
-0.00439453125
-0.002197265625
-0.0032958984375
-0.00146484375
-0.00146484375
0.00146484375
0.005859375
0.003662109375
0.0040283203125
-0.0010986328125
0.0025634765625
-0.0029296875
0.0032958984375
-0.000732421875
-0.003662109375
0.0025634765625
-0.0010986328125
0.0025634765625
0.002197265625
0.00146484375
0.0018310546875
-0.002197265625
-0.0040283203125
-0.0003662109375
0.0003662109375
0.002197265625
0.0018310546875
0.002197265625
-0.002197265625
0.0025634765625
0.0029296875
0.0010986328125
0.0018310546875
-0.0018310546875
0.0018310546875
-0.0029296875
0.0029296875
0.00146484375
0.0047607421875
0.00146484375
0.0029296875
-0.0029296875
0.0040283203125
0.0
0.0120849609375
0.000732421875
0.0128173828125
0.00439453125
0.00146484375
0.0032958984375
-0.005859375
-0.0098876953125
-0.0150146484375
0.0135498046875
0.002197265625
0.006591796875
0.021240234375
-0.01171875
0.0047607421875
0.002197265625
0.0040283203125
-0.0010986328125
0.000732421875
0.0
-0.005126953125
0.0
0.002197265625
-0.00439453125
0.0032958984375
-0.0047607421875
0.0018310546875
-0.0062255859375
0.002197265625
-0.01171875
0.0029296875
-0.01318359375
0.0069580078125
-0.0087890625
0.0087890625
0.005859375
0.0010986328125
0.0146484375
-0.012451171875
0.0135498046875
-0.0128173828125
0.0098876953125
-0.003662109375
-0.000732421875
0.0010986328125
-0.0025634765625
0.0
0.0018310546875
-0.0029296875
0.00146484375
-0.005126953125
0.000732421875
-0.0047607421875
0.0
-0.0010986328125
-0.0003662109375
0.000732421875
-0.0003662109375
-0.0010986328125
-0.0003662109375
-0.0040283203125
0.000732421875
0.000732421875
0.00146484375
0.0025634765625
0.0025634765625
0.0010986328125
0.00146484375
0.0018310546875
0.0
0.0
0.0
0.0032958984375
0.000732421875
-0.0018310546875
-0.0010986328125
-0.009521484375
-0.002197265625
-0.012451171875
-0.006591796875
-0.000732421875
-0.00439453125
0.005859375
0.000732421875
0.000732421875
0.0047607421875
-0.0010986328125
0.0054931640625
-0.0142822265625
-0.0318603515625
0.0128173828125
0.0062255859375
0.0003662109375
0.032958984375
-0.0245361328125
-0.0098876953125
-0.0040283203125
-0.002197265625
-0.0040283203125
0.0029296875
-0.00439453125
-0.0003662109375
-0.0047607421875
-0.000732421875
-0.003662109375
-0.0047607421875
-0.0040283203125
-0.005126953125
-0.0003662109375
-0.0098876953125
0.0029296875
-0.0120849609375
0.005126953125
-0.00439453125
0.0084228515625
-0.0018310546875
0.002197265625
0.0084228515625
-0.002197265625
0.01318359375
-0.0054931640625
0.006591796875
-0.0047607421875
0.0047607421875
0.005126953125
0.0
0.0054931640625
-0.00146484375
-0.0010986328125
0.0
-0.002197265625
-0.00146484375
0.0029296875
0.000732421875
0.0
0.00439453125
0.0032958984375
0.002197265625
0.0018310546875
0.0
-0.0047607421875
-0.000732421875
0.0029296875
0.0
0.0010986328125
0.0003662109375
-0.0025634765625
-0.0003662109375
0.000732421875
-0.0010986328125
0.0025634765625
-0.003662109375
-0.002197265625
0.0003662109375
-0.002197265625
0.00439453125
-0.0018310546875
-0.000732421875
-0.0062255859375
0.000732421875
0.00146484375
0.0062255859375
-0.002197265625
-0.000732421875
-0.0062255859375
-0.00732421875
0.0106201171875
-0.00146484375
0.0087890625
0.00146484375
-0.00146484375
0.0
-0.0025634765625
0.00146484375
-0.0040283203125
-0.0457763671875
0.0567626953125
0.0084228515625
0.0010986328125
0.0494384765625
-0.06298828125
-0.00146484375
-0.0054931640625
0.0
-0.002197265625
-0.0010986328125
0.00146484375
0.000732421875
0.00146484375
-0.002197265625
0.0003662109375
-0.00732421875
0.0
-0.003662109375
-0.0010986328125
-0.002197265625
0.0029296875
-0.0120849609375
0.003662109375
-0.008056640625
0.00732421875
0.000732421875
0.0032958984375
0.0098876953125
0.002197265625
0.0128173828125
-0.0003662109375
0.0069580078125
-0.002197265625
0.0029296875
-0.0018310546875
0.0029296875
-0.002197265625
0.00146484375
0.0029296875
-0.000732421875
0.0040283203125
0.0
0.0032958984375
0.0
-0.0010986328125
0.000732421875
0.0010986328125
-0.000732421875
0.005126953125
-0.0018310546875
0.002197265625
0.000732421875
0.0010986328125
-0.0003662109375
0.0040283203125
0.000732421875
0.005126953125
0.0010986328125
0.003662109375
-0.00439453125
0.0062255859375
0.0010986328125
0.002197265625
0.00146484375
-0.0025634765625
-0.0029296875
-0.0010986328125
0.00146484375
-0.0025634765625
0.0
-0.0018310546875
0.003662109375
-0.005859375
-0.0018310546875
-0.0098876953125
-0.0087890625
0.01171875
-0.0047607421875
0.0186767578125
-0.00146484375
0.00439453125
0.000732421875
0.0018310546875
-0.006591796875
-0.0040283203125
-0.0146484375
0.0234375
0.0120849609375
0.00439453125
0.0205078125
-0.031494140625
-0.0003662109375
-0.005859375
0.0
0.003662109375
-0.0010986328125
-0.0018310546875
-0.002197265625
-0.0029296875
-0.0003662109375
0.0018310546875
-0.000732421875
0.0062255859375
-0.006591796875
0.0029296875
-0.008056640625
0.0
-0.0098876953125
0.0040283203125
-0.008056640625
0.0040283203125
-0.0003662109375
0.0
0.01025390625
-0.00439453125
0.0142822265625
-0.0113525390625
0.006591796875
-0.01025390625
0.0
-0.00439453125
0.000732421875
-0.0029296875
0.00146484375
0.000732421875
-0.002197265625
-0.0010986328125
-0.00146484375
0.0
-0.00146484375
0.0003662109375
0.0
-0.0032958984375
0.0025634765625
-0.00439453125
-0.0003662109375
-0.002197265625
0.000732421875
0.000732421875
0.0025634765625
0.0
0.0
0.00146484375
-0.0032958984375
0.002197265625
-0.002197265625
0.0040283203125
-0.000732421875
0.002197265625
-0.00146484375
-0.00732421875
0.0029296875
-0.005859375
-0.003662109375
-0.0054931640625
-0.005859375
0.0047607421875
0.0003662109375
0.010986328125
0.0032958984375
-0.0018310546875
0.0032958984375
-0.00439453125
-0.005859375
-0.016845703125
0.0142822265625
0.0047607421875
0.0062255859375
0.0146484375
-0.01025390625
-0.0091552734375
0.0010986328125
-0.00439453125
-0.0040283203125
0.0
0.0003662109375
-0.00146484375
-0.00146484375
-0.00439453125
-0.0018310546875
0.0003662109375
-0.00146484375
0.0003662109375
-0.009521484375
0.0003662109375
-0.0091552734375
0.0047607421875
-0.0054931640625
0.008056640625
-0.00732421875
0.0062255859375
0.0040283203125
-0.000732421875
0.01611328125
-0.0029296875
0.0091552734375
-0.00439453125
0.005126953125
-0.0025634765625
0.002197265625
-0.002197265625
-0.003662109375
-0.002197265625
0.0010986328125
0.0003662109375
0.003662109375
0.0062255859375
-0.000732421875
0.00439453125
0.0010986328125
-0.0003662109375
0.000732421875
-0.0010986328125
-0.0003662109375
-0.0010986328125
0.0010986328125
0.0010986328125
0.000732421875
0.0010986328125
-0.00146484375
0.0025634765625
-0.00439453125
0.0
-0.0010986328125
0.000732421875
0.0010986328125
0.002197265625
-0.0010986328125
0.0018310546875
0.0018310546875
0.0032958984375
0.002197265625
-0.002197265625
-0.00146484375
-0.000732421875
0.00439453125
0.0025634765625
0.0025634765625
-0.00146484375
-0.005859375
-0.0054931640625
-0.0018310546875
0.00732421875
0.000732421875
0.012451171875
0.00146484375
-0.0029296875
0.000732421875
-0.000732421875
-0.01025390625
-0.0018310546875
-0.005859375
0.0274658203125
0.01318359375
0.00439453125
0.010986328125
-0.0322265625
0.0
0.0
0.0
0.0032958984375
0.003662109375
-0.0018310546875
0.0003662109375
0.000732421875
-0.0032958984375
0.0076904296875
-0.003662109375
0.0032958984375
-0.00732421875
0.00146484375
-0.0091552734375
0.005126953125
-0.0106201171875
0.0054931640625
-0.0084228515625
0.00732421875
0.00146484375
0.0032958984375
0.0142822265625
-0.0087890625
0.01611328125
-0.0146484375
0.0069580078125
-0.0084228515625
0.000732421875
-0.0029296875
0.0
0.0
-0.000732421875
-0.0025634765625
0.0003662109375
-0.0003662109375
0.00146484375
0.0025634765625
-0.0010986328125
-0.003662109375
-0.0003662109375
-0.0025634765625
-0.0032958984375
0.000732421875
-0.0003662109375
-0.0003662109375
0.0040283203125
-0.00146484375
0.002197265625
-0.0018310546875
-0.0003662109375
0.0
-0.0040283203125
0.0010986328125
0.0010986328125
0.0003662109375
0.0018310546875
-0.00146484375
0.0003662109375
0.0010986328125
-0.000732421875
0.0010986328125
-0.00146484375
-0.0025634765625
0.002197265625
-0.0076904296875
-0.0040283203125
-0.01025390625
-0.0054931640625
0.008056640625
-0.0003662109375
0.0084228515625
0.0
-0.0003662109375
0.0003662109375
0.0
-0.0025634765625
-0.0029296875
-0.02783203125
0.0384521484375
0.006591796875
0.0010986328125
0.031494140625
-0.0421142578125
0.0010986328125
-0.006591796875
-0.002197265625
-0.000732421875
-0.00146484375
-0.000732421875
0.0018310546875
0.0
0.0003662109375
0.0010986328125
0.0
0.0025634765625
-0.006591796875
0.0018310546875
-0.01171875
0.000732421875
-0.0120849609375
0.00439453125
-0.006591796875
0.0054931640625
0.0010986328125
-0.0003662109375
0.0091552734375
-0.008056640625
0.0142822265625
-0.0040283203125
0.01025390625
-0.0025634765625
0.0025634765625
-0.00439453125
-0.0025634765625
-0.0003662109375
-0.0010986328125
0.0
0.0018310546875
-0.0003662109375
0.0010986328125
0.00146484375
0.000732421875
0.0018310546875
0.00146484375
0.0018310546875
0.002197265625
0.0010986328125
0.000732421875
-0.0029296875
-0.0047607421875
-0.0018310546875
-0.00439453125
0.0029296875
0.0025634765625
-0.000732421875
0.0040283203125
0.0003662109375
-0.002197265625
0.0032958984375
-0.0003662109375
0.000732421875
-0.0003662109375
-0.0018310546875
-0.0029296875
-0.0018310546875
-0.0010986328125
0.0
-0.00146484375
-0.0010986328125
-0.0032958984375
-0.005859375
-0.0025634765625
0.0062255859375
-0.0025634765625
0.010986328125
-0.0003662109375
-0.003662109375
0.0029296875
-0.003662109375
-0.0128173828125
0.0003662109375
-0.0223388671875
0.0450439453125
0.0172119140625
0.0029296875
0.0267333984375
-0.0465087890625
0.00146484375
-0.0098876953125
0.00146484375
-0.008056640625
0.002197265625
-0.0010986328125
0.00146484375
0.00146484375
-0.0032958984375
-0.000732421875
-0.0047607421875
0.00146484375
-0.0032958984375
0.005126953125
-0.0113525390625
0.006591796875
-0.0135498046875
0.0069580078125
-0.0032958984375
0.0098876953125
0.0025634765625
0.00732421875
0.0091552734375
-0.0010986328125
0.0128173828125
-0.0029296875
0.0084228515625
-0.0010986328125
0.000732421875
-0.0018310546875
-0.0032958984375
-0.0032958984375
0.002197265625
0.000732421875
0.0047607421875
0.0029296875
-0.0003662109375
0.003662109375
0.0003662109375
0.0025634765625
-0.0025634765625
0.0032958984375
-0.0029296875
0.006591796875
0.0025634765625
0.00146484375
0.00146484375
0.0010986328125
-0.0025634765625
0.0025634765625
-0.0018310546875
-0.00146484375
0.0025634765625
-0.0054931640625
0.0029296875
0.00146484375
0.0032958984375
0.0025634765625
-0.00146484375
-0.000732421875
-0.0032958984375
0.0003662109375
0.0003662109375
-0.0010986328125
0.000732421875
0.00146484375
-0.0003662109375
-0.0040283203125
-0.000732421875
-0.0087890625
-0.0025634765625
0.00439453125
0.000732421875
0.005859375
0.000732421875
-0.0032958984375
-0.0032958984375
-0.0047607421875
-0.012451171875
-0.0018310546875
-0.0054931640625
0.012451171875
0.016845703125
-0.005126953125
0.008056640625
-0.021240234375
-0.0010986328125
-0.0069580078125
0.0029296875
-0.0047607421875
0.002197265625
-0.0032958984375
0.000732421875
-0.0040283203125
-0.0032958984375
-0.003662109375
-0.0054931640625
0.00146484375
-0.005859375
0.000732421875
-0.0084228515625
0.00146484375
-0.0120849609375
0.0029296875
-0.008056640625
0.003662109375
-0.0025634765625
0.0010986328125
0.0084228515625
-0.0084228515625
0.0164794921875
-0.0069580078125
0.0069580078125
-0.0040283203125
0.0010986328125
-0.005859375
0.000732421875
0.0
0.0025634765625
0.002197265625
-0.0018310546875
-0.0025634765625
0.000732421875
-0.002197265625
0.0040283203125
0.0003662109375
-0.002197265625
-0.002197265625
0.0
-0.0029296875
-0.00146484375
-0.0025634765625
-0.002197265625
-0.000732421875
-0.0025634765625
-0.00439453125
-0.0018310546875
-0.002197265625
0.0018310546875
0.0029296875
0.0018310546875
0.0003662109375
0.00146484375
0.0032958984375
-0.000732421875
0.0
0.0
-0.002197265625
-0.0025634765625
-0.00732421875
-0.005126953125
0.005126953125
-0.003662109375
0.013916015625
0.00146484375
-0.00146484375
0.0040283203125
0.0003662109375
-0.005859375
-0.013916015625
0.003662109375
0.017578125
0.00732421875
0.0150146484375
-0.0003662109375
-0.0216064453125
0.000732421875
-0.0047607421875
-0.002197265625
-0.0010986328125
0.00146484375
-0.0003662109375
0.0003662109375
0.0
-0.0025634765625
0.0018310546875
-0.0032958984375
0.0
-0.0069580078125
0.0025634765625
-0.01318359375
0.000732421875
-0.009521484375
0.0069580078125
-0.0029296875
0.0087890625
0.002197265625
0.005859375
0.012451171875
-0.000732421875
0.0135498046875
-0.0087890625
0.005859375
-0.00146484375
0.0025634765625
-0.000732421875
0.002197265625
-0.000732421875
-0.0029296875
0.0018310546875
-0.0025634765625
0.005859375
0.002197265625
0.0040283203125
0.00146484375
-0.000732421875
-0.0003662109375
0.0040283203125
-0.0003662109375
-0.0018310546875
0.00146484375
-0.0025634765625
-0.000732421875
0.0040283203125
-0.002197265625
0.0018310546875
-0.0003662109375
0.000732421875
0.0029296875
0.005126953125
-0.0003662109375
0.0062255859375
0.0003662109375
0.0018310546875
0.00146484375
0.0025634765625
-0.002197265625
-0.00146484375
-0.002197265625
-0.0010986328125
-0.000732421875
0.0029296875
0.0003662109375
0.0025634765625
0.00439453125
0.00146484375
-0.0010986328125
-0.0054931640625
-0.006591796875
0.008056640625
-0.0003662109375
0.0128173828125
0.00146484375
-0.0003662109375
0.0029296875
0.0029296875
-0.000732421875
-0.0274658203125
0.019775390625
-0.01025390625
0.0032958984375
0.030029296875
-0.0142822265625
0.006591796875
0.0010986328125
-0.0084228515625
0.00146484375
-0.002197265625
0.0029296875
-0.0032958984375
-0.000732421875
-0.0018310546875
-0.0025634765625
0.0003662109375
-0.0047607421875
-0.002197265625
-0.0032958984375
0.003662109375
-0.0087890625
0.0098876953125
-0.016845703125
0.0091552734375
-0.0076904296875
0.00146484375
0.0054931640625
0.0010986328125
0.012451171875
-0.0069580078125
0.0120849609375
-0.009521484375
0.0054931640625
-0.005126953125
0.005126953125
-0.0040283203125
0.0018310546875
0.0003662109375
-0.00146484375
-0.000732421875
0.00146484375
0.0018310546875
0.0
0.0018310546875
-0.0047607421875
-0.0003662109375
-0.00146484375
-0.0018310546875
-0.00146484375
-0.0018310546875
0.00146484375
0.00146484375
0.00146484375
-0.0010986328125
-0.00439453125
-0.00146484375
0.0010986328125
0.0003662109375
0.0025634765625
-0.0010986328125
-0.0010986328125
-0.0040283203125
-0.0010986328125
-0.0029296875
-0.0018310546875
-0.0003662109375
0.000732421875
0.0025634765625
0.0003662109375
-0.0025634765625
-0.002197265625
-0.0054931640625
0.0003662109375
-0.00146484375
-0.0032958984375
-0.0003662109375
0.0010986328125
0.0091552734375
0.0032958984375
0.0062255859375
-0.000732421875
-0.005859375
-0.00439453125
-0.0047607421875
-0.032958984375
0.028564453125
0.005859375
-0.000732421875
0.03662109375
-0.0355224609375
0.00146484375
-0.005126953125
0.0
-0.0029296875
0.00146484375
-0.00439453125
-0.0029296875
-0.00146484375
-0.0029296875
-0.00146484375
-0.005126953125
0.00146484375
-0.00439453125
0.0018310546875
-0.003662109375
-0.0010986328125
-0.0120849609375
0.0003662109375
-0.01025390625
0.0040283203125
0.000732421875
0.0003662109375
0.01025390625
-0.0054931640625
0.0128173828125
-0.0084228515625
0.0069580078125
-0.01025390625
0.0029296875
-0.0029296875
0.0029296875
0.002197265625
0.0032958984375
0.000732421875
0.0
0.0
-0.002197265625
0.005126953125
-0.002197265625
0.003662109375
0.000732421875
0.0040283203125
0.0
0.0040283203125
-0.0018310546875
-0.0010986328125
0.00146484375
0.00146484375
0.0040283203125
0.00146484375
0.0003662109375
0.002197265625
-0.0025634765625
0.00439453125
-0.000732421875
0.0025634765625
-0.000732421875
0.0003662109375
0.0
-0.0025634765625
-0.00146484375
-0.0003662109375
-0.000732421875
0.002197265625
0.002197265625
0.0029296875
0.0025634765625
-0.002197265625
-0.005859375
-0.006591796875
-0.006591796875
0.01025390625
-0.0010986328125
0.012451171875
0.0040283203125
0.0025634765625
0.0054931640625
-0.0025634765625
-0.01318359375
0.0010986328125
-0.0234375
0.0413818359375
0.0113525390625
0.0
0.0234375
-0.041748046875
0.0040283203125
-0.005859375
0.00439453125
-0.000732421875
0.0018310546875
0.0
0.0003662109375
0.003662109375
-0.0054931640625
-0.000732421875
-0.0076904296875
0.0003662109375
-0.0054931640625
0.0054931640625
-0.01025390625
0.0054931640625
-0.009521484375
0.0062255859375
-0.006591796875
0.005859375
-0.0018310546875
0.0025634765625
0.010986328125
-0.0069580078125
0.015380859375
-0.0091552734375
0.01025390625
-0.005126953125
-0.0054931640625
-0.0106201171875
-0.0106201171875
-0.0087890625
