0.182769775390625
-0.746795654296875
0.1065673828125
-0.746795654296875
0.56658935546875
0.0
0.42266845703125
0.0
-0.0029296875
0.0
-0.187164306640625
0.0
-0.064483642578125
0.0
-1.0
-0.000732421875
-0.476104736328125
0.0
0.173248291015625
0.0
-0.56732177734375
0.0
0.913787841796875
0.000732421875
0.233673095703125
0.0
0.41278076171875
0.0
0.459259033203125
0.0
-0.0018310546875
0.0
-0.176513671875
0.0
-0.677581787109375
0.0
-0.8775634765625
0.146514892578125
-0.803924560546875
0.256011962890625
0.681976318359375
-0.146514892578125
-0.0164794921875
-0.256744384765625
0.352325439453125
0.0
1.0
0.000732421875
0.43402099609375
0.0
-0.086456298828125
0.0
-0.0087890625
0.0
0.39813232421875
0.799896240234375
0.005126953125
1.0
-0.0047607421875
-0.432159423828125
0.0032958984375
0.0
0.0
0.464385986328125
-0.48162841796875
-0.018310546875
0.0
0.41497802734375
0.48162841796875
-0.751922607421875
0.0003662109375
0.20361328125
-1.0
0.62847900390625
-1.0
-1.0
0.727752685546875
-1.0
-0.177642822265625
0.53582763671875
-0.12890625
-0.029296875
0.836151123046875
-0.765106201171875
0.868377685546875
0.0029296875
0.36407470703125
0.0003662109375
0.0003662109375
0.0
0.0
0.0
0.0
0.0
0.0
0.0
0.0
0.0
0.0
0.213897705078125
0.0
0.0
0.0
-0.213897705078125
0.0
0.0
0.0
0.0
0.0003662109375
0.0
0.0
0.134796142578125
-0.0003662109375
0.286407470703125
0.0
0.249053955078125
-0.113189697265625
0.45343017578125
-0.282745361328125
0.56256103515625
-0.1512451171875
0.1446533203125
-0.208404541015625
0.252349853515625
0.095947265625
0.189727783203125
-0.43914794921875
0.293365478515625
-0.49005126953125
0.41680908203125
0.55413818359375
-0.000732421875
-0.07470703125
0.0003662109375
-0.359283447265625
0.0
0.0032958984375
0.0
0.12451171875
0.0
-0.0120849609375
0.0
-0.117919921875
0.0
-0.0845947265625
0.0
-0.04833984375
0.0
0.0025634765625
0.0
-0.123809814453125
0.0
-0.02490234375
0.0
0.00439453125
0.0
-0.005859375
0.0
-0.0556640625
0.0
-0.0245361328125
0.0
0.053466796875
0.0
0.0201416015625
0.0
0.101104736328125
0.0
0.041015625
0.0
0.0179443359375
0.0
-0.0157470703125
0.0
-0.0087890625
0.0
0.0142822265625
0.0
-0.0098876953125
0.0
0.02197265625
0.0
-0.01611328125
0.0
0.0069580078125
0.0
-0.003662109375
0.0
0.005126953125
0.0
-0.0142822265625
0.0
-0.0010986328125
0.0
0.0201416015625
0.0
-0.0216064453125
-0.0003662109375
0.0849609375
0.0003662109375
-0.0018310546875
0.0
-0.0428466796875
-0.0003662109375
0.003662109375
0.0003662109375
0.0146484375
0.0
-0.003662109375
0.0
-0.038818359375
0.0
-0.024169921875
0.0
0.009521484375
0.0
0.0780029296875
0.0
0.0047607421875
0.0
0.024169921875
0.0
0.0087890625
0.0
0.005859375
0.0003662109375
-0.005859375
0.0
-0.0494384765625
-0.0003662109375
0.0
0.0003662109375
-0.0391845703125
0.0
-0.0164794921875
-0.0003662109375
-0.0252685546875
-0.0003662109375
0.002197265625
0.0
0.021240234375
0.0003662109375
0.0113525390625
0.0
0.0391845703125
0.0
0.01171875
0.0
0.0465087890625
0.0
-0.0025634765625
0.0
-0.0018310546875
0.0
-0.0186767578125
0.0
-0.0347900390625
0.0
-0.0538330078125
0.0
-0.06005859375
0.0
0.0010986328125
0.0
-0.061553955078125
0.0
-0.076568603515625
0.0
-0.366241455078125
-0.0003662109375
-0.2457275390625
-0.0003662109375
0.112457275390625
0.0003662109375
0.0281982421875
0.0003662109375
0.0106201171875
-0.0003662109375
0.0238037109375
-0.0003662109375
0.050537109375
0.0003662109375
0.018310546875
0.0003662109375
0.0084228515625
0.0
0.010986328125
0.0
0.01904296875
0.0
0.0135498046875
0.0
0.0069580078125
0.0
0.024169921875
0.0
0.0062255859375
0.0
0.027099609375
0.0
-0.0106201171875
0.0
0.016845703125
0.0
0.03662109375
0.0
0.0062255859375
0.0
0.02783203125
0.0
0.013916015625
0.0
0.02197265625
0.0
0.0087890625
0.0
0.0205078125
0.0
0.016845703125
0.0
-0.02783203125
0.0
-0.0263671875
0.0
0.00732421875
0.0
0.0205078125
-0.0003662109375
0.0208740234375
-0.0003662109375
0.103302001953125
0.0003662109375
0.087554931640625
0.0003662109375
0.0201416015625
0.0
0.00732421875
0.0
0.0018310546875
0.0
-0.039581298828125
0.0
0.0029296875
0.0
0.073638916015625
0.0
0.0018310546875
0.0
0.0025634765625
0.0
0.0047607421875
0.0
0.003662109375
0.0
0.0146484375
0.0
0.002197265625
0.0
0.0032958984375
0.0
-0.0076904296875
0.0
0.0087890625
0.0
0.0062255859375
0.0
0.00732421875
0.0
0.0062255859375
0.0
-0.0010986328125
0.0
0.0084228515625
0.0
-0.0062255859375
0.0
0.00146484375
0.0
-0.0032958984375
0.0
0.005126953125
0.0
-0.00146484375
0.0
0.0025634765625
0.0
0.005859375
0.0
-0.0076904296875
0.0
0.0
0.0
-0.0732421875
0.0
-0.0025634765625
0.0
0.052734375
0.0
0.002197265625
0.0
0.0003662109375
0.0
-0.0025634765625
0.0
0.00732421875
0.0
-0.0069580078125
0.0
0.0018310546875
0.0
-0.0113525390625
0.0
-0.0003662109375
0.0
-0.0029296875
0.0
-0.00439453125
0.0
-0.0029296875
0.0
-0.0076904296875
0.0
0.0128173828125
0.0
-0.003662109375
0.0
0.0
0.0
-0.0032958984375
0.0
0.006591796875
0.0
0.0076904296875
0.0
0.0032958984375
0.0
0.013916015625
0.0
0.002197265625
0.0
0.01318359375
0.0
0.006591796875
0.0
0.013916015625
0.0
0.0047607421875
0.0
-0.008056640625
0.0
0.0054931640625
0.0
0.006591796875
0.0
0.0128173828125
0.0
0.0194091796875
0.0
0.0267333984375
0.0
-0.000732421875
0.0
0.0084228515625
0.0
0.0142822265625
0.0
0.0054931640625
0.0
0.0150146484375
0.0
0.002197265625
0.0
0.0069580078125
0.0
-0.003662109375
0.0
0.0047607421875
0.0
0.0142822265625
0.0
0.02197265625
0.0
0.0201416015625
0.0
0.0076904296875
0.0
0.0157470703125
0.0
0.0087890625
0.0
0.01611328125
0.0
0.009521484375
0.0
0.02490234375
0.0
0.0391845703125
0.0
0.055694580078125
0.0
0.074737548828125
0.0
0.056396484375
0.0
0.071044921875
0.0
0.06884765625
-0.037750244140625
-0.005859375
-0.060821533203125
0.0087890625
-0.079833984375
0.0677490234375
-0.1072998046875
0.038818359375
-0.0897216796875
0.01318359375
-0.0736083984375
-0.0296630859375
-0.0494384765625
-0.0615234375
-0.0303955078125
-0.032958984375
-0.0421142578125
-0.0655517578125
-0.0238037109375
-0.200347900390625
0.046875
-0.35968017578125
0.131103515625
-0.61199951171875
0.251251220703125
-0.2574462890625
0.0845947265625
0.193389892578125
-0.129669189453125
0.72955322265625
-0.409820556640625
-0.0010986328125
-0.035888671875
-0.72442626953125
0.331085205078125
0.071044921875
-0.073974609375
0.095947265625
-0.0853271484375
-0.154205322265625
0.0435791015625
-0.090087890625
0.0128173828125
0.158599853515625
-0.113525390625
0.188232421875
-0.127105712890625
0.1014404296875
-0.081329345703125
0.054931640625
-0.0567626953125
0.0223388671875
-0.03955078125
-0.0322265625
-0.0098876953125
-0.0552978515625
0.0018310546875
-0.0582275390625
0.003662109375
-0.0589599609375
0.005859375
-0.03076171875
-0.0069580078125
-0.1094970703125
0.0340576171875
-0.0340576171875
-0.0040283203125
0.052734375
-0.046875
-0.01611328125
-0.010986328125
-0.0362548828125
-0.000732421875
0.0054931640625
-0.021240234375
0.0703125
-0.0531005859375
0.0208740234375
-0.027099609375
-0.0018310546875
-0.0150146484375
0.00439453125
-0.017578125
0.017578125
-0.0234375
0.008056640625
-0.017578125
-0.02197265625
-0.00146484375
-0.037353515625
0.006591796875
-0.03955078125
0.0084228515625
-0.0311279296875
0.0040283203125
-0.171783447265625
0.0758056640625
-0.313507080078125
0.148681640625
-0.244293212890625
0.139923095703125
-0.056427001953125
0.019775390625
0.093780517578125
-0.081329345703125
-0.0238037109375
0.052398681640625
-0.093780517578125
0.060791015625
0.168487548828125
-0.138092041015625
0.42669677734375
-0.2413330078125
0.70721435546875
-0.365875244140625
1.0
-0.672821044921875
0.619354248046875
-0.49224853515625
-0.0003662109375
-0.1424560546875
0.0
0.1065673828125
0.0
0.1014404296875
0.0
-0.1585693359375
0.0
-0.1212158203125
0.0003662109375
-0.0362548828125
0.0
0.0860595703125
-0.0003662109375
0.09814453125
0.0
0.0849609375
0.0
0.0966796875
-0.047637939453125
0.096343994140625
-0.131134033203125
0.090850830078125
-0.1336669921875
0.065185546875
-0.141357421875
0.0692138671875
-0.182769775390625
0.091552734375
-0.302154541015625
0.152008056640625
-0.286041259765625
0.142120361328125
-0.125274658203125
0.0611572265625
-0.0816650390625
0.0399169921875
-0.037353515625
0.017578125
-0.040283203125
0.0201416015625
-0.0399169921875
0.0201416015625
-0.054931640625
0.0274658203125
-0.06298828125
0.031494140625
-0.01025390625
0.005126953125
0.021240234375
-0.01025390625
0.0186767578125
-0.01025390625
-0.016845703125
0.0087890625
-0.0296630859375
0.0150146484375
-0.0010986328125
0.0
0.030029296875
-0.0150146484375
0.005126953125
-0.0029296875
-0.0146484375
0.00732421875
-0.0142822265625
0.006591796875
-0.01171875
0.005859375
0.01904296875
-0.0091552734375
0.0062255859375
-0.0029296875
0.0018310546875
-0.00146484375
0.01171875
-0.0062255859375
0.0150146484375
-0.0076904296875
-0.0003662109375
0.0
-0.012451171875
0.0062255859375
-0.006591796875
0.0029296875
-0.0205078125
0.01025390625
0.018310546875
-0.0087890625
0.025634765625
-0.01318359375
0.0040283203125
-0.0029296875
-0.00732421875
0.0032958984375
0.005126953125
-0.0025634765625
0.0164794921875
-0.0087890625
-0.0010986328125
-0.0003662109375
-0.000732421875
0.0003662109375
-0.021240234375
0.010986328125
-0.016845703125
0.008056640625
-0.01025390625
0.005126953125
0.0194091796875
-0.0091552734375
0.03515625
-0.0172119140625
0.0146484375
-0.0076904296875
0.0281982421875
-0.0150146484375
0.013916015625
-0.0069580078125
0.0091552734375
-0.00439453125
0.0040283203125
-0.0018310546875
0.0135498046875
-0.0069580078125
0.0289306640625
-0.0150146484375
0.018310546875
-0.009521484375
0.009521484375
-0.0047607421875
-0.0029296875
0.002197265625
0.01025390625
-0.0047607421875
0.01171875
-0.005859375
0.0087890625
-0.005126953125
0.00439453125
-0.0029296875
0.01318359375
-0.0062255859375
0.0120849609375
-0.0054931640625
-0.0032958984375
0.0018310546875
0.00146484375
-0.0010986328125
-0.0054931640625
0.0025634765625
-0.0120849609375
0.0062255859375
-0.0032958984375
0.0018310546875
0.0146484375
-0.0069580078125
-0.0003662109375
0.000732421875
-0.0040283203125
0.0025634765625
-0.03076171875
0.01611328125
-0.0322265625
0.0164794921875
0.0208740234375
-0.0106201171875
0.021240234375
-0.01025390625
0.00732421875
-0.0032958984375
-0.006591796875
0.0040283203125
-0.0029296875
0.0025634765625
0.006591796875
-0.0029296875
0.0128173828125
-0.0062255859375
0.01318359375
-0.006591796875
0.0032958984375
-0.0010986328125
0.0087890625
-0.003662109375
-0.0087890625
0.0047607421875
-0.0142822265625
0.00732421875
0.0106201171875
-0.005126953125
0.024169921875
-0.01171875
0.016845703125
-0.0076904296875
-0.00146484375
0.00146484375
0.017578125
-0.008056640625
-0.0010986328125
0.00146484375
-0.008056640625
0.0040283203125
0.00439453125
-0.002197265625
0.00732421875
-0.0032958984375
0.0164794921875
-0.008056640625
0.0098876953125
-0.0047607421875
0.0205078125
-0.0098876953125
0.0186767578125
-0.0091552734375
0.0274658203125
-0.01318359375
0.0172119140625
-0.0076904296875
0.002197265625
-0.0010986328125
-0.00732421875
0.003662109375
-0.010986328125
0.005859375
-0.010986328125
0.006591796875
-0.0172119140625
0.009521484375
-0.0135498046875
0.0069580078125
-0.013916015625
0.0076904296875
0.003662109375
-0.0010986328125
0.0003662109375
0.0003662109375
-0.0047607421875
0.0025634765625
-0.0029296875
0.002197265625
-0.0289306640625
0.0157470703125
-0.0252685546875
0.01318359375
-0.010986328125
0.0062255859375
-0.049072265625
0.025634765625
-0.0498046875
0.0267333984375
-0.0018310546875
0.00146484375
0.0040283203125
-0.002197265625
0.0113525390625
-0.0047607421875
0.015380859375
-0.006591796875
0.012451171875
-0.0054931640625
0.0076904296875
-0.0029296875
-0.0047607421875
0.003662109375
0.0106201171875
-0.0047607421875
0.00146484375
0.0
-0.0128173828125
0.00732421875
-0.0157470703125
0.008056640625
-0.0087890625
0.00439453125
0.0113525390625
-0.005126953125
-0.0047607421875
0.003662109375
-0.013916015625
0.008056640625
-0.0172119140625
0.0098876953125
-0.0208740234375
0.01171875
-0.016845703125
0.0091552734375
-0.0120849609375
0.0069580078125
-0.005859375
0.0032958984375
-0.0084228515625
0.005126953125
-0.0157470703125
0.0091552734375
-0.002197265625
0.0018310546875
-0.0069580078125
0.0047607421875
-0.0186767578125
0.01025390625
0.0040283203125
-0.0018310546875
0.000732421875
0.0
-0.002197265625
0.0018310546875
0.003662109375
-0.000732421875
0.0069580078125
-0.0025634765625
0.012451171875
-0.0054931640625
-0.005126953125
0.003662109375
-0.0120849609375
0.006591796875
-0.0223388671875
0.01171875
-0.0216064453125
0.0120849609375
-0.0106201171875
0.006591796875
-0.018310546875
0.0098876953125
-0.0018310546875
0.0010986328125
-0.0025634765625
0.0025634765625
-0.0040283203125
0.0032958984375
-0.0018310546875
0.00146484375
0.0029296875
-0.0003662109375
0.005859375
-0.002197265625
-0.0047607421875
0.0029296875
0.0029296875
-0.000732421875
0.0010986328125
0.0
0.0062255859375
-0.00146484375
-0.016845703125
0.0098876953125
-0.00439453125
0.0025634765625
0.0208740234375
-0.0098876953125
0.0142822265625
-0.00732421875
0.018310546875
-0.0087890625
0.005859375
-0.0010986328125
0.0047607421875
-0.0018310546875
-0.000732421875
0.0003662109375
0.005859375
-0.002197265625
0.00146484375
0.0
-0.00439453125
0.0029296875
-0.00146484375
0.00146484375
-0.0062255859375
0.0040283203125
-0.0040283203125
0.0029296875
-0.005126953125
0.0029296875
-0.0010986328125
0.0010986328125
-0.0076904296875
0.0047607421875
-0.0054931640625
0.0032958984375
-0.0018310546875
0.00146484375
-0.00146484375
0.00146484375
-0.002197265625
0.0018310546875
-0.00732421875
0.00439453125
0.0018310546875
-0.0003662109375
0.003662109375
-0.0010986328125
0.00732421875
-0.0029296875
-0.0245361328125
0.01318359375
-0.012451171875
0.00732421875
0.02197265625
-0.0106201171875
0.013916015625
-0.0069580078125
0.0146484375
-0.0069580078125
0.0087890625
-0.003662109375
0.010986328125
-0.0047607421875
0.008056640625
-0.003662109375
0.012451171875
-0.0062255859375
0.01318359375
-0.005859375
0.01171875
-0.00439453125
0.0029296875
-0.0010986328125
-0.0040283203125
0.002197265625
0.0032958984375
-0.0010986328125
-0.00146484375
0.0010986328125
0.0069580078125
-0.0029296875
0.0029296875
-0.0010986328125
-0.0040283203125
0.0025634765625
0.0029296875
-0.0003662109375
0.000732421875
0.0003662109375
0.0018310546875
-0.000732421875
0.0054931640625
-0.002197265625
0.008056640625
-0.0032958984375
0.00146484375
-0.0003662109375
-0.04248046875
0.02197265625
-0.0146484375
0.008056640625
0.0355224609375
-0.017578125
0.013916015625
-0.0062255859375
0.0069580078125
-0.002197265625
0.005859375
-0.0029296875
0.0029296875
-0.0018310546875
0.00439453125
-0.00146484375
0.0018310546875
-0.0003662109375
0.0010986328125
0.0
-0.0040283203125
0.0025634765625
-0.008056640625
0.0047607421875
-0.006591796875
0.0040283203125
-0.0098876953125
0.0054931640625
-0.005859375
0.003662109375
-0.0062255859375
0.003662109375
0.0
0.0
0.0
0.0003662109375
0.0010986328125
0.0
-0.041015625
0.021240234375
-0.018310546875
0.0106201171875
0.03369140625
-0.016845703125
0.01025390625
-0.0054931640625
0.0260009765625
-0.0120849609375
0.022705078125
-0.010986328125
0.0098876953125
-0.005126953125
0.0098876953125
-0.0047607421875
0.0106201171875
-0.00439453125
0.016845703125
-0.008056640625
0.006591796875
-0.0032958984375
-0.0010986328125
0.00146484375
-0.0062255859375
0.0040283203125
-0.0025634765625
0.0010986328125
0.0032958984375
-0.00146484375
0.0025634765625
-0.000732421875
-0.000732421875
0.000732421875
-0.0029296875
0.0018310546875
0.00146484375
-0.0010986328125
-0.0076904296875
0.0040283203125
-0.0128173828125
0.0076904296875
0.0
0.000732421875
0.0054931640625
-0.0029296875
0.0003662109375
-0.0003662109375
-0.01025390625
0.005859375
-0.010986328125
0.0062255859375
0.005859375
-0.0029296875
0.009521484375
-0.0047607421875
-0.0040283203125
0.002197265625
-0.0120849609375
0.0069580078125
-0.01025390625
0.005126953125
0.002197265625
-0.0010986328125
0.0087890625
-0.0040283203125
0.010986328125
-0.0047607421875
0.00146484375
-0.0003662109375
-0.0164794921875
0.0076904296875
-0.01318359375
0.006591796875
-0.0076904296875
0.00439453125
0.0010986328125
0.0
-0.0003662109375
0.0003662109375
-0.00146484375
0.000732421875
-0.00146484375
0.000732421875
-0.0087890625
0.0047607421875
0.00439453125
-0.00146484375
0.00439453125
-0.0018310546875
-0.0238037109375
0.01171875
0.00439453125
-0.0025634765625
0.0281982421875
-0.0142822265625
0.0003662109375
0.0
0.002197265625
-0.0010986328125
0.0032958984375
-0.00146484375
-0.00732421875
0.003662109375
-0.002197265625
0.0010986328125
-0.0010986328125
0.000732421875
0.0054931640625
-0.002197265625
0.006591796875
-0.0029296875
-0.0032958984375
0.0018310546875
-0.0018310546875
0.002197265625
-0.005126953125
0.0032958984375
-0.0076904296875
0.003662109375
-0.009521484375
0.0047607421875
0.002197265625
-0.00146484375
0.0076904296875
-0.0032958984375
0.0054931640625
-0.0018310546875
0.0047607421875
-0.002197265625
0.0040283203125
-0.0025634765625
0.005126953125
-0.0029296875
0.00146484375
0.0
0.006591796875
-0.0025634765625
0.0062255859375
-0.0029296875
-0.02783203125
0.013916015625
0.0047607421875
-0.002197265625
0.0245361328125
-0.012451171875
-0.0062255859375
0.0032958984375
0.0091552734375
-0.00439453125
0.0098876953125
-0.0047607421875
0.003662109375
-0.0010986328125
0.0029296875
-0.000732421875
-0.000732421875
0.0003662109375
0.0
0.0
-0.0010986328125
0.000732421875
0.00146484375
-0.000732421875
0.0010986328125
-0.0003662109375
-0.00732421875
0.0040283203125
-0.0069580078125
0.003662109375
-0.0025634765625
0.0010986328125
0.0029296875
-0.00146484375
-0.0032958984375
0.002197265625
-0.003662109375
0.0018310546875
-0.003662109375
0.00146484375
-0.0062255859375
0.0040283203125
-0.010986328125
0.0054931640625
0.005126953125
-0.0032958984375
0.0010986328125
0.0
-0.017578125
0.009521484375
0.0032958984375
-0.00146484375
0.008056640625
-0.0040283203125
0.00732421875
-0.003662109375
0.0098876953125
-0.0047607421875
0.0
-0.0003662109375
0.0029296875
-0.0018310546875
0.01025390625
-0.00439453125
0.0087890625
-0.0040283203125
-0.0029296875
0.0010986328125
-0.003662109375
0.00146484375
-0.0018310546875
0.0010986328125
-0.0054931640625
0.0032958984375
-0.00146484375
0.000732421875
-0.0029296875
0.00146484375
0.000732421875
-0.000732421875
-0.0040283203125
0.002197265625
-0.00439453125
0.0025634765625
-0.0025634765625
0.00146484375
0.0010986328125
-0.0003662109375
0.0029296875
-0.00146484375
-0.0040283203125
0.0018310546875
-0.0146484375
0.0069580078125
0.0054931640625
-0.0025634765625
0.0054931640625
-0.0025634765625
-0.0128173828125
0.006591796875
0.0076904296875
-0.003662109375
0.0087890625
-0.00439453125
0.003662109375
-0.002197265625
0.0040283203125
-0.0018310546875
0.00146484375
-0.0003662109375
0.002197265625
-0.0010986328125
0.0029296875
-0.0018310546875
0.0076904296875
-0.00439453125
-0.0003662109375
0.0
-0.0029296875
0.00146484375
0.0040283203125
-0.0018310546875
-0.000732421875
0.0003662109375
0.002197265625
-0.00146484375
0.0040283203125
-0.002197265625
0.0047607421875
-0.0018310546875
-0.0029296875
0.0018310546875
0.00439453125
-0.0029296875
0.010986328125
-0.005859375
0.0
0.0
-0.0025634765625
0.000732421875
-0.0091552734375
0.00439453125
-0.0040283203125
0.002197265625
-0.00439453125
0.0025634765625
-0.0025634765625
0.0010986328125
-0.0003662109375
-0.0003662109375
-0.0091552734375
0.0047607421875
-0.0040283203125
0.0025634765625
0.0069580078125
-0.003662109375
0.0098876953125
-0.0054931640625
0.0047607421875
-0.002197265625
0.0076904296875
-0.003662109375
-0.0018310546875
0.0003662109375
-0.0047607421875
0.002197265625
0.0003662109375
0.0
-0.0010986328125
0.000732421875
-0.0003662109375
0.0003662109375
-0.0040283203125
0.00146484375
-0.0003662109375
0.0
-0.0018310546875
0.00146484375
-0.0003662109375
0.0
0.003662109375
-0.0025634765625
-0.0384521484375
0.019775390625
-0.0113525390625
0.005859375
0.0252685546875
-0.01318359375
0.0025634765625
-0.00146484375
0.0029296875
-0.00146484375
0.0032958984375
-0.00146484375
0.002197265625
-0.000732421875
-0.000732421875
0.000732421875
0.0025634765625
-0.0010986328125
0.005859375
-0.0032958984375
0.008056640625
-0.0040283203125
-0.0032958984375
0.002197265625
-0.00732421875
0.003662109375
-0.008056640625
0.003662109375
-0.003662109375
0.0018310546875
-0.0003662109375
0.0003662109375
-0.0029296875
0.0010986328125
-0.0025634765625
0.0018310546875
-0.0010986328125
0.000732421875
0.0029296875
-0.0018310546875
0.00146484375
-0.0010986328125
0.002197265625
-0.0010986328125
-0.0040283203125
0.0025634765625
-0.01025390625
0.005126953125
0.005859375
-0.003662109375
0.0003662109375
-0.0003662109375
-0.0146484375
0.008056640625
-0.0032958984375
0.00146484375
0.0032958984375
-0.00146484375
-0.00146484375
0.0010986328125
0.0032958984375
-0.0018310546875
0.0010986328125
-0.000732421875
-0.0032958984375
0.0018310546875
-0.0018310546875
0.0010986328125
0.0018310546875
-0.000732421875
0.0047607421875
-0.002197265625
-0.012451171875
0.005859375
-0.0091552734375
0.00439453125
0.000732421875
-0.0003662109375
0.0054931640625
-0.0025634765625
0.003662109375
-0.0018310546875
-0.00146484375
0.0
0.00146484375
-0.000732421875
-0.0054931640625
0.0029296875
-0.000732421875
0.0
-0.002197265625
0.0018310546875
0.0010986328125
-0.000732421875
0.0025634765625
-0.00146484375
-0.0062255859375
0.003662109375
-0.000732421875
0.0
0.008056640625
-0.00439453125
0.012451171875
-0.0062255859375
0.002197265625
-0.000732421875
-0.000732421875
0.0003662109375
0.000732421875
-0.000732421875
0.00732421875
-0.0040283203125
0.009521484375
-0.0047607421875
0.00439453125
-0.002197265625
0.00439453125
-0.002197265625
-0.0029296875
0.00146484375
0.0003662109375
-0.000732421875
0.0029296875
-0.00146484375
-0.00146484375
0.000732421875
-0.0084228515625
0.00439453125
-0.0135498046875
0.0076904296875
-0.00439453125
0.00146484375
0.008056640625
-0.0047607421875
0.0069580078125
-0.0029296875
0.0018310546875
-0.0010986328125
0.005126953125
-0.0029296875
-0.00146484375
0.000732421875
0.0003662109375
-0.0003662109375
0.0032958984375
-0.0010986328125
-0.00146484375
0.0010986328125
0.0010986328125
-0.0010986328125
0.00146484375
-0.000732421875
0.0003662109375
-0.0003662109375
-0.0025634765625
0.000732421875
-0.00732421875
0.003662109375
-0.0018310546875
0.000732421875
0.005859375
-0.0032958984375
0.0032958984375
-0.00146484375
0.000732421875
0.0
0.0025634765625
-0.00146484375
-0.0076904296875
0.0029296875
0.024169921875
-0.012451171875
0.0172119140625
-0.008056640625
-0.0205078125
0.0106201171875
-0.003662109375
0.00146484375
0.0087890625
-0.0040283203125
0.01025390625
-0.005126953125
0.005126953125
-0.0029296875
0.0025634765625
-0.00146484375
-0.0010986328125
0.0003662109375
0.0040283203125
-0.00146484375
0.0
-0.0003662109375
-0.0040283203125
0.0010986328125
-0.0054931640625
0.0029296875
-0.005859375
0.003662109375
-0.000732421875
0.0003662109375
-0.005859375
0.0025634765625
-0.0040283203125
0.00146484375
0.0010986328125
-0.0003662109375
0.0032958984375
-0.00146484375
-0.00146484375
0.000732421875
-0.005859375
0.0029296875
-0.0098876953125
0.00439453125
-0.009521484375
0.00439453125
0.0003662109375
-0.0003662109375
0.0029296875
-0.000732421875
-0.0406494140625
0.0205078125
0.002197265625
-0.0018310546875
0.040283203125
-0.0205078125
-0.00732421875
0.003662109375
0.0010986328125
-0.000732421875
0.00732421875
-0.0040283203125
0.00146484375
0.0
0.000732421875
0.0
-0.0010986328125
0.0
0.002197265625
-0.0010986328125
0.0087890625
-0.0040283203125
0.009521484375
-0.005126953125
0.0047607421875
-0.0025634765625
-0.0029296875
0.0018310546875
-0.0029296875
0.0010986328125
-0.0040283203125
0.0018310546875
-0.00146484375
0.0003662109375
-0.006591796875
0.003662109375
-0.0062255859375
0.0032958984375
-0.0029296875
0.000732421875
-0.000732421875
0.0010986328125
0.0040283203125
-0.0018310546875
-0.0003662109375
0.0
0.000732421875
-0.0003662109375
-0.000732421875
0.0
0.0
0.0
-0.025634765625
0.012451171875
0.009521484375
-0.00439453125
0.019775390625
-0.0098876953125
-0.012451171875
0.005859375
0.012451171875
-0.006591796875
0.005859375
-0.0029296875
0.0054931640625
-0.0029296875
-0.003662109375
0.0010986328125
-0.0087890625
0.00439453125
-0.0010986328125
0.000732421875
0.0062255859375
-0.0032958984375
0.01318359375
-0.0069580078125
0.002197265625
-0.0010986328125
-0.005859375
0.0025634765625
-0.0087890625
0.0047607421875
0.0018310546875
-0.0003662109375
0.00732421875
-0.003662109375
0.00146484375
-0.00146484375
-0.006591796875
0.0029296875
-0.01171875
0.006591796875
-0.0032958984375
0.00146484375
0.0003662109375
-0.000732421875
0.0047607421875
-0.0025634765625
-0.0062255859375
0.0029296875
-0.043212890625
0.02197265625
0.000732421875
0.0
0.029296875
-0.0150146484375
0.0032958984375
-0.002197265625
0.0091552734375
-0.005126953125
0.003662109375
-0.0018310546875
0.0018310546875
-0.0003662109375
0.0040283203125
-0.002197265625
0.002197265625
-0.0010986328125
0.005859375
-0.0029296875
0.00732421875
-0.0032958984375
-0.00146484375
0.000732421875
-0.005126953125
0.0018310546875
-0.0040283203125
0.002197265625
0.0025634765625
-0.0018310546875
-0.0010986328125
0.0003662109375
-0.0032958984375
0.002197265625
-0.003662109375
0.0018310546875
-0.00439453125
0.002197265625
0.00439453125
-0.002197265625
0.002197265625
-0.0010986328125
0.0003662109375
-0.0003662109375
0.0003662109375
-0.0003662109375
-0.04248046875
0.0216064453125
0.0047607421875
-0.0018310546875
0.0399169921875
-0.0205078125
-0.0062255859375
0.0029296875
0.00439453125
-0.0018310546875
0.0091552734375
-0.00439453125
0.0003662109375
0.0
0.003662109375
-0.002197265625
0.0062255859375
-0.003662109375
0.003662109375
-0.002197265625
0.005859375
-0.002197265625
0.0025634765625
-0.0010986328125
-0.002197265625
0.0003662109375
-0.0076904296875
0.0040283203125
-0.005859375
0.0032958984375
-0.000732421875
0.0003662109375
0.0018310546875
-0.0010986328125
-0.0032958984375
0.0025634765625
-0.002197265625
0.0010986328125
0.0018310546875
-0.00146484375
-0.0003662109375
0.000732421875
0.0
0.0
-0.003662109375
0.00146484375
-0.00146484375
0.0003662109375
-0.0003662109375
0.0003662109375
0.00146484375
-0.0003662109375
-0.0018310546875
0.0010986328125
-0.005126953125
0.0029296875
-0.0054931640625
0.0025634765625
-0.0047607421875
0.00146484375
0.0025634765625
-0.0010986328125
-0.0076904296875
0.00439453125
-0.0025634765625
0.00146484375
0.005859375
-0.002197265625
0.0010986328125
-0.000732421875
-0.0010986328125
0.0
-0.0010986328125
0.0010986328125
-0.000732421875
0.000732421875
-0.0018310546875
0.0010986328125
0.003662109375
-0.0018310546875
0.002197265625
-0.00146484375
0.002197265625
-0.0010986328125
0.0032958984375
-0.0018310546875
0.0040283203125
-0.002197265625
0.0025634765625
-0.0010986328125
0.0
0.0
0.005126953125
-0.00146484375
-0.0018310546875
0.000732421875
-0.0040283203125
0.000732421875
-0.0047607421875
0.0029296875
-0.005859375
0.0032958984375
0.0040283203125
-0.002197265625
0.0076904296875
-0.0040283203125
0.0076904296875
-0.0040283203125
0.0062255859375
-0.0029296875
-0.021240234375
0.0106201171875
0.0091552734375
-0.0047607421875
0.019775390625
-0.0098876953125
-0.0164794921875
0.008056640625
0.0029296875
-0.00146484375
0.0091552734375
-0.0047607421875
0.006591796875
-0.0032958984375
0.0098876953125
-0.0047607421875
0.009521484375
-0.005126953125
0.008056640625
-0.0040283203125
0.0069580078125
-0.0032958984375
0.0069580078125
-0.0040283203125
0.0062255859375
-0.0032958984375
-0.0010986328125
0.0010986328125
-0.003662109375
0.00146484375
-0.0032958984375
0.0010986328125
0.000732421875
-0.000732421875
-0.000732421875
0.0003662109375
-0.002197265625
0.00146484375
-0.002197265625
0.00146484375
-0.003662109375
0.0018310546875
-0.0040283203125
0.0018310546875
-0.0062255859375
0.0032958984375
-0.0010986328125
0.000732421875
-0.013916015625
0.006591796875
0.0106201171875
-0.0062255859375
0.0069580078125
-0.0032958984375
-0.0245361328125
0.0128173828125
-0.0003662109375
0.0003662109375
0.0087890625
-0.0040283203125
0.0047607421875
-0.002197265625
-0.0025634765625
0.000732421875
-0.0062255859375
0.0029296875
-0.0025634765625
0.0018310546875
0.0062255859375
-0.0029296875
0.006591796875
-0.0040283203125
0.0018310546875
-0.00146484375
-0.0029296875
0.0018310546875
-0.0069580078125
0.003662109375
-0.0010986328125
0.0003662109375
-0.0003662109375
0.000732421875
-0.000732421875
0.000732421875
-0.000732421875
0.0
0.0018310546875
-0.000732421875
0.00146484375
-0.000732421875
-0.0025634765625
0.0010986328125
-0.000732421875
0.000732421875
-0.0025634765625
0.0010986328125
-0.0018310546875
0.0003662109375
-0.002197265625
0.0010986328125
0.0
0.0003662109375
0.0029296875
-0.0010986328125
0.00439453125
-0.002197265625
-0.032958984375
0.016845703125
0.002197265625
-0.00146484375
0.0289306640625
-0.0146484375
-0.0135498046875
0.00732421875
0.0025634765625
-0.0010986328125
0.0025634765625
-0.00146484375
0.000732421875
-0.000732421875
0.0
0.0
-0.003662109375
0.00146484375
0.0010986328125
-0.000732421875
0.00146484375
-0.0003662109375
0.0040283203125
-0.0018310546875
0.00146484375
0.0
-0.0025634765625
0.00146484375
-0.00439453125
0.00146484375
-0.0018310546875
0.000732421875
0.0010986328125
-0.0003662109375
-0.0032958984375
0.0018310546875
-0.002197265625
0.0010986328125
-0.0032958984375
0.00146484375
-0.0003662109375
0.00146484375
-0.0010986328125
0.000732421875
-0.0047607421875
0.00146484375
-0.0040283203125
0.002197265625
-0.0010986328125
0.0003662109375
-0.0267333984375
0.01318359375
0.0098876953125
-0.0047607421875
0.027099609375
-0.01318359375
-0.0164794921875
0.008056640625
0.000732421875
-0.000732421875
0.006591796875
-0.0029296875
0.0032958984375
-0.0018310546875
0.002197265625
-0.00146484375
-0.0010986328125
0.0010986328125
0.002197265625
-0.000732421875
0.0047607421875
-0.00146484375
0.0069580078125
-0.003662109375
0.002197265625
-0.0025634765625
-0.00146484375
0.0003662109375
-0.00146484375
0.000732421875
-0.0040283203125
0.0018310546875
-0.000732421875
0.000732421875
-0.0025634765625
0.00146484375
0.0010986328125
-0.000732421875
0.0003662109375
0.0
-0.0003662109375
0.0003662109375
0.002197265625
-0.0010986328125
0.0010986328125
-0.0010986328125
0.000732421875
-0.0003662109375
0.0
0.000732421875
0.0025634765625
-0.00146484375
0.002197265625
-0.00146484375
-0.01318359375
0.006591796875
0.0194091796875
-0.0084228515625
0.0150146484375
-0.008056640625
-0.0263671875
0.01171875
-0.005126953125
0.0032958984375
0.0040283203125
-0.002197265625
0.0003662109375
-0.0003662109375
0.002197265625
-0.000732421875
-0.0003662109375
0.0003662109375
0.0003662109375
-0.000732421875
0.0040283203125
-0.002197265625
0.0032958984375
-0.0010986328125
0.0025634765625
-0.00146484375
-0.0003662109375
0.0
0.002197265625
-0.0010986328125
-0.000732421875
0.0
0.00146484375
-0.000732421875
0.0018310546875
-0.0010986328125
-0.000732421875
0.0003662109375
0.0010986328125
0.0
-0.0029296875
0.0010986328125
0.0010986328125
-0.000732421875
0.0029296875
-0.00146484375
0.0018310546875
-0.0003662109375
0.0003662109375
-0.0003662109375
0.002197265625
-0.0018310546875
-0.006591796875
0.003662109375
0.0025634765625
-0.00146484375
0.0076904296875
-0.0040283203125
-0.010986328125
0.0054931640625
0.0010986328125
-0.000732421875
0.0040283203125
-0.0018310546875
0.002197265625
-0.0010986328125
0.002197265625
-0.000732421875
0.002197265625
-0.0010986328125
0.005126953125
-0.0025634765625
0.0010986328125
0.0
0.003662109375
-0.0018310546875
0.000732421875
-0.000732421875
-0.0029296875
0.000732421875
-0.00439453125
0.0025634765625
-0.0040283203125
0.0025634765625
-0.005859375
0.0029296875
-0.005126953125
0.0025634765625
-0.00146484375
0.0003662109375
-0.00439453125
0.0018310546875
-0.0032958984375
0.0018310546875
-0.046875
0.024169921875
-0.0029296875
0.00146484375
0.032958984375
-0.016845703125
-0.0062255859375
0.0032958984375
0.0040283203125
-0.0018310546875
0.0
0.0
0.0010986328125
-0.000732421875
0.0
0.0
0.000732421875
-0.0003662109375
0.0018310546875
-0.0010986328125
0.008056640625
-0.00439453125
0.00146484375
-0.0003662109375
-0.005859375
0.0040283203125
0.000732421875
-0.0010986328125
0.0
0.0
0.0018310546875
-0.000732421875
-0.003662109375
0.0010986328125
-0.005859375
0.0029296875
-0.0047607421875
0.0025634765625
-0.0018310546875
0.0010986328125
0.0
-0.0003662109375
-0.005126953125
0.0025634765625
-0.00146484375
0.000732421875
-0.0106201171875
0.0054931640625
0.013916015625
-0.0069580078125
0.01171875
-0.005859375
-0.019775390625
0.0098876953125
-0.008056640625
0.003662109375
0.00146484375
-0.000732421875
0.003662109375
-0.0018310546875
0.000732421875
-0.0003662109375
-0.002197265625
0.0010986328125
-0.009521484375
0.0047607421875
-0.000732421875
0.000732421875
0.0106201171875
-0.0047607421875
0.0120849609375
-0.0062255859375
0.005126953125
-0.0029296875
0.000732421875
-0.0003662109375
0.0010986328125
-0.0010986328125
-0.00439453125
0.002197265625
-0.00146484375
0.0010986328125
-0.0010986328125
0.0003662109375
0.000732421875
0.0
0.0
0.0
-0.0003662109375
0.0
0.0003662109375
-0.0003662109375
-0.0054931640625
0.0029296875
0.0029296875
-0.00146484375
0.0054931640625
-0.0032958984375
-0.0106201171875
0.005126953125
0.021240234375
-0.0106201171875
0.0164794921875
-0.00732421875
-0.0205078125
0.0106201171875
-0.0029296875
0.000732421875
0.005859375
-0.003662109375
0.0040283203125
-0.002197265625
0.0047607421875
-0.002197265625
0.0040283203125
-0.0018310546875
0.006591796875
-0.0032958984375
0.0047607421875
-0.0029296875
0.0029296875
-0.0018310546875
0.003662109375
-0.0018310546875
-0.003662109375
0.0018310546875
0.00439453125
-0.002197265625
0.0018310546875
-0.0010986328125
-0.006591796875
0.003662109375
-0.0087890625
0.00439453125
-0.00732421875
0.0032958984375
-0.003662109375
0.002197265625
-0.0040283203125
0.0018310546875
-0.0003662109375
0.0
-0.0032958984375
0.0018310546875
-0.005859375
0.0025634765625
-0.0047607421875
0.0025634765625
-0.0494384765625
0.02490234375
-0.000732421875
0.0003662109375
0.041015625
-0.0205078125
-0.00439453125
0.002197265625
0.0025634765625
-0.00146484375
0.0040283203125
-0.002197265625
0.0
0.0003662109375
0.0010986328125
-0.000732421875
-0.00146484375
0.000732421875
-0.0025634765625
0.0010986328125
0.0032958984375
-0.00146484375
0.0029296875
-0.000732421875
0.0025634765625
-0.0010986328125
-0.00439453125
0.002197265625
-0.00146484375
0.000732421875
-0.0010986328125
0.000732421875
-0.00146484375
0.0003662109375
0.00146484375
-0.0010986328125
-0.0032958984375
0.0018310546875
-0.00146484375
0.0010986328125
-0.0010986328125
0.000732421875
0.0010986328125
-0.0010986328125
0.000732421875
-0.0003662109375
-0.00146484375
0.0010986328125
-0.002197265625
0.0010986328125
-0.00146484375
0.0003662109375
-0.002197265625
0.00146484375
-0.003662109375
0.0025634765625
-0.0010986328125
0.0003662109375
-0.00439453125
0.0018310546875
-0.002197265625
0.0003662109375
-0.0087890625
0.0047607421875
-0.019775390625
0.0106201171875
0.008056640625
-0.003662109375
0.0128173828125
-0.006591796875
-0.00146484375
0.0
0.0084228515625
-0.0040283203125
0.0142822265625
-0.00732421875
0.0098876953125
-0.005126953125
0.0047607421875
-0.002197265625
0.002197265625
-0.0010986328125
-0.000732421875
0.0003662109375
0.0047607421875
-0.002197265625
0.009521484375
-0.00439453125
0.0091552734375
-0.0047607421875
-0.005859375
0.0025634765625
-0.009521484375
0.0047607421875
0.0018310546875
-0.000732421875
0.009521484375
-0.0047607421875
0.0040283203125
-0.0018310546875
-0.000732421875
0.0
0.00439453125
-0.0029296875
-0.0106201171875
0.0054931640625
0.016845703125
-0.0084228515625
0.017578125
-0.0087890625
-0.01318359375
0.006591796875
0.0003662109375
-0.0003662109375
0.006591796875
-0.0032958984375
0.00732421875
-0.0032958984375
0.00146484375
-0.000732421875
0.00146484375
-0.0010986328125
-0.00439453125
0.002197265625
-0.0032958984375
0.00146484375
0.0029296875
-0.00146484375
0.00146484375
-0.000732421875
0.0003662109375
0.0
-0.000732421875
0.0
0.0010986328125
-0.0010986328125
-0.0025634765625
0.00146484375
0.0018310546875
-0.000732421875
0.005859375
-0.002197265625
0.005859375
-0.0032958984375
0.000732421875
0.0
-0.002197265625
0.0010986328125
0.002197265625
-0.0029296875
0.0
0.0
0.00146484375
0.0
-0.0010986328125
0.0003662109375
-0.0018310546875
0.0003662109375
-0.043212890625
0.0216064453125
0.005859375
-0.0029296875
0.0384521484375
-0.0194091796875
-0.0113525390625
0.005859375
-0.0003662109375
0.0
-0.0029296875
0.00146484375
-0.0018310546875
0.00146484375
-0.0025634765625
0.0010986328125
0.0003662109375
0.0
-0.00146484375
0.0010986328125
0.0
-0.0003662109375
0.005859375
-0.0029296875
0.000732421875
0.0
0.000732421875
-0.0003662109375
-0.00439453125
0.0018310546875
-0.0018310546875
0.000732421875
-0.000732421875
0.0003662109375
-0.0010986328125
0.000732421875
0.0025634765625
-0.0010986328125
0.0010986328125
-0.0003662109375
0.0
0.0003662109375
-0.0032958984375
0.0010986328125
0.00439453125
-0.0025634765625
0.00439453125
-0.0018310546875
0.0025634765625
-0.0003662109375
-0.0003662109375
0.0
-0.0498046875
0.024169921875
-0.0029296875
0.0018310546875
0.037353515625
-0.0194091796875
-0.002197265625
0.0003662109375
0.00146484375
-0.0003662109375
-0.0003662109375
0.0003662109375
-0.0003662109375
0.0
-0.00146484375
0.000732421875
0.000732421875
0.0
0.0018310546875
-0.000732421875
0.00146484375
-0.000732421875
0.002197265625
-0.000732421875
0.0047607421875
-0.002197265625
0.0
0.0
0.0
0.0
0.0
0.0
-0.0010986328125
0.0003662109375
-0.00146484375
0.0003662109375
-0.00439453125
0.0018310546875
-0.0003662109375
0.0003662109375
-0.000732421875
0.000732421875
-0.000732421875
0.0003662109375
-0.0047607421875
0.002197265625
-0.002197265625
0.0010986328125
0.0
0.0
-0.0032958984375
0.00146484375
0.0003662109375
0.0
-0.0003662109375
0.0
0.0029296875
-0.0018310546875
-0.000732421875
0.000732421875
-0.0040283203125
0.002197265625
0.0010986328125
-0.0010986328125
0.006591796875
-0.0032958984375
-0.0054931640625
0.0029296875
-0.009521484375
0.005126953125
0.0029296875
-0.0010986328125
0.0
0.0
0.0025634765625
-0.00146484375
0.00146484375
-0.000732421875
-0.0003662109375
0.0003662109375
0.0010986328125
-0.000732421875
0.0025634765625
-0.0010986328125
0.0076904296875
-0.0040283203125
0.0010986328125
-0.000732421875
-0.002197265625
0.00146484375
-0.002197265625
0.0010986328125
-0.000732421875
0.0
0.0010986328125
-0.0003662109375
0.000732421875
-0.0003662109375
0.000732421875
-0.000732421875
-0.00146484375
0.00146484375
0.0018310546875
-0.000732421875
-0.0018310546875
0.0003662109375
-0.00146484375
0.000732421875
-0.000732421875
0.0003662109375
-0.0018310546875
0.000732421875
0.000732421875
-0.000732421875
-0.0003662109375
0.0
-0.000732421875
0.0003662109375
-0.0003662109375
0.0003662109375
0.002197265625
-0.0010986328125
-0.0120849609375
0.0062255859375
0.01025390625
-0.005126953125
0.0128173828125
-0.006591796875
-0.0150146484375
0.0076904296875
-0.0010986328125
0.000732421875
0.002197265625
-0.0010986328125
0.0018310546875
-0.000732421875
0.0029296875
-0.000732421875
0.003662109375
-0.002197265625
0.0018310546875
-0.0010986328125
0.002197265625
-0.000732421875
0.003662109375
-0.0018310546875
0.0032958984375
-0.0018310546875
0.0032958984375
-0.002197265625
-0.0029296875
0.0010986328125
-0.0032958984375
0.0018310546875
-0.00439453125
0.002197265625
-0.0003662109375
0.0003662109375
0.0018310546875
-0.000732421875
0.0
-0.000732421875
0.000732421875
-0.000732421875
-0.0032958984375
0.0018310546875
-0.04833984375
0.0245361328125
-0.00146484375
0.000732421875
0.041748046875
-0.0208740234375
-0.005126953125
0.0025634765625
0.0003662109375
-0.0003662109375
0.0018310546875
-0.000732421875
0.000732421875
0.0
0.0010986328125
-0.000732421875
-0.0029296875
0.0010986328125
0.0018310546875
-0.0010986328125
0.005859375
-0.0025634765625
0.005126953125
-0.002197265625
0.00146484375
-0.0010986328125
-0.005859375
0.0025634765625
-0.0025634765625
0.0010986328125
-0.00146484375
0.0010986328125
0.0003662109375
0.0
-0.000732421875
0.0
-0.0010986328125
0.0003662109375
-0.0003662109375
0.0003662109375
0.0
0.000732421875
-0.0003662109375
0.0
-0.002197265625
0.0003662109375
-0.005126953125
0.002197265625
-0.0340576171875
0.0172119140625
0.0113525390625
-0.005859375
0.0303955078125
-0.015380859375
-0.0076904296875
0.0040283203125
0.000732421875
-0.000732421875
-0.0010986328125
0.0003662109375
0.0010986328125
-0.0003662109375
0.0018310546875
-0.0003662109375
0.0029296875
-0.00146484375
0.000732421875
-0.000732421875
0.0040283203125
-0.002197265625
0.0040283203125
-0.0018310546875
0.00146484375
-0.0010986328125
0.0010986328125
-0.000732421875
-0.0040283203125
0.002197265625
-0.0018310546875
0.0003662109375
-0.003662109375
0.0018310546875
0.00146484375
-0.000732421875
0.003662109375
-0.002197265625
0.000732421875
-0.0003662109375
-0.0003662109375
0.000732421875
-0.00146484375
0.000732421875
0.0010986328125
-0.0010986328125
-0.002197265625
0.0010986328125
0.0018310546875
-0.000732421875
-0.0318603515625
0.01611328125
0.0128173828125
-0.006591796875
0.0289306640625
-0.0142822265625
-0.019775390625
0.0098876953125
0.0029296875
-0.0018310546875
0.0018310546875
-0.000732421875
0.00146484375
-0.000732421875
-0.0003662109375
0.0003662109375
0.002197265625
-0.000732421875
0.005859375
-0.0029296875
0.0047607421875
-0.0025634765625
0.00439453125
-0.002197265625
0.0010986328125
-0.000732421875
0.00146484375
-0.000732421875
-0.0018310546875
0.000732421875
-0.0010986328125
0.0003662109375
-0.000732421875
0.0010986328125
-0.0003662109375
0.0
0.000732421875
-0.0003662109375
0.0010986328125
-0.0003662109375
-0.000732421875
0.0
-0.0029296875
0.00146484375
0.0
0.0
0.0
0.0003662109375
0.002197265625
-0.0010986328125
0.0
0.0
-0.0010986328125
0.000732421875
-0.00146484375
0.0003662109375
0.0
0.0003662109375
0.0025634765625
-0.0010986328125
-0.002197265625
0.0003662109375
0.00146484375
-0.000732421875
-0.0439453125
0.0223388671875
0.0
0.0
0.0399169921875
-0.0205078125
-0.0069580078125
0.0029296875
0.002197265625
-0.0003662109375
0.0018310546875
-0.0003662109375
0.0003662109375
-0.000732421875
-0.00146484375
0.0003662109375
0.0
0.0003662109375
-0.0018310546875
0.0010986328125
0.0018310546875
-0.00146484375
0.005859375
-0.0029296875
-0.002197265625
0.00146484375
-0.0025634765625
0.00146484375
0.0003662109375
0.0
0.000732421875
-0.000732421875
-0.00146484375
0.0003662109375
-0.00146484375
0.000732421875
-0.00146484375
0.0010986328125
-0.0010986328125
0.0003662109375
0.0010986328125
-0.000732421875
-0.00732421875
0.0040283203125
0.0084228515625
-0.003662109375
0.005126953125
-0.0025634765625
-0.0142822265625
0.006591796875
-0.005126953125
0.0025634765625
0.0003662109375
0.0
0.0
0.0003662109375
-0.0010986328125
0.0003662109375
0.0003662109375
0.0
-0.000732421875
0.000732421875
0.00732421875
-0.003662109375
0.0084228515625
-0.00439453125
0.0040283203125
-0.0018310546875
-0.0010986328125
0.000732421875
-0.0040283203125
0.00146484375
-0.0010986328125
0.000732421875
-0.0040283203125
0.002197265625
-0.00146484375
0.0
-0.000732421875
0.0003662109375
0.0010986328125
-0.0003662109375
0.0003662109375
-0.0003662109375
0.0
0.0
0.0010986328125
-0.000732421875
-0.0018310546875
0.000732421875
0.0025634765625
-0.00146484375
0.0003662109375
0.0
0.000732421875
0.0
-0.0018310546875
0.0010986328125
-0.035888671875
0.0179443359375
0.0106201171875
-0.0054931640625
0.034423828125
-0.0186767578125
-0.006591796875
0.0025634765625
0.002197265625
-0.0003662109375
0.005126953125
-0.0018310546875
0.002197265625
-0.000732421875
0.0003662109375
-0.000732421875
0.0010986328125
-0.0003662109375
0.0032958984375
-0.000732421875
0.00439453125
-0.00146484375
0.0047607421875
-0.0025634765625
0.0029296875
-0.0032958984375
-0.0025634765625
-0.0003662109375
0.0
0.000732421875
-0.0010986328125
0.0029296875
-0.0025634765625
0.0025634765625
-0.0032958984375
0.000732421875
-0.0018310546875
0.0
0.002197265625
-0.000732421875
0.0
0.0
-0.00146484375
0.0003662109375
-0.00146484375
0.000732421875
-0.018310546875
0.0091552734375
0.0084228515625
-0.005126953125
0.016845703125
-0.008056640625
-0.012451171875
0.00732421875
-0.002197265625
0.00146484375
0.0010986328125
0.0
-0.0010986328125
0.0003662109375
0.002197265625
-0.0010986328125
-0.000732421875
0.0003662109375
-0.0003662109375
0.0003662109375
0.0032958984375
-0.0010986328125
0.0047607421875
-0.002197265625
0.0040283203125
-0.002197265625
-0.002197265625
0.000732421875
-0.002197265625
0.0010986328125
-0.0062255859375
0.0025634765625
-0.0018310546875
0.000732421875
0.0010986328125
0.0
-0.0018310546875
0.000732421875
-0.0025634765625
0.000732421875
-0.0032958984375
0.00146484375
0.00146484375
-0.0003662109375
-0.00146484375
0.000732421875
-0.0010986328125
0.0003662109375
-0.0029296875
0.00146484375
-0.0032958984375
0.0018310546875
-0.046142578125
0.0234375
0.0032958984375
-0.0018310546875
0.0439453125
-0.0223388671875
-0.0091552734375
0.0040283203125
0.0003662109375
-0.0003662109375
0.0
0.000732421875
0.000732421875
0.0
-0.000732421875
0.0
-0.0010986328125
0.000732421875
-0.00146484375
0.000732421875
0.0
0.0
0.0069580078125
-0.003662109375
0.0018310546875
-0.00146484375
0.0
0.0
-0.0018310546875
0.0010986328125
-0.0025634765625
0.0010986328125
-0.00146484375
0.0003662109375
0.0
0.0003662109375
0.002197265625
-0.00146484375
-0.0025634765625
0.0010986328125
-0.0025634765625
0.00146484375
-0.0032958984375
0.0010986328125
0.0003662109375
0.0
0.0003662109375
0.0003662109375
-0.003662109375
0.0018310546875
-0.008056640625
0.0040283203125
0.0087890625
-0.00439453125
0.010986328125
-0.005126953125
-0.015380859375
0.008056640625
-0.0054931640625
0.002197265625
0.00146484375
-0.000732421875
-0.0010986328125
0.0010986328125
-0.00146484375
0.0010986328125
-0.0003662109375
-0.0003662109375
0.000732421875
-0.000732421875
-0.0025634765625
0.00146484375
0.0054931640625
-0.0032958984375
0.0018310546875
-0.0010986328125
0.0
0.0
0.002197265625
-0.0003662109375
0.0003662109375
0.0
0.0
0.0
-0.00146484375
0.000732421875
0.0047607421875
-0.0025634765625
0.0040283203125
-0.0018310546875
0.0029296875
-0.00146484375
-0.0047607421875
0.0029296875
-0.0040283203125
0.00146484375
0.002197265625
-0.0018310546875
0.0040283203125
-0.00146484375
0.0069580078125
-0.0032958984375
-0.016845703125
0.008056640625
0.0186767578125
-0.009521484375
0.016845703125
-0.0084228515625
-0.01904296875
0.009521484375
0.00439453125
-0.002197265625
0.0087890625
-0.00439453125
0.005126953125
-0.002197265625
0.0029296875
-0.0010986328125
0.0054931640625
-0.0025634765625
0.0
0.0
0.00439453125
-0.0025634765625
0.005859375
-0.0025634765625
0.0029296875
-0.0010986328125
-0.002197265625
0.00146484375
-0.0040283203125
0.0018310546875
0.000732421875
0.0
-0.00146484375
0.00146484375
0.000732421875
-0.00146484375
-0.00146484375
0.0003662109375
0.000732421875
-0.0003662109375
0.0025634765625
-0.0003662109375
0.002197265625
-0.0010986328125
0.0
0.0
-0.003662109375
0.0029296875
0.0018310546875
-0.0018310546875
-0.005859375
0.002197265625
0.003662109375
-0.002197265625
0.008056640625
-0.0040283203125
-0.0029296875
0.00146484375
-0.003662109375
0.0018310546875
-0.002197265625
0.0010986328125
0.003662109375
-0.00146484375
0.0010986328125
0.0
0.0018310546875
-0.0010986328125
-0.0010986328125
0.00146484375
0.002197265625
-0.0010986328125
0.005126953125
-0.0032958984375
0.00439453125
-0.002197265625
0.0029296875
-0.0018310546875
-0.0047607421875
0.002197265625
-0.00439453125
0.002197265625
-0.005859375
0.003662109375
-0.000732421875
0.0003662109375
0.0003662109375
0.0
-0.000732421875
0.000732421875
-0.005859375
0.002197265625
-0.0069580078125
0.0032958984375
0.000732421875
-0.0003662109375
-0.0032958984375
0.0018310546875
-0.0003662109375
0.0003662109375
-0.0029296875
0.00146484375
-0.0494384765625
0.02490234375
0.0032958984375
-0.0018310546875
0.04541015625
-0.0234375
-0.0025634765625
0.0010986328125
0.0032958984375
-0.00146484375
0.0040283203125
-0.0018310546875
-0.00146484375
0.000732421875
0.0010986328125
-0.0003662109375
-0.000732421875
0.000732421875
0.0
0.0
0.0010986328125
-0.0003662109375
0.0018310546875
-0.000732421875
0.005126953125
-0.0025634765625
-0.0010986328125
0.0003662109375
-0.0040283203125
0.002197265625
-0.0054931640625
0.0025634765625
-0.0010986328125
0.0
-0.0025634765625
0.0018310546875
-0.006591796875
0.0032958984375
-0.0029296875
0.0010986328125
-0.037353515625
0.0194091796875
0.0120849609375
-0.005859375
0.0340576171875
-0.017578125
-0.0150146484375
0.00732421875
0.0
0.0
0.006591796875
-0.0032958984375
0.0029296875
-0.00146484375
-0.0018310546875
0.0010986328125
0.0
0.0
0.0010986328125
-0.0003662109375
0.0091552734375
-0.00439453125
0.005859375
-0.0029296875
-0.002197265625
0.0010986328125
-0.006591796875
0.0029296875
-0.0029296875
0.0010986328125
0.003662109375
-0.002197265625
0.0029296875
-0.00146484375
0.000732421875
0.0
-0.00439453125
0.002197265625
-0.0029296875
0.0010986328125
-0.0029296875
0.00146484375
0.0029296875
-0.0010986328125
0.0069580078125
-0.0032958984375
0.0010986328125
-0.000732421875
-0.00146484375
0.0003662109375
-0.000732421875
0.0003662109375
0.0047607421875
-0.002197265625
-0.0062255859375
0.0032958984375
-0.0076904296875
0.003662109375
0.005126953125
-0.0025634765625
-0.002197265625
0.000732421875
-0.0054931640625
0.002197265625
0.002197265625
0.0
0.0076904296875
-0.0032958984375
0.008056640625
-0.00439453125
0.006591796875
-0.0029296875
0.0
0.0
0.0010986328125
0.0
0.005126953125
-0.00146484375
0.0047607421875
-0.0032958984375
0.002197265625
-0.002197265625
-0.01318359375
0.0062255859375
-0.0087890625
0.00439453125
-0.002197265625
0.00146484375
-0.003662109375
0.00146484375
-0.003662109375
0.0018310546875
-0.002197265625
0.00146484375
-0.003662109375
0.0018310546875
-0.005126953125
0.0025634765625
0.00146484375
-0.000732421875
-0.00146484375
0.0010986328125
-0.01171875
0.005859375
0.0142822265625
-0.0076904296875
0.013916015625
-0.00732421875
-0.01611328125
0.008056640625
-0.0029296875
0.0018310546875
0.005126953125
-0.0025634765625
0.0010986328125
-0.000732421875
0.000732421875
-0.0003662109375
-0.0054931640625
0.0025634765625
-0.0040283203125
0.0018310546875
0.0029296875
-0.000732421875
0.0069580078125
-0.0032958984375
0.0069580078125
-0.0040283203125
-0.0025634765625
0.00146484375
-0.0029296875
0.0010986328125
-0.0040283203125
0.0018310546875
-0.000732421875
0.000732421875
0.0003662109375
0.0
0.0
-0.0003662109375
-0.000732421875
0.0003662109375
-0.0025634765625
0.00146484375
0.0029296875
-0.0018310546875
0.0010986328125
-0.0003662109375
-0.005126953125
0.0029296875
-0.0069580078125
0.00439453125
-0.0054931640625
0.0029296875
-0.0267333984375
0.0128173828125
0.0135498046875
-0.0069580078125
0.021240234375
-0.010986328125
-0.017578125
0.0087890625
0.000732421875
0.0
-0.0040283203125
0.002197265625
-0.003662109375
0.0018310546875
-0.005859375
0.0025634765625
-0.009521484375
0.00439453125
-0.0032958984375
0.0018310546875
0.0040283203125
-0.0018310546875
0.01025390625
-0.0047607421875
0.0018310546875
-0.0003662109375
0.0
-0.0003662109375
-0.008056640625
0.0032958984375
-0.0098876953125
0.005126953125
-0.002197265625
0.00146484375
0.0010986328125
-0.0003662109375
0.006591796875
-0.0029296875
0.0029296875
-0.0018310546875
0.0010986328125
-0.000732421875
0.0
0.0003662109375
0.0025634765625
-0.0010986328125
0.0029296875
-0.00146484375
-0.0472412109375
0.0238037109375
0.0120849609375
-0.005859375
0.0556640625
-0.0281982421875
-0.0054931640625
0.0029296875
-0.0040283203125
0.002197265625
0.0040283203125
-0.002197265625
0.0047607421875
-0.002197265625
0.000732421875
-0.0003662109375
-0.002197265625
0.00146484375
-0.0018310546875
0.0010986328125
0.005859375
-0.0029296875
0.008056640625
-0.0032958984375
0.005859375
-0.0032958984375
-0.0018310546875
0.0
-0.0032958984375
0.00146484375
-0.0025634765625
0.0018310546875
0.0025634765625
-0.00146484375
0.0029296875
-0.002197265625
-0.0003662109375
0.0003662109375
0.0018310546875
-0.000732421875
-0.0003662109375
0.000732421875
0.0025634765625
-0.00146484375
0.0
-0.0003662109375
0.0
0.0003662109375
0.0
-0.0003662109375
-0.000732421875
0.0
-0.003662109375
0.0018310546875
-0.0179443359375
0.0084228515625
0.0098876953125
-0.0047607421875
0.0128173828125
-0.005859375
-0.0047607421875
0.0025634765625
0.0029296875
-0.0010986328125
0.0018310546875
-0.00146484375
0.002197265625
-0.00146484375
0.0003662109375
0.0
0.0
0.0
-0.002197265625
0.00146484375
0.00439453125
-0.0018310546875
0.00439453125
-0.002197265625
0.0025634765625
-0.0018310546875
0.0
0.0
-0.003662109375
0.002197265625
-0.0018310546875
0.0003662109375
-0.00146484375
0.0003662109375
0.0054931640625
-0.0025634765625
-0.0230712890625
0.0113525390625
0.0091552734375
-0.0040283203125
0.0205078125
-0.01025390625
-0.015380859375
0.0069580078125
0.0018310546875
-0.0010986328125
0.0025634765625
-0.0010986328125
0.0018310546875
-0.000732421875
-0.0018310546875
0.000732421875
0.0025634765625
-0.0010986328125
0.002197265625
-0.00146484375
0.0054931640625
-0.0025634765625
0.0029296875
-0.0010986328125
-0.0010986328125
0.0003662109375
0.00146484375
-0.000732421875
-0.003662109375
0.00146484375
-0.00146484375
0.0003662109375
-0.002197265625
0.0010986328125
0.00146484375
-0.0003662109375
0.0018310546875
-0.0010986328125
-0.000732421875
-0.0003662109375
0.0010986328125
-0.0003662109375
-0.0018310546875
0.00146484375
0.0
-0.0003662109375
0.000732421875
-0.0003662109375
0.00146484375
0.0
0.0
0.0
0.0
-0.0003662109375
-0.0010986328125
0.0003662109375
-0.0029296875
0.00146484375
0.0
0.0
0.00146484375
-0.0003662109375
0.0029296875
-0.00146484375
-0.00732421875
0.003662109375
-0.0303955078125
0.0150146484375
0.01025390625
-0.0054931640625
0.028564453125
-0.0142822265625
-0.0062255859375
0.0029296875
-0.003662109375
0.002197265625
0.0
0.0
0.00146484375
-0.000732421875
0.0032958984375
-0.00146484375
-0.003662109375
0.0018310546875
-0.0025634765625
0.00146484375
0.0040283203125
-0.002197265625
0.00732421875
-0.003662109375
0.008056640625
-0.003662109375
0.0010986328125
-0.0003662109375
-0.0003662109375
0.0
-0.0018310546875
0.000732421875
0.0010986328125
-0.000732421875
0.0003662109375
0.0
0.0029296875
-0.0003662109375
0.002197265625
-0.0010986328125
-0.003662109375
0.000732421875
-0.0040283203125
0.0025634765625
-0.0340576171875
0.0172119140625
0.005859375
-0.0032958984375
0.0223388671875
-0.010986328125
-0.0076904296875
0.003662109375
0.0040283203125
-0.002197265625
-0.00146484375
0.000732421875
0.000732421875
0.0
-0.0032958984375
0.0018310546875
0.0025634765625
-0.00146484375
0.005126953125
-0.0025634765625
0.0047607421875
-0.002197265625
0.0029296875
-0.00146484375
-0.0018310546875
0.000732421875
-0.00439453125
0.002197265625
-0.0054931640625
0.0029296875
0.0
-0.0003662109375
-0.00146484375
0.000732421875
0.0018310546875
-0.0003662109375
0.000732421875
-0.000732421875
0.0
0.0
0.0
0.0003662109375
0.0003662109375
-0.000732421875
-0.0267333984375
0.01318359375
0.008056640625
-0.0029296875
0.02783203125
-0.013916015625
-0.0150146484375
0.006591796875
0.0003662109375
0.0
0.0018310546875
-0.000732421875
-0.0003662109375
0.0
0.0029296875
-0.0010986328125
-0.0003662109375
0.0003662109375
-0.002197265625
0.0003662109375
-0.00146484375
0.000732421875
0.005126953125
-0.002197265625
0.0018310546875
-0.0010986328125
-0.002197265625
0.000732421875
-0.0025634765625
0.00146484375
-0.002197265625
0.00146484375
0.0018310546875
-0.000732421875
-0.000732421875
0.000732421875
-0.0003662109375
0.0
-0.0018310546875
0.000732421875
0.0003662109375
-0.0003662109375
0.0010986328125
-0.0003662109375
0.0010986328125
-0.0003662109375
0.002197265625
-0.00146484375
-0.0025634765625
0.00146484375
-0.015380859375
0.008056640625
0.0208740234375
-0.0106201171875
0.0194091796875
-0.0098876953125
-0.027099609375
0.013916015625
-0.005859375
0.0029296875
0.0040283203125
-0.0025634765625
-0.002197265625
0.000732421875
-0.0040283203125
0.0025634765625
-0.010986328125
0.0062255859375
-0.0069580078125
0.0032958984375
-0.0040283203125
0.0018310546875
0.003662109375
-0.0018310546875
0.005126953125
-0.0029296875
0.0003662109375
-0.0003662109375
0.0003662109375
0.0
-0.0029296875
0.0018310546875
-0.0003662109375
0.0003662109375
-0.002197265625
0.0010986328125
0.0
0.0
-0.0032958984375
0.00146484375
-0.002197265625
0.000732421875
0.005126953125
-0.0025634765625
0.00439453125
-0.0025634765625
-0.0003662109375
0.0
-0.0047607421875
0.0029296875
-0.0010986328125
0.0003662109375
0.0032958984375
-0.00146484375
0.0018310546875
-0.000732421875
-0.0098876953125
0.0047607421875
-0.0325927734375
0.0164794921875
0.006591796875
-0.0032958984375
0.0230712890625
-0.01171875
-0.00439453125
0.0018310546875
0.00146484375
-0.000732421875
0.0029296875
-0.0010986328125
0.003662109375
-0.00146484375
-0.0010986328125
0.000732421875
-0.003662109375
0.0018310546875
0.00146484375
-0.000732421875
0.0076904296875
-0.003662109375
0.003662109375
-0.0018310546875
0.002197265625
-0.000732421875
-0.002197265625
0.0010986328125
0.00146484375
-0.00146484375
0.002197265625
-0.0010986328125
0.0
0.0
0.000732421875
-0.0003662109375
0.0003662109375
0.0
0.005126953125
-0.002197265625
-0.0029296875
0.00146484375
-0.0054931640625
0.0025634765625
-0.052001953125
0.0260009765625
0.0040283203125
-0.002197265625
0.0465087890625
-0.0230712890625
-0.006591796875
0.0032958984375
0.003662109375
-0.002197265625
0.0
0.0
0.0
-0.0003662109375
0.000732421875
-0.000732421875
0.0032958984375
-0.0003662109375
0.0003662109375
0.0
0.000732421875
-0.00146484375
0.00732421875
-0.003662109375
0.0029296875
-0.0010986328125
-0.0018310546875
0.0003662109375
-0.005859375
0.0025634765625
-0.0018310546875
0.0010986328125
0.0003662109375
0.0
0.003662109375
-0.00146484375
0.0025634765625
-0.00146484375
-0.0003662109375
0.0
0.00439453125
-0.002197265625
-0.0399169921875
0.0205078125
0.00732421875
-0.003662109375
0.0399169921875
-0.019775390625
-0.0084228515625
0.0040283203125
-0.0025634765625
0.0003662109375
0.002197265625
-0.0010986328125
0.0029296875
-0.0010986328125
-0.0040283203125
0.0025634765625
-0.0003662109375
0.0003662109375
0.0018310546875
-0.0010986328125
0.0106201171875
-0.005859375
0.0113525390625
-0.0054931640625
0.0040283203125
-0.002197265625
0.000732421875
-0.000732421875
-0.0003662109375
0.0003662109375
0.005859375
-0.0025634765625
0.005859375
-0.0032958984375
0.0040283203125
-0.0029296875
-0.000732421875
0.0
0.0003662109375
-0.0003662109375
-0.0018310546875
0.0018310546875
0.000732421875
-0.0003662109375
0.0076904296875
-0.0047607421875
-0.00732421875
0.003662109375
0.0084228515625
-0.0047607421875
0.01318359375
-0.0069580078125
-0.0113525390625
0.0062255859375
-0.0142822265625
0.0076904296875
-0.0047607421875
0.0032958984375
-0.0018310546875
0.0003662109375
-0.0047607421875
0.00146484375
-0.00146484375
0.0010986328125
-0.005859375
0.0029296875
-0.0032958984375
0.00146484375
0.0025634765625
-0.0010986328125
0.005859375
-0.0029296875
0.002197265625
-0.0010986328125
-0.0047607421875
0.002197265625
-0.00439453125
0.002197265625
-0.003662109375
0.002197265625
-0.002197265625
0.00146484375
-0.0142822265625
0.0069580078125
0.0157470703125
-0.0091552734375
0.0084228515625
-0.0040283203125
-0.0281982421875
0.015380859375
-0.0128173828125
0.006591796875
-0.00439453125
0.002197265625
0.002197265625
-0.0010986328125
0.0003662109375
-0.0003662109375
0.0010986328125
-0.0003662109375
-0.002197265625
0.0010986328125
0.000732421875
-0.000732421875
0.0032958984375
-0.00146484375
0.0018310546875
-0.000732421875
0.00146484375
-0.000732421875
-0.00439453125
0.0029296875
0.0003662109375
0.0
-0.0003662109375
0.0003662109375
0.0
0.0
0.0018310546875
-0.0010986328125
-0.0003662109375
0.000732421875
-0.00146484375
0.000732421875
-0.00732421875
0.0029296875
-0.005126953125
0.0018310546875
-0.0010986328125
0.0010986328125
-0.00146484375
0.00146484375
-0.044677734375
0.02197265625
0.01025390625
-0.005126953125
0.0413818359375
-0.0208740234375
-0.0098876953125
0.0047607421875
0.0040283203125
-0.0018310546875
0.0003662109375
0.0
0.0
0.0
-0.002197265625
0.000732421875
-0.0003662109375
0.000732421875
0.0
0.0
0.0029296875
-0.002197265625
0.0076904296875
-0.0032958984375
0.0029296875
-0.0010986328125
0.0010986328125
-0.000732421875
-0.002197265625
0.0003662109375
-0.0003662109375
-0.0003662109375
-0.0040283203125
0.0029296875
-0.0025634765625
0.0010986328125
-0.0010986328125
0.0
-0.0029296875
0.00146484375
0.00146484375
-0.0010986328125
-0.0018310546875
0.0010986328125
0.00146484375
-0.0003662109375
0.0
0.0
-0.0010986328125
0.0003662109375
-0.006591796875
0.0032958984375
-0.000732421875
0.0003662109375
0.0146484375
-0.00732421875
-0.0032958984375
0.00146484375
-0.009521484375
0.0047607421875
-0.00146484375
0.0010986328125
0.0
0.0
-0.00146484375
0.0010986328125
-0.000732421875
0.0
-0.0018310546875
0.0
-0.0029296875
0.0018310546875
0.0047607421875
-0.002197265625
0.005126953125
-0.0025634765625
0.0029296875
-0.00146484375
-0.0032958984375
0.0010986328125
-0.00439453125
0.002197265625
-0.0032958984375
0.0018310546875
-0.0025634765625
0.0010986328125
-0.0010986328125
0.000732421875
-0.0025634765625
0.00146484375
-0.002197265625
0.000732421875
-0.0018310546875
0.0003662109375
-0.000732421875
0.0003662109375
-0.0040283203125
0.0029296875
-0.0025634765625
0.00146484375
-0.0040283203125
0.00146484375
-0.0531005859375
0.0263671875
0.0084228515625
-0.0040283203125
0.046875
-0.0234375
-0.008056640625
0.0040283203125
-0.0010986328125
0.000732421875
-0.000732421875
0.0
-0.0003662109375
0.0
-0.000732421875
0.0003662109375
-0.0018310546875
0.00146484375
-0.0025634765625
0.00146484375
0.0029296875
-0.002197265625
0.00439453125
-0.002197265625
0.0029296875
-0.00146484375
-0.0062255859375
0.0032958984375
-0.005859375
0.0029296875
-0.0029296875
0.0010986328125
-0.003662109375
0.0018310546875
-0.0010986328125
0.0003662109375
-0.005126953125
0.0025634765625
-0.0047607421875
0.002197265625
-0.0003662109375
0.0
-0.0322265625
0.0164794921875
0.0062255859375
-0.0032958984375
0.029296875
-0.0142822265625
-0.01611328125
0.008056640625
-0.0025634765625
0.0003662109375
0.009521484375
-0.005126953125
0.0029296875
-0.00146484375
-0.002197265625
0.0018310546875
-0.0047607421875
0.0029296875
-0.005859375
0.0029296875
-0.005126953125
0.0018310546875
-0.002197265625
0.000732421875
0.0
0.0
-0.0069580078125
0.0032958984375
-0.005859375
0.0029296875
-0.0076904296875
0.0040283203125
-0.0047607421875
0.0025634765625
-0.00439453125
0.0018310546875
-0.00439453125
0.0025634765625
-0.0040283203125
0.0018310546875
-0.0076904296875
0.0029296875
-0.0047607421875
0.0025634765625
-0.0062255859375
0.0032958984375
-0.0018310546875
0.000732421875
-0.0032958984375
0.00146484375
-0.0062255859375
0.0025634765625
-0.006591796875
0.0029296875
-0.0120849609375
0.0062255859375
-0.01904296875
0.0091552734375
0.0062255859375
-0.0032958984375
0.0087890625
-0.00439453125
-0.0157470703125
0.00732421875
-0.0040283203125
0.002197265625
-0.002197265625
0.00146484375
-0.0018310546875
0.000732421875
-0.000732421875
0.0
-0.005859375
0.0025634765625
-0.0029296875
0.00146484375
0.000732421875
-0.0003662109375
0.003662109375
-0.00146484375
0.0010986328125
-0.0003662109375
-0.0010986328125
-0.0003662109375
-0.0032958984375
0.00146484375
-0.0054931640625
0.0029296875
-0.0018310546875
0.000732421875
-0.0010986328125
0.0003662109375
0.0003662109375
-0.0003662109375
-0.0032958984375
0.00146484375
-0.00146484375
0.00146484375
-0.0010986328125
0.0003662109375
-0.0135498046875
0.005126953125
0.0128173828125
-0.006591796875
0.013916015625
-0.0062255859375
-0.0194091796875
0.0098876953125
-0.0142822265625
0.0069580078125
-0.0003662109375
0.0003662109375
-0.0003662109375
0.0
-0.002197265625
0.000732421875
-0.003326416015625
0.0018310546875
-0.007354736328125
0.003662109375
0.0003662109375
-0.0003662109375
0.005889892578125
-0.0029296875
0.005523681640625
-0.0029296875
-0.003326416015625
0.0010986328125
-0.006988525390625
0.0029296875
-0.005126953125
0.0029296875
-0.003662109375
0.0018310546875
0.0003662109375
-0.0003662109375
-0.002197265625
0.0010986328125
-0.0032958984375
0.00146484375
-0.00439453125
0.002197265625
-0.0018310546875
0.000732421875
-0.0018310546875
0.0003662109375
-0.0010986328125
0.0
-0.000732421875
0.0003662109375
-0.003662109375
0.002197265625
-0.0032958984375
0.0018310546875
-0.005126953125
0.0018310546875
0.0003662109375
-0.000732421875
-0.000732421875
0.0
0.0003662109375
-0.0003662109375
-0.0260009765625
0.0135498046875
0.0054931640625
-0.0032958984375
0.02490234375
-0.01318359375
-0.01611328125
0.0084228515625
-0.0047607421875
0.002197265625
-0.002197265625
0.00146484375
-0.0029296875
0.0018310546875
-0.0040283203125
0.00146484375
-0.0029296875
0.0010986328125
-0.0032958984375
0.00146484375
-0.0040283203125
0.002197265625
0.000732421875
0.0
-0.0018310546875
0.0003662109375
-0.00146484375
0.0
-0.0029296875
0.0010986328125
-0.0029296875
0.00146484375
-0.005126953125
0.0029296875
-0.0062255859375
0.0029296875
-0.002197265625
0.0010986328125
-0.0025634765625
0.0010986328125
0.0
0.0003662109375
-0.000732421875
0.0003662109375
-0.04248046875
0.0205078125
0.0029296875
-0.002197265625
0.03662109375
-0.01904296875
-0.0106201171875
0.0054931640625
-0.0025634765625
0.00146484375
-0.000732421875
0.0003662109375
-0.00439453125
0.0029296875
-0.0010986328125
0.0003662109375
-0.0029296875
0.000732421875
-0.002197265625
0.0018310546875
0.00146484375
-0.000732421875
0.0018310546875
-0.0018310546875
0.0003662109375
0.0
-0.0047607421875
0.002197265625
-0.002197265625
0.000732421875
-0.00439453125
0.0018310546875
-0.0040283203125
0.000732421875
-0.0032958984375
0.00146484375
-0.0018310546875
0.00146484375
0.0018310546875
-0.000732421875
-0.000732421875
0.0
-0.0018310546875
0.0003662109375
-0.0029296875
0.00146484375
-0.0010986328125
0.0003662109375
-0.002197265625
0.000732421875
-0.0010986328125
0.0003662109375
-0.002197265625
0.0010986328125
-0.0018310546875
0.0010986328125
-0.01611328125
0.008056640625
0.01171875
-0.005859375
0.0194091796875
-0.0098876953125
-0.0230712890625
0.010986328125
-0.0091552734375
0.00439453125
-0.0003662109375
0.00146484375
-0.0032958984375
0.00146484375
-0.0029296875
0.0003662109375
-0.0032958984375
0.00146484375
-0.0040283203125
0.00146484375
-0.0054931640625
0.0029296875
0.002197265625
-0.00146484375
0.0025634765625
-0.00146484375
0.00146484375
-0.0003662109375
-0.00146484375
0.0003662109375
-0.002197265625
0.000732421875
0.0003662109375
-0.0003662109375
-0.0032958984375
0.0018310546875
-0.0018310546875
0.000732421875
-0.0025634765625
0.000732421875
-0.0010986328125
0.0003662109375
-0.0029296875
0.00146484375
-0.0018310546875
0.0010986328125
-0.0025634765625
0.0010986328125
-0.0029296875
0.0010986328125
0.000732421875
0.0
-0.0029296875
0.00146484375
-0.000732421875
-0.0003662109375
-0.0025634765625
0.0010986328125
-0.006591796875
0.003662109375
-0.034423828125
0.016845703125
0.0091552734375
-0.005126953125
0.029296875
-0.0150146484375
-0.0113525390625
0.0054931640625
0.0018310546875
-0.000732421875
-0.00146484375
0.0003662109375
0.0
0.0003662109375
-0.002197265625
0.0018310546875
-0.0054931640625
0.002197265625
-0.0040283203125
0.0018310546875
-0.0032958984375
0.00146484375
0.0040283203125
-0.0018310546875
-0.0010986328125
0.0003662109375
-0.003662109375
0.0010986328125
-0.0047607421875
0.0018310546875
-0.00439453125
0.0018310546875
-0.0025634765625
0.0010986328125
-0.00146484375
0.0003662109375
-0.0003662109375
0.0003662109375
-0.005126953125
0.0025634765625
-0.002197265625
0.0010986328125
-0.005126953125
0.002197265625
-0.0494384765625
0.024932861328125
0.006591796875
-0.0032958984375
0.0435791015625
-0.022369384765625
-0.010986328125
0.0054931640625
-0.003662109375
0.0010986328125
0.002197265625
-0.00146484375
0.0
0.0003662109375
0.000732421875
-0.000732421875
-0.0025634765625
0.0010986328125
-0.0003662109375
0.0
0.003662109375
-0.002197265625
0.005126953125
-0.002197265625
0.0076904296875
-0.003662109375
0.0010986328125
-0.0010986328125
0.0010986328125
-0.0010986328125
-0.0003662109375
0.0003662109375
0.0
0.0
-0.000732421875
0.0
-0.0018310546875
0.000732421875
-0.0025634765625
0.000732421875
-0.0054931640625
0.002197265625
-0.00146484375
0.0010986328125
-0.00439453125
0.0025634765625
-0.050537109375
0.025299072265625
0.005859375
-0.0029296875
0.0465087890625
-0.024200439453125
-0.0098876953125
0.0047607421875
-0.00146484375
0.0010986328125
0.0018310546875
-0.0010986328125
-0.00439453125
0.0025634765625
-0.0010986328125
0.0003662109375
-0.0018310546875
0.0003662109375
-0.002197265625
0.00146484375
-0.000732421875
0.0
0.002197265625
-0.0018310546875
0.0040283203125
-0.0018310546875
-0.000732421875
0.0003662109375
-0.0029296875
0.00146484375
-0.0054931640625
0.0025634765625
-0.0003662109375
0.0
0.000732421875
-0.0003662109375
0.00146484375
-0.0010986328125
-0.0010986328125
0.0003662109375
-0.0032958984375
0.00146484375
-0.0040283203125
0.001861572265625
-0.0084228515625
0.004058837890625
-0.0032958984375
0.00146484375
-0.008056640625
0.00439453125
-0.04541015625
0.0230712890625
-0.028564453125
0.01318359375
-0.046875
0.0234375
-0.128936767578125
0.06591796875
-0.100738525390625
0.0509033203125
-0.0234375
0.012451171875
0.04833984375
-0.0238037109375
-0.111328125
0.0574951171875
-0.1226806640625
0.0633544921875
0.1142578125
-0.0556640625
-0.01611328125
0.010986328125
-0.123046875
0.063720703125
0.312042236328125
-0.156402587890625
0.335113525390625
-0.167388916015625
-0.0164794921875
0.009918212890625
-0.0692138671875
0.036651611328125
-0.0706787109375
0.037353515625
-0.0208740234375
0.012451171875
-0.0003662109375
0.0018310546875
0.0040283203125
-0.000732421875
-0.000732421875
0.002197265625
-0.02197265625
0.0120849609375
-0.0428466796875
0.0230712890625
-0.024169921875
0.01318359375
-0.012451171875
0.00732421875
-0.0025634765625
0.0029296875
-0.012481689453125
0.0076904296875
-0.022369384765625
0.0120849609375
-0.0703125
0.0362548828125
0.017608642578125
-0.00732421875
0.112091064453125
-0.0556640625
0.032958984375
-0.015380859375
0.060791015625
-0.029296875
0.1142578125
-0.0574951171875
0.097412109375
-0.049102783203125
0.1083984375
-0.053497314453125
0.115386962890625
-0.057861328125
0.029327392578125
-0.0164794921875
-0.017578125
0.008056640625
0.0904541015625
-0.0450439453125
-0.092681884765625
0.0479736328125
-0.46368408203125
0.233673095703125
-0.277984619140625
0.139556884765625
0.078765869140625
-0.03955078125
0.174713134765625
-0.0889892578125
0.2164306640625
-0.111724853515625
0.1365966796875
-0.071441650390625
0.184967041015625
-0.0963134765625
0.160797119140625
-0.0860595703125
0.08203125
-0.044677734375
0.1754150390625
-0.08935546875
0.160064697265625
-0.0816650390625
-0.00732421875
0.0029296875
-0.113189697265625
0.05712890625
-0.0721435546875
0.0362548828125
-0.0677490234375
0.032958984375
-0.0556640625
0.0274658203125
-0.0567626953125
0.0296630859375
-0.05712890625
0.0289306640625
-0.0655517578125
0.0325927734375
-0.0556640625
0.0274658203125
-0.03369140625
0.016845703125
-0.0362548828125
0.018310546875
-0.046173095703125
0.0230712890625
-0.051300048828125
0.025634765625
-0.046875
0.0238037109375
-0.0384521484375
0.0201416015625
-0.027099609375
0.0135498046875
-0.027099609375
0.01318359375
-0.03076171875
0.0150146484375
-0.0347900390625
0.017608642578125
-0.0369873046875
0.018707275390625
-0.032958984375
0.016845703125
-0.0516357421875
0.0263671875
-0.05859375
0.029296875
-0.0472412109375
0.0238037109375
0.0040283203125
-0.0018310546875
-0.041046142578125
0.021240234375
-0.03369140625
0.0164794921875
0.35382080078125
-0.181671142578125
0.406158447265625
-0.208038330078125
0.06298828125
-0.0333251953125
-0.041748046875
0.0186767578125
0.239898681640625
-0.12451171875
0.286407470703125
-0.147216796875
0.0205078125
-0.0128173828125
-0.03369140625
0.0142822265625
-0.121246337890625
0.05859375
-0.161895751953125
0.078369140625
-0.0791015625
0.0377197265625
0.063720703125
-0.032958984375
0.08203125
-0.0435791015625
0.058624267578125
-0.031494140625
0.046905517578125
-0.0252685546875
-0.056060791015625
0.0263671875
-0.110626220703125
0.05419921875
-0.1201171875
0.0589599609375
-0.1640625
0.0816650390625
-0.171051025390625
0.0845947265625
-0.104766845703125
0.0501708984375
-0.0018310546875
-0.0010986328125
0.0640869140625
-0.0325927734375
0.149810791015625
-0.073974609375
0.54571533203125
-0.274688720703125
0.70611572265625
-0.354888916015625
0.104766845703125
-0.0487060546875
-0.62847900390625
0.319366455078125
-0.40838623046875
0.213165283203125
0.0574951171875
-0.02490234375
0.0208740234375
-0.0087890625
0.260040283203125
-0.127471923828125
0.167755126953125
-0.083160400390625
-0.1036376953125
0.055328369140625
-0.145782470703125
0.076202392578125
-0.115020751953125
0.0604248046875
-0.071044921875
0.0380859375
-0.125244140625
0.066650390625
-0.0816650390625
0.043212890625
-0.1029052734375
0.0545654296875
-0.044677734375
0.025634765625
-0.05126953125
0.028564453125
-0.0633544921875
0.034423828125
-0.084259033203125
0.044677734375
-0.119415283203125
0.063720703125
-0.109130859375
0.058258056640625
-0.1409912109375
0.075103759765625
-0.043212890625
0.024169921875
-0.049102783203125
0.0274658203125
-0.017578125
0.01171875
-0.009521484375
0.005126953125
0.0465087890625
-0.0230712890625
0.178375244140625
-0.0926513671875
0.19189453125
-0.099639892578125
0.1007080078125
-0.052032470703125
0.36077880859375
-0.186767578125
-0.0479736328125
0.0205078125
-0.762908935546875
0.382720947265625
-0.52630615234375
0.308746337890625
-0.191558837890625
0.45892333984375
0.0
0.31646728515625
0.0
0.0
0.0
0.0003662109375
0.0
-0.225616455078125
0.0
-0.197052001953125
0.0
0.10546875
0.0
0.1116943359375
0.0
-0.218292236328125
0.175811767578125
-0.383087158203125
0.290069580078125
-0.1885986328125
-0.0263671875
0.0098876953125
-0.282012939453125
0.13916015625
-0.0714111328125
0.0340576171875
0.068511962890625
-0.03662109375
0.0421142578125
-0.0234375
-0.0413818359375
0.01904296875
-0.0421142578125
0.0194091796875
0.0135498046875
-0.0091552734375
-0.060455322265625
0.029296875
-0.048736572265625
0.0406494140625
0.064483642578125
-0.03369140625
0.142120361328125
-0.0904541015625
0.06298828125
-0.032958984375
0.035888671875
-0.0194091796875
-0.013916015625
0.0054931640625
-0.0596923828125
0.0296630859375
-0.03955078125
0.01904296875
-0.0823974609375
0.041015625
-0.0428466796875
0.0208740234375
0.028564453125
-0.0157470703125
0.0216064453125
-0.0128173828125
0.019775390625
-0.0128173828125
0.0849609375
-0.0457763671875
0.1534423828125
-0.0794677734375
0.168121337890625
-0.0860595703125
0.0216064453125
-0.01171875
-0.134796142578125
0.0677490234375
-0.0750732421875
0.0369873046875
-0.1343994140625
0.0670166015625
-0.0142822265625
0.0069580078125
0.410552978515625
-0.209503173828125
0.420074462890625
-0.212432861328125
0.42852783203125
-0.2186279296875
0.52484130859375
-0.267364501953125
0.0281982421875
-0.0186767578125
-1.0
0.56768798828125
-0.9215087890625
0.61859130859375
-0.0003662109375
0.39996337890625
0.0
0.1446533203125
0.0
-0.121612548828125
0.0
-0.065185546875
0.0
-0.097412109375
0.0
-0.027099609375
0.0
0.010986328125
0.0
0.0087890625
0.0
0.003662109375
0.0
-0.0087890625
0.0
-0.0040283203125
0.0
-0.002197265625
0.0
0.006591796875
0.0
0.00146484375
0.0
-0.009521484375
0.0
-0.01611328125
0.0
-0.013916015625
0.0
-0.109893798828125
0.44281005859375
-0.39337158203125
0.807220458984375
-0.469512939453125
0.205841064453125
-0.1043701171875
-0.231475830078125
0.1171875
-0.0201416015625
0.01171875
-0.0325927734375
0.018310546875
-0.065948486328125
0.0369873046875
-0.144287109375
0.075469970703125
-0.277984619140625
0.141754150390625
-0.195587158203125
0.099609375
-0.1673583984375
0.0860595703125
-0.154541015625
0.079833984375
-0.116851806640625
0.0721435546875
-0.048736572265625
0.05712890625
-0.0003662109375
0.0498046875
0.0
0.01318359375
0.0
-0.027099609375
0.0
-0.0267333984375
0.0
-0.0274658203125
0.0
-0.010986328125
0.099639892578125
-0.0516357421875
0.076202392578125
-0.03955078125
0.0
0.00146484375
-0.0032958984375
0.0032958984375
-0.0018310546875
0.0018310546875
0.0443115234375
-0.021240234375
0.0465087890625
-0.02197265625
0.0545654296875
-0.027099609375
0.034423828125
-0.01611328125
0.0413818359375
-0.0194091796875
0.0574951171875
-0.02783203125
0.071044921875
-0.0347900390625
0.0640869140625
-0.031494140625
0.036651611328125
-0.017578125
0.058624267578125
-0.0281982421875
0.0743408203125
-0.035888671875
0.0809326171875
-0.03955078125
0.0552978515625
-0.0263671875
0.0472412109375
-0.022369384765625
0.0260009765625
-0.011749267578125
-0.030029296875
0.016876220703125
-0.0340576171875
0.018341064453125
-0.0194091796875
0.0106201171875
-0.02490234375
0.01318359375
-0.078369140625
0.03955078125
-0.0289306640625
0.0157470703125
-0.0076904296875
0.0062255859375
-0.0435791015625
0.022705078125
-0.02490234375
0.012451171875
-0.044342041015625
0.022705078125
-0.049835205078125
0.025634765625
-0.0750732421875
0.038818359375
-0.0673828125
0.03515625
0.075439453125
-0.035888671875
-0.1124267578125
0.05859375
0.123077392578125
-0.0596923828125
0.407623291015625
-0.203277587890625
-0.044677734375
0.0234375
-0.297027587890625
0.149810791015625
-0.111358642578125
0.0552978515625
0.273590087890625
-0.136993408203125
0.120147705078125
-0.060791015625
-0.260040283203125
0.128936767578125
-0.153839111328125
0.0765380859375
0.01904296875
-0.009521484375
0.0662841796875
-0.0340576171875
0.073974609375
-0.038818359375
0.064117431640625
-0.0325927734375
0.33184814453125
-0.166656494140625
0.53472900390625
-0.268096923828125
0.224853515625
-0.1124267578125
0.075439453125
-0.037353515625
-0.00146484375
0.0018310546875
-0.00732421875
0.003662109375
0.40948486328125
-0.206573486328125
0.444244384765625
-0.225616455078125
0.040283203125
-0.0223388671875
-0.1307373046875
0.0648193359375
0.175811767578125
-0.1146240234375
0.194488525390625
-0.0985107421875
-0.305084228515625
0.1790771484375
-0.190460205078125
0.097412109375
0.104736328125
-0.0523681640625
0.013916015625
-0.008056640625
-0.0333251953125
0.015380859375
-0.111328125
0.0545654296875
-0.126007080078125
0.0626220703125
-0.136993408203125
0.06884765625
-0.1640625
0.082061767578125
-0.157470703125
0.078765869140625
-0.146514892578125
0.0728759765625
-0.090118408203125
0.0439453125
-0.054931640625
0.027099609375
-0.0589599609375
0.029296875
-0.0823974609375
0.0406494140625
-0.0791015625
0.03955078125
-0.0369873046875
0.0186767578125
-0.0439453125
0.02197265625
-0.043212890625
0.0208740234375
-0.056060791015625
0.02783203125
-0.066314697265625
0.032958984375
-0.0465087890625
0.022705078125
-0.02490234375
0.012451171875
-0.0263671875
0.01318359375
-0.0406494140625
0.0201416015625
-0.0194091796875
0.0087890625
-0.0062255859375
0.0029296875
-0.0091552734375
0.005126953125
-0.0380859375
0.019073486328125
-0.03515625
0.017608642578125
-0.03076171875
0.015380859375
-0.0003662109375
-0.000732421875
0.0296630859375
-0.0150146484375
-0.0010986328125
0.0010986328125
-0.0274658203125
0.013916015625
-0.0362548828125
0.01904296875
0.0194091796875
-0.0091552734375
0.0662841796875
-0.032958984375
0.0604248046875
-0.030059814453125
0.041015625
-0.020172119140625
0.1014404296875
-0.0498046875
0.0732421875
-0.035888671875
-0.185302734375
0.095611572265625
-0.57135009765625
0.333648681640625
-0.39849853515625
0.2149658203125
1.0
-0.56878662109375
1.0
-0.64642333984375
0.269195556640625
-0.1318359375
-0.0128173828125
0.0076904296875
-0.171783447265625
0.087890625
-0.147613525390625
0.07470703125
-0.09375
0.048370361328125
-0.154541015625
0.079132080078125
-0.167755126953125
0.0849609375
-0.118316650390625
0.0604248046875
-0.0919189453125
0.0472412109375
-0.0875244140625
0.04541015625
-0.1087646484375
0.0560302734375
-0.0435791015625
0.022705078125
-0.0216064453125
0.0113525390625
-0.08349609375
0.0428466796875
-0.067413330078125
0.0347900390625
-0.053497314453125
0.0281982421875
-0.0413818359375
0.0223388671875
-0.0274658203125
0.0146484375
-0.0281982421875
0.015380859375
-0.0289306640625
0.015380859375
-0.025634765625
0.013946533203125
-0.0142822265625
0.008087158203125
-0.0142822265625
0.0084228515625
-0.0238037109375
0.01318359375
-0.021240234375
0.0106201171875
-0.0205078125
0.0113525390625
-0.0157470703125
0.0091552734375
-0.00439453125
0.0025634765625
-0.005126953125
0.0029296875
-0.0069580078125
0.00439453125
-0.0098876953125
0.005859375
-0.0054931640625
0.0029296875
0.0
0.0003662109375
-0.006591796875
0.003662109375
0.027099609375
-0.0135498046875
0.0289306640625
-0.0135498046875
-0.009521484375
0.005859375
-0.005859375
0.0032958984375
0.0032958984375
-0.00146484375
0.0010986328125
-0.0003662109375
0.0087890625
-0.0040283203125
0.0128173828125
-0.005859375
0.0025634765625
-0.0010986328125
0.01025390625
-0.0047607421875
0.0230712890625
-0.010986328125
0.0098876953125
-0.0047607421875
0.0465087890625
-0.023468017578125
0.053466796875
-0.025665283203125
-0.432525634765625
0.221588134765625
-0.453399658203125
0.230743408203125
0.53216552734375
-0.265533447265625
0.900970458984375
-0.451202392578125
0.428863525390625
-0.216064453125
0.324493408203125
-0.167022705078125
0.246490478515625
-0.128936767578125
0.0018310546875
-0.0032958984375
-0.088623046875
0.041748046875
-0.262603759765625
0.130767822265625
-0.49041748046875
0.245758056640625
-0.54534912109375
0.272125244140625
-0.341705322265625
0.170318603515625
-0.241729736328125
0.1197509765625
-0.205108642578125
0.1021728515625
-0.1116943359375
0.0560302734375
-0.0487060546875
0.0234375
-0.03515625
0.0164794921875
-0.0267333984375
0.0128173828125
-0.02197265625
0.0098876953125
-0.0311279296875
0.0150146484375
-0.01904296875
0.0091552734375
-0.0018310546875
0.0
0.0029296875
-0.002197265625
0.0018310546875
-0.00146484375
0.01025390625
-0.005859375
0.0216064453125
-0.0113525390625
0.02490234375
-0.0128173828125
0.0333251953125
-0.0172119140625
0.032958984375
-0.0164794921875
0.0347900390625
-0.0172119140625
0.030029296875
-0.0150146484375
0.0340576171875
-0.017578125
0.0421142578125
-0.0216064453125
0.0443115234375
-0.02197265625
-0.0230712890625
0.0120849609375
0.0216064453125
-0.01171875
0.106201171875
-0.0538330078125
0.095611572265625
-0.0479736328125
0.241363525390625
-0.121612548828125
0.274322509765625
-0.138092041015625
0.184234619140625
-0.0941162109375
-0.045806884765625
0.0201416015625
0.16259765625
-0.087158203125
0.875335693359375
-0.453765869140625
0.616058349609375
-0.58489990234375
0.039581298828125
-0.38385009765625
0.0
-0.098907470703125
0.0
0.0
0.0
0.0
0.0
0.041778564453125
0.0
0.309478759765625
-0.233673095703125
0.453399658203125
-0.43365478515625
0.287506103515625
-0.41387939453125
0.210968017578125
-0.331817626953125
0.169586181640625
-0.304718017578125
0.1556396484375
-0.324859619140625
0.165924072265625
-0.254547119140625
0.130401611328125
-0.181671142578125
0.0941162109375
-0.1552734375
0.0802001953125
-0.199615478515625
0.1029052734375
-0.132965087890625
0.076171875
-0.0234375
0.067047119140625
0.0
0.017578125
0.0
-0.019775390625
0.0
0.013214111328125
0.0
0.0164794921875
0.0
0.02197265625
0.0
-0.0087890625
0.0
-0.0135498046875
0.0
-0.009552001953125
0.0
-0.015411376953125
0.0
-0.0135498046875
0.0
-0.016845703125
0.0
-0.000732421875
0.01171875
-0.0113525390625
0.0274658203125
-0.024169921875
0.049835205078125
-0.0245361328125
0.041046142578125
-0.019775390625
0.041748046875
-0.0205078125
0.0311279296875
-0.015380859375
0.015380859375
-0.0069580078125
0.041748046875
-0.0205078125
0.0362548828125
-0.0179443359375
0.0421142578125
-0.021240234375
0.0267333984375
-0.012451171875
-0.0618896484375
0.0318603515625
0.0150146484375
-0.0076904296875
0.10693359375
-0.0538330078125
0.0501708984375
-0.02490234375
0.041015625
-0.019775390625
0.094512939453125
-0.047607421875
0.246124267578125
-0.12451171875
0.71929931640625
-0.364410400390625
0.97900390625
-0.586395263671875
0.43438720703125
-0.53436279296875
0.0003662109375
-0.306915283203125
0.0
-0.082794189453125
0.0003662109375
0.0
0.0
0.0
-0.0003662109375
0.0
0.0003662109375
0.0
0.0
0.0
0.0
0.0
0.0
0.0
-0.0003662109375
0.0
0.0
0.0
0.0
0.050933837890625
0.0
0.137725830078125
0.0
0.1629638671875
0.0003662109375
0.1234130859375
0.0
0.09228515625
-0.0003662109375
0.089019775390625
-0.000732421875
0.087921142578125
-0.060821533203125
0.076904296875
-0.109527587890625
0.0582275390625
-0.0904541015625
0.046142578125
-0.1014404296875
0.0516357421875
-0.1029052734375
0.0523681640625
-0.0849609375
0.0439453125
-0.070343017578125
0.03515625
-0.071807861328125
0.0355224609375
-0.08056640625
0.041748046875
-0.079833984375
0.040679931640625
-0.0908203125
0.045074462890625
-0.050537109375
0.025634765625
-0.03955078125
0.0205078125
-0.0670166015625
0.03369140625
-0.05859375
0.0296630859375
-0.049468994140625
0.0252685546875
-0.041412353515625
0.0208740234375
-0.0435791015625
0.0216064453125
-0.038818359375
0.019775390625
-0.041748046875
0.0216064453125
-0.0377197265625
0.0186767578125
-0.0186767578125
0.0091552734375
-0.0252685546875
0.01171875
-0.0223388671875
0.009521484375
-0.0128173828125
0.0054931640625
-0.0208740234375
0.0087890625
-0.03515625
0.0164794921875
-0.0205078125
0.009521484375
0.0289306640625
-0.015380859375
0.109130859375
-0.0560302734375
0.182769775390625
-0.0926513671875
0.245758056640625
-0.1234130859375
0.2501220703125
-0.126739501953125
0.123077392578125
-0.063018798828125
0.160430908203125
-0.081298828125
0.275787353515625
-0.1380615234375
0.162994384765625
-0.13916015625
0.029296875
-0.076171875
-0.0040283203125
0.054931640625
-0.0010986328125
0.0523681640625
-0.108428955078125
0.05859375
-0.37762451171875
0.198486328125
-0.415313720703125
0.207305908203125
-0.356353759765625
0.176544189453125
-0.235870361328125
0.11865234375
-0.382720947265625
0.194488525390625
-0.55560302734375
0.280914306640625
-0.324127197265625
0.163330078125
-0.10546875
0.0531005859375
0.0955810546875
-0.0487060546875
0.123779296875
-0.0640869140625
0.07763671875
-0.03955078125
0.186798095703125
-0.0933837890625
0.324493408203125
-0.162994384765625
0.271026611328125
-0.136627197265625
0.34576416015625
-0.173583984375
0.280914306640625
-0.1395263671875
0.59808349609375
-0.319732666015625
0.56219482421875
-0.676483154296875
0.0003662109375
-0.37286376953125
0.0
0.047271728515625
0.0
0.271026611328125
-0.51275634765625
0.60137939453125
-0.093048095703125
0.160064697265625
0.467315673828125
-0.269195556640625
0.0567626953125
-0.03955078125
0.045440673828125
-0.325592041015625
0.036285400390625
-0.121978759765625
-0.0003662109375
0.288970947265625
0.0003662109375
-0.2021484375
0.0003662109375
-0.34173583984375
-0.0003662109375
-0.067413330078125
0.0
0.063385009765625
0.0003662109375
0.098175048828125
0.0
0.1072998046875
-0.0003662109375
0.204345703125
-0.232940673828125
0.322296142578125
0.0003662109375
0.052398681640625
0.232940673828125
-0.170654296875
-0.0003662109375
-0.069976806640625
0.0
-0.086090087890625
0.0
-0.11572265625
0.0003662109375
-0.1058349609375
0.0
-0.0054931640625
-0.0003662109375
0.057861328125
0.0003662109375
0.0076904296875
0.0
-0.0347900390625
-0.0003662109375
0.085693359375
0.0
0.0062255859375
0.0
-0.12158203125
0.0
-0.082763671875
0.0
-0.0670166015625
-0.106597900390625
0.364410400390625
-1.0
0.981170654296875
-1.0
0.57501220703125
-0.177276611328125
0.1021728515625
-0.12158203125
0.0618896484375
0.57537841796875
-0.306549072265625
0.863250732421875
-0.443145751953125
-0.515289306640625
0.249420166015625
-0.674285888671875
0.332916259765625
-0.060089111328125
0.06884765625
-0.306182861328125
0.305450439453125
0.0
0.124908447265625
0.50579833984375
-0.41497802734375
0.0
-0.124176025390625
-0.50579833984375
0.632171630859375
0.0
0.32672119140625
0.0
0.0003662109375
0.0
0.0
0.0
0.0
0.0
0.0
0.0
0.0
0.0
0.0
0.0
-0.095977783203125
0.0
-0.033355712890625
0.0
-0.1922607421875
0.00732421875
-0.2603759765625
0.0
0.0260009765625
0.084625244140625
-0.074737548828125
0.005126953125
0.177978515625
0.0911865234375
-0.027099609375
-0.000732421875
-0.1973876953125
0.69696044921875
-0.342071533203125
0.238800048828125
-0.141021728515625
-0.529937744140625
0.274322509765625
0.215362548828125
-0.106201171875
-0.126007080078125
0.0673828125
0.244659423828125
-0.116119384765625
-0.02490234375
0.0106201171875
0.0531005859375
-0.022705078125
0.1171875
-0.0618896484375
0.0296630859375
-0.01025390625
0.224151611328125
-0.1175537109375
-0.65704345703125
0.333648681640625
-0.493682861328125
0.22998046875
-0.128936767578125
0.34832763671875
-0.046905517578125
0.112457275390625
0.0
-0.0040283203125
0.0
0.222320556640625
1.0
-0.925537109375
1.0
-1.0
0.290802001953125
-0.157470703125
-0.248321533203125
0.276519775390625
-0.149078369140625
0.066650390625
0.244659423828125
-0.1358642578125
0.152740478515625
-0.129638671875
0.0040283203125
-0.060791015625
0.0003662109375
-0.046905517578125
0.0
-0.0040283203125
-0.0003662109375
0.035552978515625
0.0
0.0
-0.019775390625
0.044677734375
-0.065948486328125
0.072509765625
-0.123077392578125
0.0582275390625
-0.1318359375
0.062255859375
-0.07470703125
0.034423828125
-0.0703125
0.032958984375
-0.060791015625
0.02783203125
-0.053497314453125
0.024169921875
-0.065216064453125
0.031494140625
-0.0457763671875
0.021240234375
-0.037353515625
0.017578125
-0.002197265625
0.0
0.03662109375
-0.0205078125
0.0494384765625
-0.0260009765625
0.054962158203125
-0.029296875
0.045074462890625
-0.0230712890625
0.0216064453125
-0.0113525390625
-0.0179443359375
0.008056640625
-0.03955078125
0.0201416015625
-0.028594970703125
0.013916015625
-0.039215087890625
0.01904296875
-0.052734375
0.0263671875
-0.0604248046875
0.03076171875
-0.049072265625
0.0245361328125
-0.0380859375
0.01904296875
-0.0472412109375
0.0238037109375
-0.050537109375
0.0260009765625
-0.0498046875
0.026397705078125
-0.040283203125
0.021270751953125
-0.0322265625
0.016845703125
-0.0281982421875
0.0142822265625
-0.0318603515625
0.016845703125
-0.042877197265625
0.0223388671875
0.00146484375
0.0
-0.0062255859375
0.00439453125
-0.038848876953125
0.021240234375
-0.0223388671875
0.01318359375
-0.019775390625
0.010986328125
-0.0216064453125
0.0120849609375
-0.038818359375
0.0208740234375
-0.057861328125
0.0303955078125
-0.071044921875
0.037353515625
-0.0703125
0.0377197265625
-0.0479736328125
0.0260009765625
-0.006591796875
0.0047607421875
-0.0135498046875
0.0084228515625
-0.189727783203125
0.0966796875
-0.38092041015625
0.192291259765625
-0.51129150390625
0.292999267578125
-0.301055908203125
0.399932861328125
-0.002197265625
0.33917236328125
0.0
0.125640869140625
0.0
0.0
0.0
0.0
0.0
0.0
0.0
0.0
0.0
-0.217193603515625
0.065948486328125
-0.38787841796875
0.243194580078125
-0.256378173828125
0.416046142578125
-0.20361328125
0.38311767578125
-0.188262939453125
0.253814697265625
-0.122711181640625
0.128173828125
-0.0604248046875
0.0172119140625
-0.0047607421875
-0.07470703125
0.0421142578125
-0.194122314453125
0.101806640625
-0.179107666015625
0.094146728515625
-0.12451171875
0.066314697265625
-0.1138916015625
0.0604248046875
-0.053466796875
0.0296630859375
-0.0113525390625
0.0084228515625
-0.01171875
0.00732421875
-0.005859375
0.0047607421875
0.00732421875
-0.00146484375
0.0267333984375
-0.01171875
0.02197265625
-0.0091552734375
0.056396484375
-0.0274658203125
0.0732421875
-0.035888671875
0.03955078125
-0.01904296875
0.0362548828125
-0.0172119140625
0.027099609375
-0.01318359375
0.0340576171875
-0.01611328125
0.0216064453125
-0.0098876953125
0.04833984375
-0.024932861328125
0.041748046875
-0.020172119140625
-0.0025634765625
0.00146484375
0.015380859375
-0.0076904296875
0.0186767578125
-0.0087890625
0.021270751953125
-0.01025390625
0.014678955078125
-0.00732421875
0.0106201171875
-0.0047607421875
0.0120849609375
-0.005126953125
0.01318359375
-0.00732421875
0.0208740234375
-0.010986328125
0.0274658203125
-0.013916015625
0.0245361328125
-0.01171875
0.0146484375
-0.0076904296875
0.015380859375
-0.0076904296875
0.01025390625
-0.00439453125
0.0098876953125
-0.005859375
0.012451171875
-0.006591796875
0.0135498046875
-0.0069580078125
0.0135498046875
-0.006591796875
0.0098876953125
-0.0054931640625
0.0146484375
-0.008056640625
0.0146484375
-0.00732421875
0.013916015625
-0.0069580078125
-0.0377197265625
0.018310546875
0.01904296875
-0.0106201171875
0.0545654296875
-0.0274658203125
-0.0106201171875
0.00439453125
0.0018310546875
-0.0010986328125
0.0032958984375
-0.00146484375
0.0018310546875
-0.0010986328125
-0.0040283203125
0.0018310546875
-0.0032958984375
0.0010986328125
0.00146484375
-0.00146484375
0.010986328125
-0.006591796875
0.0172119140625
-0.0084228515625
0.0238037109375
-0.0120849609375
0.0816650390625
-0.041015625
0.117950439453125
-0.059326171875
-0.303619384765625
0.154937744140625
-0.9119873046875
0.59332275390625
-0.55450439453125
0.319732666015625
0.778656005859375
-0.54095458984375
0.9925537109375
-0.55596923828125
0.226348876953125
-0.1051025390625
0.11572265625
-0.046142578125
-0.0311279296875
0.0238037109375
-0.272491455078125
0.144287109375
-0.199249267578125
0.10693359375
-0.068115234375
0.041748046875
0.0032958984375
0.0076904296875
-0.087158203125
0.052001953125
-0.129638671875
0.0714111328125
-0.006591796875
0.0098876953125
-0.0076904296875
0.0106201171875
-0.032958984375
0.0216064453125
-0.0230712890625
0.016143798828125
-0.0333251953125
0.020538330078125
-0.036651611328125
0.02197265625
-0.023101806640625
0.0150146484375
0.00146484375
0.0029296875
-0.01171875
0.0091552734375
-0.013916015625
0.01025390625
-0.01318359375
0.009521484375
0.0010986328125
0.00146484375
0.003662109375
0.000732421875
0.0025634765625
0.000732421875
0.002197265625
0.00146484375
-0.003662109375
0.0029296875
0.0087890625
-0.0032958984375
0.0032958984375
0.0
-0.00146484375
0.00146484375
-0.0816650390625
0.0413818359375
-0.02197265625
0.0113525390625
0.050537109375
-0.0230712890625
0.025634765625
-0.0120849609375
0.0472412109375
-0.0230712890625
0.033355712890625
-0.0157470703125
0.023101806640625
-0.0106201171875
0.003662109375
-0.0010986328125
0.02783203125
-0.013916015625
0.0238037109375
-0.01171875
0.008056640625
-0.00439453125
0.0098876953125
-0.0040283203125
0.0069580078125
-0.0032958984375
0.009521484375
-0.0047607421875
-0.0087890625
0.0047607421875
-0.0076904296875
0.0040283203125
0.005126953125
-0.002197265625
0.01611328125
-0.008056640625
0.0201416015625
-0.009552001953125
0.0322265625
-0.016510009765625
0.035888671875
-0.017578125
0.0186767578125
-0.0087890625
0.02783203125
-0.013916015625
-0.0472412109375
0.024169921875
0.0545654296875
-0.0274658203125
0.100341796875
-0.0509033203125
-0.01611328125
0.0069580078125
-0.0142822265625
0.00732421875
-0.0260009765625
0.012451171875
-0.0179443359375
0.008056640625
-0.025634765625
0.0128173828125
-0.0205078125
0.0091552734375
-0.0208740234375
0.0076904296875
0.1534423828125
-0.0831298828125
0.75885009765625
-0.394073486328125
0.625213623046875
-0.59918212890625
0.036285400390625
-0.46661376953125
0.0
-0.180938720703125
0.0
-0.0087890625
0.0
0.0
0.0003662109375
0.035552978515625
0.0
0.305816650390625
-0.060821533203125
0.407989501953125
-0.33843994140625
0.275054931640625
-0.454864501953125
0.223785400390625
-0.26220703125
0.127105712890625
-0.097442626953125
0.043212890625
0.012451171875
-0.01318359375
0.134063720703125
-0.07470703125
0.471710205078125
-0.246490478515625
0.47869873046875
-0.34466552734375
0.116485595703125
-0.44830322265625
0.0
-0.291168212890625
0.0
0.112091064453125
-0.064849853515625
0.40545654296875
-0.50030517578125
0.51129150390625
-0.62591552734375
0.313140869140625
-0.41278076171875
0.2076416015625
-0.292633056640625
0.14794921875
-0.185302734375
0.092681884765625
-0.030029296875
0.013916015625
0.1658935546875
-0.084259033203125
0.157867431640625
-0.0802001953125
-0.002197265625
0.00146484375
-0.313507080078125
0.158599853515625
-0.323394775390625
0.164093017578125
-0.210968017578125
0.1083984375
-0.1175537109375
0.0604248046875
-0.046875
0.02490234375
-0.086456298828125
0.0457763671875
-0.043243408203125
0.0186767578125
0.128936767578125
-0.0640869140625
0.39117431640625
-0.192626953125
0.324493408203125
-0.164093017578125
0.323028564453125
-0.162994384765625
0.62152099609375
-0.315704345703125
0.755584716796875
-0.754486083984375
0.38714599609375
-0.56732177734375
0.0003662109375
-0.000732421875
0.0
0.0
0.0
0.0
0.0
0.0
-0.002197265625
0.36187744140625
-0.43182373046875
0.58636474609375
-0.805389404296875
0.416412353515625
-0.63983154296875
0.32708740234375
-0.47943115234375
0.246124267578125
-0.40802001953125
0.210205078125
-0.208038330078125
0.1314697265625
-0.015380859375
0.108428955078125
0.0
0.094512939453125
0.0
0.0648193359375
0.0
0.05419921875
0.0
0.02783203125
0.0
0.046142578125
0.0
0.017578125
0.0
0.0618896484375
0.0
0.019775390625
0.0
-0.031494140625
0.0
-0.00439453125
0.0
-0.01025390625
0.0
0.0128173828125
0.0
-0.0054931640625
0.0
0.00439453125
0.0
-0.0201416015625
0.0
-0.015380859375
0.0
-0.01318359375
0.0
-0.0179443359375
0.0
-0.009521484375
0.0
-0.038818359375
0.0
-0.034423828125
0.0
-0.09814453125
0.42779541015625
-0.331817626953125
0.0
0.1981201171875
0.341339111328125
-0.169586181640625
1.0
-1.0
0.725921630859375
-0.786712646484375
0.0003662109375
-0.032257080078125
0.0
0.0
0.0
0.270660400390625
-0.301788330078125
0.56768798828125
-1.0
0.705047607421875
-0.53033447265625
0.266998291015625
-0.190460205078125
0.0992431640625
-0.080596923828125
0.0413818359375
0.885589599609375
-0.449737548828125
0.907958984375
-0.467315673828125
-0.1087646484375
0.0596923828125
-1.0
0.58782958984375
-0.703582763671875
0.358184814453125
-0.303253173828125
0.156005859375
-0.12890625
0.0677490234375
0.273590087890625
-0.1358642578125
0.67205810546875
-0.339508056640625
1.0
-0.58013916015625
0.49847412109375
-0.250885009765625
-0.49993896484375
0.254180908203125
-0.46002197265625
0.230010986328125
0.0545654296875
-0.028564453125
0.0128173828125
-0.0029296875
-0.292633056640625
0.15087890625
-0.0933837890625
0.0479736328125
0.12744140625
-0.065185546875
0.730316162109375
-0.777923583984375
0.638031005859375
-0.747894287109375
0.0
-0.017578125
0.0
0.0
0.0
0.0
0.0
0.0
0.0
0.0
0.0
0.0
0.0003662109375
0.0040283203125
-0.34246826171875
0.52227783203125
-0.836151123046875
0.766571044921875
-0.78778076171875
0.39703369140625
-0.61053466796875
0.308746337890625
-0.36480712890625
0.262237548828125
-0.048736572265625
0.186798095703125
0.0
0.13330078125
0.0
0.07763671875
0.0
0.053466796875
0.0
0.0296630859375
0.0
0.0369873046875
0.0
0.034423828125
0.0
0.003662109375
0.0
-0.005126953125
0.0
-0.01611328125
0.0
0.0146484375
0.0
-0.0084228515625
0.0
-0.046875
0.0
-0.0303955078125
0.0
-0.022705078125
0.0
-0.01904296875
0.0
-0.01904296875
0.0
-0.009521484375
0.0
-0.0179443359375
0.0
-0.0186767578125
0.0
-0.0318603515625
0.0
-0.0205078125
0.0
-0.0120849609375
0.0
-0.02490234375
0.0
-0.018310546875
0.0
-0.0303955078125
0.0
-0.0303955078125
0.0
-0.0413818359375
0.0
-0.0380859375
0.0
-0.037017822265625
0.0
-0.014678955078125
0.0
0.027130126953125
0.0
-0.0238037109375
0.065582275390625
-0.078765869140625
0.155303955078125
-0.08642578125
0.2486572265625
-0.1278076171875
0.362579345703125
-0.184600830078125
0.150177001953125
-0.076171875
0.065185546875
-0.0347900390625
0.402862548828125
-0.205474853515625
0.625579833984375
-0.318634033203125
0.47247314453125
-0.241729736328125
0.09814453125
-0.05126953125
0.131134033203125
-0.0699462890625
0.188262939453125
-0.281280517578125
0.024169921875
-0.37945556640625
0.0
-0.184600830078125
0.0
-0.0003662109375
-0.9090576171875
0.787811279296875
-1.0
0.842376708984375
0.250518798828125
-0.1329345703125
1.0
-0.66693115234375
0.659271240234375
-0.40582275390625
0.0003662109375
-0.175445556640625
-0.0003662109375
-0.234039306640625
0.0
0.083160400390625
-0.0003662109375
0.111724853515625
0.0
0.1065673828125
0.0
0.0977783203125
0.0
0.066650390625
0.0
0.05859375
0.0
0.03955078125
-0.034454345703125
0.068145751953125
-0.119781494140625
0.099639892578125
-0.12451171875
0.064453125
-0.098876953125
0.0509033203125
-0.1197509765625
0.062255859375
-0.115753173828125
0.0604248046875
-0.081695556640625
0.04248046875
-0.0501708984375
0.0267333984375
-0.0194091796875
0.0120849609375
-0.024169921875
0.0146484375
-0.0457763671875
0.0245361328125
-0.0439453125
0.0238037109375
-0.0615234375
0.032958984375
-0.031494140625
0.0172119140625
-0.01171875
0.0076904296875
-0.0157470703125
0.009521484375
-0.0223388671875
0.012847900390625
-0.0263671875
0.013946533203125
-0.0135498046875
0.008056640625
-0.01611328125
0.01025390625
0.002197265625
0.0003662109375
-0.002197265625
0.002197265625
-0.059326171875
0.03076171875
-0.105133056640625
0.054931640625
-0.020538330078125
0.01171875
0.015380859375
-0.006591796875
-0.1124267578125
0.057861328125
-0.418975830078125
0.21240234375
-0.770233154296875
0.57501220703125
-0.235870361328125
0.109527587890625
0.801361083984375
-0.60064697265625
0.774993896484375
-0.39483642578125
0.56732177734375
-0.291534423828125
0.348297119140625
-0.179443359375
-0.132568359375
0.0655517578125
-0.0501708984375
0.0245361328125
0.095947265625
-0.0501708984375
-0.010986328125
0.0029296875
-0.0831298828125
0.0406494140625
-0.065185546875
0.0322265625
-0.069580078125
0.034423828125
-0.071075439453125
0.03515625
-0.078399658203125
0.0384521484375
-0.02490234375
0.0120849609375
-0.018310546875
0.009521484375
-0.0596923828125
0.030029296875
-0.10546875
0.052001953125
-0.0501708984375
0.02490234375
0.012451171875
-0.0062255859375
-0.01025390625
0.0047607421875
0.1241455078125
-0.0618896484375
0.251251220703125
-0.1259765625
0.38128662109375
-0.248687744140625
0.257110595703125
-0.242095947265625
-0.0146484375
0.065948486328125
-0.164093017578125
0.199249267578125
-0.216461181640625
0.111328125
0.044677734375
-0.021240234375
-0.076171875
0.0406494140625
-0.260772705078125
0.134765625
-0.099639892578125
0.05419921875
-0.0465087890625
0.0252685546875
-0.1153564453125
0.058990478515625
-0.1417236328125
0.072906494140625
-0.128204345703125
0.0655517578125
-0.074371337890625
0.0391845703125
-0.0208740234375
0.0120849609375
-0.0260009765625
0.0142822265625
0.0208740234375
-0.0091552734375
-0.012451171875
0.00732421875
-0.043212890625
0.022705078125
-0.07177734375
0.0369873046875
-0.065185546875
0.03369140625
-0.140655517578125
0.0721435546875
-0.402130126953125
0.205474853515625
-0.435089111328125
0.220489501953125
-0.203643798828125
0.1036376953125
1.0
-1.0
1.0
-1.0
-0.0032958984375
-0.00439453125
0.0
0.0
-1.0
1.0
-1.0
1.0
0.0
0.251617431640625
0.0
0.0
0.017578125
-0.38970947265625
0.079498291015625
-0.41644287109375
-0.017578125
0.0238037109375
0.0556640625
-0.0260009765625
0.730682373046875
-0.379425048828125
0.895111083984375
-0.45233154296875
-0.098876953125
0.052001953125
-0.107666015625
0.055328369140625
0.349761962890625
-0.175048828125
-0.119415283203125
0.0615234375
-0.153106689453125
0.07763671875
0.242828369140625
-0.121246337890625
0.158966064453125
-0.0791015625
-0.012451171875
0.006591796875
0.236602783203125
-0.117950439453125
0.46002197265625
-0.245361328125
0.10400390625
-0.0516357421875
-0.178741455078125
0.106201171875
-0.365875244140625
0.184600830078125
-0.379425048828125
0.190826416015625
-0.0604248046875
0.0311279296875
0.0146484375
-0.006591796875
0.0758056640625
-0.037353515625
0.009521484375
-0.0047607421875
-0.0032958984375
0.0010986328125
-0.227081298828125
0.1138916015625
-0.234039306640625
0.1171875
-0.267730712890625
0.135498046875
-0.315338134765625
0.160064697265625
-0.08203125
0.042144775390625
-0.158599853515625
0.079833984375
-0.38275146484375
0.327056884765625
-0.266265869140625
0.448272705078125
0.0
0.234039306640625
0.0
0.054595947265625
0.0
0.0
0.0
0.0
0.0
0.0
0.0
0.0
0.0
-0.002197265625
0.0
-0.000732421875
0.0
-0.086456298828125
0.0
-0.212066650390625
0.0
-0.13623046875
0.0
-0.0340576171875
0.0
-0.060791015625
0.0
-0.086822509765625
0.042510986328125
-0.110260009765625
0.106597900390625
-0.0941162109375
0.1072998046875
-0.05419921875
0.059326171875
-0.030029296875
0.076171875
-0.0384521484375
0.0904541015625
-0.0457763671875
0.0596923828125
-0.0296630859375
0.063720703125
-0.0322265625
0.068145751953125
-0.0347900390625
0.050933837890625
-0.0263671875
0.032958984375
-0.0164794921875
0.022705078125
-0.01171875
0.08203125
-0.041412353515625
0.091552734375
-0.046173095703125
0.018310546875
-0.0098876953125
0.00732421875
-0.0032958984375
0.018310546875
-0.0091552734375
0.0362548828125
-0.018310546875
0.046875
-0.0230712890625
0.047607421875
-0.024169921875
-0.380889892578125
0.191192626953125
-0.101806640625
0.0479736328125
0.58819580078125
-0.303253173828125
0.397735595703125
-0.2091064453125
-0.63580322265625
0.311676025390625
-0.0062255859375
0.0062255859375
1.0
-0.51458740234375
0.43182373046875
-0.214263916015625
0.261871337890625
-0.12744140625
0.094482421875
-0.044677734375
-0.0047607421875
0.0047607421875
0.060791015625
-0.0274658203125
-0.0150146484375
0.0098876953125
-0.040283203125
0.0234375
0.081329345703125
-0.041015625
0.082061767578125
-0.197052001953125
0.0106201171875
-0.201080322265625
0.0
0.038818359375
-0.0003662109375
-0.0205078125
0.0
-0.1270751953125
0.0003662109375
0.091552734375
-0.106597900390625
0.303619384765625
-0.619354248046875
0.45013427734375
-0.977508544921875
0.50067138671875
-0.72662353515625
0.371734619140625
-0.40911865234375
0.211669921875
-0.149444580078125
0.1109619140625
-0.0018310546875
0.052764892578125
0.0
0.015411376953125
0.0
0.00146484375
0.0
0.009521484375
0.0
0.0091552734375
0.0
-0.00146484375
0.0
-0.0084228515625
0.0
-0.015380859375
0.002197265625
-0.037384033203125
0.074005126953125
-0.057891845703125
0.191925048828125
-0.0933837890625
0.2138671875
-0.106201171875
0.290435791015625
-0.147216796875
0.39007568359375
-0.200347900390625
0.350860595703125
-0.180572509765625
0.1270751953125
-0.066650390625
0.0260009765625
-0.0150146484375
-0.123046875
0.0589599609375
0.053863525390625
-0.0322265625
0.451934814453125
-0.230377197265625
0.301422119140625
-0.159332275390625
-0.1446533203125
0.055328369140625
0.13623046875
-0.08056640625
0.16552734375
-0.089385986328125
-0.65997314453125
0.327789306640625
-0.57098388671875
0.280914306640625
-0.53106689453125
0.259674072265625
-0.369903564453125
0.180572509765625
0.262603759765625
-0.1439208984375
0.149444580078125
-0.0860595703125
0.70098876953125
-0.35638427734375
0.993621826171875
-0.50213623046875
0.086090087890625
-0.0450439453125
-0.217193603515625
0.1080322265625
-0.159698486328125
0.078369140625
-0.09814453125
0.0479736328125
-0.094482421875
0.046905517578125
-0.1300048828125
0.064849853515625
-0.144317626953125
0.0728759765625
-0.181671142578125
0.0911865234375
-0.0728759765625
0.03662109375
-0.0673828125
0.03369140625
-0.0780029296875
0.038818359375
0.0029296875
-0.00146484375
0.0545654296875
-0.027099609375
0.0355224609375
-0.0172119140625
-0.0853271484375
0.043212890625
-0.100006103515625
0.0509033203125
-0.074371337890625
0.0377197265625
-0.0380859375
0.019775390625
0.0216064453125
-0.0098876953125
-0.0289306640625
0.0150146484375
-0.0322265625
0.016845703125
-0.0113525390625
0.0062255859375
-0.016845703125
0.0091552734375
-0.0146484375
0.008056640625
-0.037353515625
0.019775390625
-0.0040283203125
0.0025634765625
0.0164794921875
-0.008056640625
-0.018310546875
0.0098876953125
-0.0355224609375
0.018310546875
-0.000732421875
0.00146484375
0.024169921875
-0.0113525390625
0.012451171875
-0.005126953125
0.126739501953125
-0.0626220703125
0.257110595703125
-0.12890625
0.150146484375
-0.0743408203125
-0.0347900390625
0.018310546875
-0.1219482421875
0.0618896484375
-0.117584228515625
0.0604248046875
-0.097076416015625
0.0501708984375
-0.01904296875
0.0106201171875
0.02197265625
-0.01025390625
-0.0355224609375
0.018310546875
-0.0538330078125
0.02783203125
-0.0406494140625
0.0216064453125
-0.0223388671875
0.01171875
-0.034423828125
0.018310546875
-0.01611328125
0.009521484375
-0.0721435546875
0.038116455078125
-0.0567626953125
0.029327392578125
0.076904296875
-0.038482666015625
0.0531005859375
-0.025665283203125
-0.195953369140625
0.099639892578125
-0.235137939453125
0.120880126953125
-0.10986328125
0.0556640625
0.084991455078125
-0.0435791015625
-0.171417236328125
0.243927001953125
0.361114501953125
-0.196319580078125
0.0
0.220855712890625
-0.692230224609375
0.740936279296875
0.725189208984375
-0.780487060546875
1.0
-1.0
0.769866943359375
-0.710540771484375
0.0003662109375
0.0029296875
0.0
0.0
0.0
0.0
0.0
0.0
0.0
0.0
0.0003662109375
0.0
0.0
0.0
-0.0003662109375
0.0
0.0
0.0
0.0
0.0
0.0003662109375
0.0
0.0
0.0
-0.0003662109375
0.0
0.0
0.0
0.0
0.0
0.0
0.0
0.0
0.0
0.0
0.0
0.0
0.0
0.0
0.0
0.0003662109375
0.0205078125
0.0
0.071075439453125
-0.0003662109375
0.076202392578125
0.0
0.047607421875
0.0
0.11865234375
0.0003662109375
0.125244140625
0.0
0.05419921875
-0.0003662109375
0.0677490234375
-0.045806884765625
0.071807861328125
-0.042510986328125
0.028594970703125
-0.0150146484375
0.0091552734375
-0.006591796875
0.0054931640625
-0.008056640625
0.0054931640625
-0.0860595703125
0.044677734375
-0.0340576171875
0.018310546875
0.05419921875
-0.0263671875
-0.0556640625
0.030029296875
-0.256011962890625
0.129638671875
-1.0
0.57427978515625
-0.119384765625
0.047607421875
0.51641845703125
-0.272491455078125
-1.0
0.9493408203125
-0.710174560546875
0.784881591796875
0.0
0.0003662109375
0.0
0.0
0.0
0.0
0.0
-0.0003662109375
0.0
0.0
1.0
-1.0
1.0
-1.0
-0.00439453125
-0.01611328125
0.0
0.0
0.0
0.0
0.0003662109375
0.0
0.0
0.0
-0.0003662109375
0.0
0.0
0.0
0.0
0.0
0.0
0.0
0.0003662109375
0.0
0.0
0.0
0.0
0.0
0.0003662109375
0.0
-0.0003662109375
0.0
-0.0003662109375
0.0
0.0
0.0
0.0
0.0
0.0
0.0
0.0003662109375
0.0
0.0003662109375
0.0
-0.0003662109375
0.0
-0.0003662109375
0.0
0.0
0.02197265625
0.0
0.049835205078125
0.0003662109375
0.042510986328125
0.0
0.012451171875
-0.0003662109375
-0.0087890625
0.0003662109375
0.00146484375
0.0
0.03515625
-0.0003662109375
0.09228515625
-1.0
1.0
-1.0
1.0
0.0
-0.003662109375
0.0
0.0003662109375
0.0
0.0
0.0
0.0
1.0
-0.853729248046875
1.0
-1.0
0.40399169921875
-0.45269775390625
0.000732421875
-0.075439453125
0.0
0.0150146484375
-0.0003662109375
-0.0904541015625
-0.048736572265625
-0.0029296875
-0.31903076171875
0.423370361328125
-0.1666259765625
0.293365478515625
0.30328369140625
-0.1962890625
0.215362548828125
-0.186798095703125
0.0157470703125
-0.081329345703125
0.0
-0.1962890625
0.0
-0.08203125
-0.745330810546875
0.63983154296875
-0.745330810546875
0.56072998046875
