0.748992919921875
-0.749725341796875
0.748992919921875
-0.749725341796875
0.0
0.0
-1.0
0.0
-1.0
0.0
0.0
0.0
1.0
0.0
1.0
0.0
0.39739990234375
0.0
0.0
0.0
0.0003662109375
0.0
0.0003662109375
0.0
0.0
0.0
0.0
0.0
-0.0003662109375
0.0
-0.221954345703125
0.0
-0.42193603515625
0.0
-0.47503662109375
0.802825927734375
-0.393341064453125
0.735076904296875
-0.276885986328125
-0.1600341796875
-0.266632080078125
-0.0985107421875
-0.205474853515625
0.0325927734375
-0.208404541015625
0.0860595703125
-0.153076171875
0.0703125
-0.1376953125
0.0750732421875
-0.119384765625
0.082763671875
-0.070343017578125
0.131866455078125
-0.046905517578125
0.164825439453125
0.0
0.1234130859375
0.0
0.1153564453125
0.0
0.0977783203125
0.0
0.080596923828125
0.0
0.062652587890625
0.0
0.088623046875
0.0
0.0758056640625
0.0
0.0421142578125
0.0
0.0516357421875
0.0
0.0406494140625
0.0
0.027099609375
0.038116455078125
-0.03515625
0.074005126953125
-0.0611572265625
0.1973876953125
0.172149658203125
1.0
0.1226806640625
1.0
-0.236602783203125
0.38055419921875
-0.350860595703125
0.00146484375
-0.217926025390625
0.0
0.184967041015625
0.0
0.45672607421875
0.0003662109375
-0.58306884765625
0.0003662109375
-1.0
-0.992919921875
0.818939208984375
-1.0
1.0
-0.50579833984375
-0.0003662109375
1.0
0.000732421875
1.0
0.000732421875
0.157135009765625
0.0
0.0003662109375
0.0
0.0003662109375
0.0
0.0003662109375
0.0
0.0
0.0
0.0
0.0
-1.0
-0.000732421875
-1.0
-0.000732421875
0.788543701171875
0.0003662109375
1.0
-1.0
0.709808349609375
-1.0
0.0003662109375
0.0
0.0003662109375
0.0
0.0
0.0
-0.067047119140625
0.0
-0.872772216796875
0.0
-1.0
0.0
-0.625579833984375
0.0
0.0
0.0
0.0
0.0
0.0
0.0
1.0
0.0
1.0
0.0
-0.00146484375
0.0
0.0
0.0
0.0003662109375
0.0
0.0003662109375
0.0
0.0
0.0
0.0
0.0
0.0
0.046905517578125
-1.0
0.191925048828125
-1.0
0.2666015625
0.0
0.168853759765625
0.0
0.070343017578125
0.0
-0.094879150390625
0.0
0.2186279296875
0.0
0.42266845703125
0.0
0.184600830078125
0.0
0.219390869140625
1.0
0.328155517578125
1.0
0.365509033203125
0.195587158203125
0.219757080078125
0.0003662109375
0.1329345703125
0.0003662109375
0.0845947265625
0.0
0.093414306640625
0.0
0.080230712890625
0.0003662109375
0.0
0.0
0.0
0.0
0.0
0.0
0.0
-0.061920166015625
0.0
-1.0
-0.0003662109375
-1.0
-0.000732421875
-0.42486572265625
-0.0003662109375
0.0
0.0
0.0
0.0
0.0
0.0
0.0
0.0
0.0
0.0
0.0
0.0
0.0
0.0
0.0
0.0
0.0
0.0
0.0
0.0
0.0
0.0
0.0
-0.704681396484375
1.0
-1.0
1.0
-0.794403076171875
0.0274658203125
0.0
0.0003662109375
0.0
0.0
0.0
0.0003662109375
0.0
-1.0
0.0
-1.0
1.0
0.0
0.42779541015625
0.0
0.0
0.0
-0.42779541015625
0.171417236328125
-1.0
0.48968505859375
0.0
-0.171417236328125
0.0
-0.280914306640625
0.0
0.855926513671875
0.53106689453125
0.9947509765625
0.38458251953125
0.258941650390625
-0.07763671875
-0.155303955078125
-0.071441650390625
-0.340972900390625
-0.232940673828125
-0.52264404296875
-0.0780029296875
-0.424835205078125
0.0882568359375
-0.394439697265625
0.216094970703125
-0.34906005859375
0.32891845703125
-0.131134033203125
0.47100830078125
1.0
0.60174560546875
1.0
0.362945556640625
0.002197265625
-0.36810302734375
0.0
-1.0
0.0003662109375
-0.871307373046875
-1.0
0.0
-1.0
0.0
0.0
0.0
0.0
0.0
0.0
0.0
0.0
0.0
0.0
0.0
1.0
0.0
0.766571044921875
0.0
-0.000732421875
0.0
0.732147216796875
0.0
0.0010986328125
0.0
0.0
0.0
0.0
1.0
-0.0003662109375
1.0
0.0003662109375
-1.0
0.0003662109375
-1.0
0.0
-0.0076904296875
0.0
0.0
0.0
0.0
0.0
0.0
0.0
0.0
0.0
0.0
-1.0
1.0
-1.0
1.0
0.0
0.0
0.0
0.0
0.0
0.0
0.0
0.0
0.0
0.0
0.0
0.0
0.0
0.0
0.0
0.0
0.0
0.0
0.0
0.0
0.0
0.0
0.0
0.0
0.0
0.0
0.0
0.0
0.0
0.0
0.0
0.0
0.0
0.0
0.0
0.0
0.0
0.0
1.0
0.000732421875
1.0
-1.0
0.043609619140625
-1.0
0.0003662109375
0.0
0.0003662109375
0.0
-0.008056640625
0.0
-1.0
0.0
-1.0
1.0
0.0
1.0
0.0
0.0
0.0
0.0
0.0
-1.0
0.0
-0.049102783203125
0.052764892578125
0.0
1.0
-1.0
1.0
1.0
0.0003662109375
1.0
0.0003662109375
0.0
0.0
0.0
-0.32891845703125
-0.0003662109375
-0.36297607421875
0.0
0.151275634765625
0.0003662109375
0.165557861328125
0.0
-0.246856689453125
-0.0003662109375
-0.42779541015625
-0.0003662109375
-0.430694580078125
0.0
-0.430694580078125
-0.0003662109375
-0.34906005859375
-0.0003662109375
-0.287139892578125
0.0
-0.226318359375
0.0
-0.155303955078125
0.0
-0.068145751953125
0.0
0.0
0.0
0.0
0.0
0.0
0.0
0.0
0.0
0.0
0.0
0.0
0.0
0.0
0.0
0.0
0.0
0.0
0.0
0.0
0.0
0.0
0.0
0.0
0.0
0.0
0.0
0.0
0.0
0.0
0.0
0.0
0.0
0.0
0.0
0.0
0.0
0.0
0.0
0.0
0.0
0.0
0.0
0.0
0.0
0.0
0.0
0.0
0.0
0.0
0.0
0.0
0.0
0.0
0.0
0.0
0.0
0.0
0.0
0.0
0.0
0.0
0.0
0.0
0.0
0.0
0.0
0.0
0.0
0.0
0.0
0.0
-0.053863525390625
0.9866943359375
-1.0
1.0
-1.0
0.51165771484375
0.0
0.000732421875
0.0
0.0
0.0
-1.0
0.0
-1.0
0.0
1.0
1.0
0.0
1.0
-1.0
-0.000732421875
0.0
0.0
0.0
0.0
1.0
0.000732421875
1.0
0.000732421875
0.00146484375
0.0
-0.288604736328125
-0.0003662109375
-0.625213623046875
-0.0003662109375
-0.52960205078125
0.0
-0.015380859375
0.0
0.339508056640625
0.0
0.270294189453125
0.0
0.0406494140625
0.0
-0.2021484375
0.0
-0.306549072265625
0.0
-0.281280517578125
0.0
-0.176544189453125
0.0
-0.184234619140625
0.0
-0.1845703125
-0.0003662109375
-0.202178955078125
-0.0003662109375
-0.190460205078125
0.0
-0.1600341796875
0.0
-0.189727783203125
0.0
-0.098175048828125
0.0
-0.012451171875
-0.0003662109375
0.0
0.0
0.0
0.0003662109375
0.0
0.0
0.0
0.0
0.0
0.0
0.0
0.0
0.0
0.0
0.0
0.0
0.0
0.0
0.0
0.0
0.0
0.0
0.0
0.0
0.0
0.0
0.0
0.0
0.0
0.0
0.0
0.0
0.0
0.0
0.01171875
0.0
0.288604736328125
0.0
0.781585693359375
0.0003662109375
1.0
0.000732421875
0.704681396484375
0.0003662109375
-0.0010986328125
0.0
0.0003662109375
-0.241729736328125
0.0003662109375
-0.752655029296875
0.0003662109375
-0.0113525390625
0.0
0.752655029296875
0.0
-0.052001953125
-0.0003662109375
-1.0
0.0
-1.0
0.0003662109375
0.0
0.0
0.0
0.0010986328125
0.017578125
0.0
0.0
-0.706512451171875
-0.017578125
-1.0
0.0
-0.792205810546875
0.0
0.0
1.0
-0.0010986328125
0.0
0.0
-1.0
0.0
0.0
0.0
0.0
0.0
0.0
0.0
0.0
0.0
0.0
0.0
0.0
0.0
0.0
0.0
0.0
0.0
0.0
0.0
0.0
0.0
0.0
0.0
0.0
0.0
0.0
0.0
0.0
0.0
0.0
0.0
0.0
0.0
0.0
0.0
0.0
0.0
0.0
0.0
0.0
0.0
0.0
0.0
0.0
0.0
0.0
0.0
0.0
0.0
0.0
0.0
0.0
0.0
0.0
0.0
0.0
0.0
0.0
0.0
0.0
0.0
0.0
0.0
0.0
0.0
0.0
0.0
0.0
0.0
0.0
0.0
0.0
0.0
0.0
0.0
0.0
0.0
0.0
0.0
0.0
0.0
0.0
0.0
0.0
0.0
0.0
0.0
0.0
0.0
0.0
0.0
0.0
0.0
0.0
0.0
0.0
1.0
0.0
1.0
0.0
0.256011962890625
0.0
0.0003662109375
0.0
0.0003662109375
0.0
0.0003662109375
0.0
0.0
0.0
0.0
0.0
0.0
0.0
0.0
0.0
0.0
0.0
-1.0
0.0
-1.0
1.0
-0.47943115234375
1.0
0.0
0.0
0.0
0.0
0.0
0.0
0.0
0.0
0.0
0.0
0.0
0.0
0.0
0.0
0.0
0.0
0.0
0.0
0.0
0.0
0.0
0.0
0.0
0.0
0.0
0.0
0.0
0.0
0.0
0.0
0.0
0.0
0.0
0.0
0.0
0.0
0.0
0.0
0.0
0.0
0.0
0.0
0.0
0.0
0.0
0.0
0.0
0.0
0.0
0.0
0.0
0.0
0.0
0.0
0.0
0.0
0.0
0.0
0.0
0.0
0.0
0.0
0.0
0.0
0.0
0.0
0.0
0.0
0.0
0.0
0.0
0.0
0.0
0.0
0.0
0.0
0.0
0.0
0.0
0.0
0.0
0.0
0.0
0.0
0.0
0.0
0.49005126953125
0.0003662109375
1.0
0.000732421875
1.0
0.0003662109375
0.131500244140625
0.0
0.0
0.0
-0.139556884765625
0.0
-1.0
-0.000732421875
-1.0
-0.000732421875
0.0
0.0
0.0
0.0
0.0
-1.0
0.0
-1.0
0.0
0.0
0.0
1.0
1.0
1.0
1.0
0.079498291015625
-0.0003662109375
-1.0
-0.013916015625
0.028564453125
0.0
1.0
-1.0
-0.000732421875
-1.0
-0.000732421875
0.0
0.0
0.0
0.0
0.0
0.0
0.0
0.0
0.0
0.0
0.0
0.0
0.0
0.0
0.0
0.0
0.0
0.0
0.0
0.0
0.0
0.0
0.0
-1.0
0.0
-0.782684326171875
1.0
0.702484130859375
1.0
-0.716400146484375
0.0003662109375
-0.710174560546875
0.0
0.0
-0.46588134765625
0.0
-1.0
1.0
-1.0
1.0
0.0
0.0
0.0
0.0
0.0
0.0
0.0
0.0
0.0
0.0
0.0
0.0
1.0
0.000732421875
1.0
0.000732421875
0.0010986328125
-0.91748046875
0.0
-1.0
0.0
-0.58233642578125
0.0
0.0
-0.0003662109375
0.0
0.0003662109375
0.0
0.0
0.0
0.0
0.0
0.0003662109375
0.0
0.0
0.0
0.0
0.0
-0.0069580078125
1.0
-1.0
1.0
-1.0
0.234039306640625
0.0
0.0
0.34283447265625
-0.33441162109375
1.0
-1.0
-0.34283447265625
0.33441162109375
-1.0
1.0
0.754119873046875
0.0003662109375
1.0
-1.0
0.744232177734375
-1.0
0.000732421875
0.0
0.0003662109375
0.0
0.0003662109375
0.0
0.0
0.0
0.0
0.0
0.0
0.0
0.0
0.0
-0.0003662109375
0.0
0.0
0.0
0.0003662109375
0.0
0.0
0.0
0.0
0.0
0.0
0.0
0.0
0.0
0.0
0.0
0.0
0.0
0.0
0.0
0.0
0.0
0.0
0.0
0.0
0.0
0.0
0.0
0.0
0.0
0.0
0.0
0.0
0.0
0.0
0.0
0.0
0.0
0.0
0.0
0.0
0.0
0.0
0.0
0.0
0.0
0.0
0.0
0.0
0.0
0.0
0.0
0.0
0.0
0.0
0.0
0.0
0.0
0.0
0.0
0.0
0.0
0.0
0.0
0.0
0.0
0.0
0.0
0.0
0.0
0.0
0.0
0.0
0.0
0.0
0.0
0.0
0.0
0.0
0.0
0.0
0.0
0.0
0.0
0.0
0.0
0.0
0.0
0.0
0.0
0.0
0.0
-0.0003662109375
0.0
0.0
0.0
-0.002197265625
0.0
0.000732421875
0.0
-0.220489501953125
0.304718017578125
0.0003662109375
0.0
0.192291259765625
-0.304718017578125
-0.01318359375
0.0
-0.087921142578125
0.0
-0.158966064453125
0.046905517578125
0.088653564453125
0.0003662109375
-0.046142578125
0.10107421875
0.0311279296875
-0.0003662109375
-0.125640869140625
0.1666259765625
-0.265167236328125
0.0
-0.0823974609375
-0.101806640625
-0.100372314453125
0.042510986328125
0.0802001953125
-0.212799072265625
-0.1285400390625
0.347198486328125
-0.015380859375
0.0
-0.130035400390625
0.301788330078125
-0.09375
0.005859375
0.234039306640625
-0.48931884765625
0.176177978515625
-0.005859375
-0.172119140625
-0.041748046875
-0.312408447265625
0.34136962890625
0.1431884765625
-0.160430908203125
-0.040679931640625
0.301788330078125
-0.1644287109375
0.0
-0.148681640625
0.1790771484375
-0.0018310546875
0.01171875
0.031494140625
-0.302154541015625
-0.048370361328125
0.141754150390625
0.08935546875
-0.430694580078125
-0.1629638671875
0.57025146484375
0.0146484375
-0.089385986328125
-0.0626220703125
0.245025634765625
0.063751220703125
0.006591796875
0.0142822265625
-0.191558837890625
-0.101104736328125
0.052032470703125
0.17724609375
-0.55706787109375
-0.0889892578125
0.384185791015625
0.059326171875
-0.220123291015625
-0.117919921875
0.47760009765625
-0.053466796875
0.0
-0.044342041015625
0.072509765625
-0.1812744140625
0.0303955078125
-0.075439453125
-0.153839111328125
0.041015625
0.183868408203125
0.195587158203125
-0.67425537109375
-0.181304931640625
0.59149169921875
-0.113922119140625
-0.164825439453125
-0.06884765625
0.238800048828125
0.141754150390625
0.0
0.038818359375
-0.0977783203125
0.0091552734375
0.099639892578125
0.131134033203125
-0.37762451171875
-0.0106201171875
0.398468017578125
0.0128173828125
-0.448638916015625
-0.301055908203125
0.51055908203125
-0.072540283203125
-0.120513916015625
-0.0648193359375
0.131103515625
0.063751220703125
0.01904296875
0.0596923828125
-0.240966796875
-0.053863525390625
0.31243896484375
0.128173828125
-0.47650146484375
-0.0772705078125
0.505401611328125
0.234771728515625
-0.42230224609375
-0.0069580078125
0.213897705078125
-0.025634765625
0.0
-0.06591796875
-0.0120849609375
-0.0919189453125
0.112457275390625
0.06591796875
-0.337677001953125
-0.068511962890625
0.438385009765625
0.241363525390625
-0.55963134765625
-0.12890625
0.60284423828125
0.170684814453125
-0.141387939453125
-0.1124267578125
0.137359619140625
-0.231842041015625
0.005859375
0.0289306640625
-0.323028564453125
-0.096710205078125
0.279449462890625
0.0787353515625
-0.45819091796875
-0.250518798828125
0.676483154296875
0.1051025390625
-0.466949462890625
-0.018310546875
0.235504150390625
-0.123046875
-0.042877197265625
-0.018310546875
-0.069610595703125
0.214630126953125
0.067413330078125
0.163360595703125
-0.396636962890625
-0.143951416015625
0.492584228515625
0.184600830078125
-0.51861572265625
-0.1131591796875
0.57537841796875
0.2340087890625
-0.212432861328125
-0.0157470703125
0.133331298828125
-0.18017578125
0.0
-0.0245361328125
-0.238067626953125
-0.174713134765625
0.297393798828125
0.08642578125
-0.47650146484375
-0.0963134765625
0.51861572265625
0.1190185546875
-0.502838134765625
-0.144683837890625
0.41937255859375
-0.029296875
-0.051300048828125
0.019775390625
-0.05126953125
0.041015625
0.082061767578125
0.075469970703125
-0.34832763671875
-0.1241455078125
0.432159423828125
0.072509765625
-0.501007080078125
-0.143951416015625
0.56549072265625
0.1417236328125
-0.33477783203125
-0.04833984375
0.175811767578125
0.040679931640625
0.0
0.028564453125
-0.206573486328125
-0.092315673828125
0.243194580078125
0.145416259765625
-0.45343017578125
-0.106201171875
0.52117919921875
0.272491455078125
-0.560333251953125
-0.149444580078125
0.46258544921875
0.0582275390625
-0.035186767578125
-0.0263671875
0.005126953125
-0.0963134765625
0.050201416015625
0.083160400390625
-0.316070556640625
-0.147247314453125
0.409454345703125
0.2222900390625
-0.55633544921875
-0.142822265625
0.59918212890625
0.182037353515625
-0.35968017578125
-0.01025390625
0.280914306640625
-0.122314453125
0.0
0.0977783203125
-0.398101806640625
0.2442626953125
0.0087890625
-0.0604248046875
-0.270294189453125
-0.499542236328125
0.804290771484375
0.0662841796875
-0.43695068359375
-0.0018310546875
0.291900634765625
0.0128173828125
-0.214630126953125
-0.0146484375
0.079498291015625
0.120849609375
-0.000732421875
0.0809326171875
-0.32708740234375
-0.146484375
0.47100830078125
-0.107696533203125
-0.1929931640625
-0.0252685546875
0.42010498046875
0.158599853515625
-0.57281494140625
-0.0362548828125
0.1929931640625
0.0252685546875
-0.091583251953125
-0.0523681640625
-0.03369140625
-0.1080322265625
0.33514404296875
0.053466796875
-0.334381103515625
-0.0062255859375
0.424468994140625
0.0340576171875
-0.402496337890625
-0.0380859375
0.365509033203125
0.01904296875
-0.276519775390625
0.0281982421875
-0.0032958984375
0.035888671875
-0.017578125
0.062255859375
-0.277984619140625
0.00146484375
0.343170166015625
0.0391845703125
-0.386749267578125
-0.00439453125
0.410552978515625
0.0263671875
-0.351593017578125
-0.10986328125
0.351226806640625
0.0208740234375
-0.105499267578125
0.013916015625
-0.10546875
-0.1212158203125
0.298858642578125
0.079833984375
-0.362945556640625
0.052734375
0.32012939453125
-0.024169921875
-0.329986572265625
-0.05712890625
0.413482666015625
0.0399169921875
-0.309112548828125
-0.04833984375
0.125244140625
0.0831298828125
-0.035919189453125
0.106201171875
-0.308013916015625
-0.0494384765625
0.319732666015625
0.0164794921875
-0.336212158203125
0.0450439453125
0.286041259765625
0.09521484375
-0.431427001953125
-0.306182861328125
0.606536865234375
0.093414306640625
-0.082061767578125
0.064453125
-0.192657470703125
0.170654296875
0.015380859375
0.39776611328125
-0.784149169921875
-0.310943603515625
0.43658447265625
-0.150543212890625
0.075439453125
-0.317169189453125
0.72186279296875
0.116119384765625
-0.305084228515625
-0.088623046875
0.202911376953125
-0.087921142578125
0.067779541015625
0.0545654296875
-0.224151611328125
-0.2391357421875
0.413482666015625
1.0
-1.0
0.68011474609375
0.53289794921875
-0.060089111328125
0.050567626953125
-1.0
0.45672607421875
-1.0
0.336578369140625
0.060089111328125
0.0223388671875
0.002197265625
0.08349609375
-0.060089111328125
-0.244293212890625
-0.002197265625
0.46954345703125
0.0
-0.43878173828125
0.0
0.433624267578125
0.0
-0.417510986328125
0.0
0.125274658203125
0.003662109375
-0.149444580078125
0.0
-0.092681884765625
-0.0003662109375
0.317169189453125
0.0
-0.477203369140625
-0.0032958984375
0.46112060546875
0.0
-0.42889404296875
0.0
0.274688720703125
0.35638427734375
-0.334381103515625
0.006591796875
0.122314453125
0.455963134765625
-0.0150146484375
-0.006591796875
-0.134033203125
-0.58380126953125
0.61968994140625
0.066680908203125
-0.009521484375
-0.228546142578125
0.728485107421875
0.20947265625
0.0728759765625
0.0263671875
0.0
0.38018798828125
-0.258209228515625
-0.0263671875
0.0
-0.126739501953125
-0.214630126953125
0.0
-0.0003662109375
-0.50140380859375
0.41021728515625
0.46881103515625
-0.884490966796875
-0.0281982421875
0.1724853515625
0.729217529296875
-0.614227294921875
0.0164794921875
0.035552978515625
0.0494384765625
0.0062255859375
-0.0076904296875
-0.00439453125
-0.717132568359375
0.50653076171875
0.153106689453125
-0.221954345703125
-0.53033447265625
0.936492919921875
0.66107177734375
-1.0
0.0
0.049835205078125
0.46624755859375
-0.265533447265625
0.029296875
0.0
-0.319732666015625
0.111724853515625
0.0010986328125
-0.065582275390625
-0.746795654296875
0.69805908203125
0.51165771484375
-0.80645751953125
-0.222686767578125
0.684539794921875
0.61236572265625
-0.627044677734375
0.0245361328125
0.0047607421875
-0.0699462890625
0.658538818359375
-0.022705078125
0.0
-0.60797119140625
0.376129150390625
0.091949462890625
-0.080963134765625
-0.46112060546875
0.216461181640625
0.75408935546875
-0.979705810546875
-0.015380859375
0.247955322265625
0.52996826171875
-0.43841552734375
0.031494140625
0.0
-0.236602783203125
0.074371337890625
0.021270751953125
-0.072174072265625
-0.74493408203125
0.464019775390625
0.63287353515625
-1.0
-0.39630126953125
0.750091552734375
0.58966064453125
-0.276153564453125
0.0
0.210601806640625
0.076171875
0.005859375
0.0238037109375
-0.0120849609375
-0.55047607421875
0.094512939453125
0.272125244140625
-0.720794677734375
-0.68560791015625
0.70318603515625
0.733978271484375
-0.766204833984375
-0.115386962890625
0.63690185546875
0.425201416015625
0.0
0.0087890625
-0.316436767578125
-0.2208251953125
0.0
0.109527587890625
-0.2230224609375
-0.717132568359375
0.213165283203125
0.56292724609375
-0.720428466796875
-0.51715087890625
0.959930419921875
0.56915283203125
-0.180572509765625
0.0
0.32598876953125
0.1556396484375
0.00732421875
0.0281982421875
-0.0263671875
-0.507232666015625
0.033721923828125
0.254913330078125
-0.716400146484375
-0.712738037109375
0.65374755859375
0.701385498046875
-0.756317138671875
-0.186065673828125
0.73175048828125
0.392974853515625
0.0
0.015380859375
0.072540283203125
-0.1446533203125
0.0216064453125
0.059722900390625
-0.244293212890625
-0.658172607421875
0.216461181640625
0.524444580078125
-0.916717529296875
-0.57464599609375
0.898773193359375
0.623748779296875
-0.33807373046875
0.0
0.36224365234375
0.1988525390625
0.00439453125
0.029296875
-0.01025390625
-0.466217041015625
0.034820556640625
0.216827392578125
-0.613861083984375
-0.721527099609375
0.65045166015625
0.672088623046875
-0.81048583984375
-0.234405517578125
0.74163818359375
0.434722900390625
-0.064483642578125
0.0120849609375
0.067779541015625
-0.08642578125
0.0234375
0.047637939453125
-0.164459228515625
-0.65191650390625
0.218292236328125
0.491485595703125
-0.905364990234375
-0.612762451171875
0.854827880859375
0.631072998046875
-0.42926025390625
-0.0018310546875
0.40252685546875
0.2156982421875
0.0
0.0303955078125
-0.0113525390625
-0.376129150390625
0.025634765625
0.174713134765625
-0.57281494140625
-0.728118896484375
0.57208251953125
0.65045166015625
-0.826995849609375
-0.293731689453125
0.798065185546875
0.46551513671875
-0.087921142578125
0.00439453125
0.103302001953125
-0.0076904296875
0.0194091796875
0.081329345703125
-0.43182373046875
-0.61895751953125
0.068511962890625
0.432525634765625
-0.778656005859375
-0.64605712890625
0.894012451171875
0.57537841796875
-0.288604736328125
-0.048370361328125
0.51678466796875
0.272125244140625
0.0
0.029296875
0.0003662109375
-0.331085205078125
0.052764892578125
0.113189697265625
-0.313873291015625
-0.71087646484375
0.64605712890625
0.62188720703125
-0.9365234375
-0.32379150390625
0.70904541015625
0.51092529296875
-0.248687744140625
0.00146484375
0.091217041015625
0.0296630859375
0.0047607421875
0.042144775390625
-0.090484619140625
-0.56475830078125
0.164093017578125
0.337310791015625
-0.72113037109375
-0.67279052734375
0.887054443359375
0.65594482421875
-0.687469482421875
-0.067413330078125
0.44281005859375
0.321929931640625
0.0
0.029296875
0.0003662109375
-0.271759033203125
0.043609619140625
0.099639892578125
-0.292633056640625
-0.72735595703125
0.65118408203125
0.48712158203125
-0.612762451171875
-0.35968017578125
0.780853271484375
0.59625244140625
-0.59368896484375
0.0032958984375
0.0234375
0.1021728515625
0.0
0.0142822265625
0.0
-0.59075927734375
0.44317626953125
0.208404541015625
-0.217193603515625
-0.67388916015625
0.829559326171875
0.686370849609375
-0.9888916015625
-0.049835205078125
0.226348876953125
0.444976806640625
-0.292999267578125
0.0296630859375
0.0
-0.207305908203125
0.052764892578125
0.024566650390625
-0.0194091796875
-0.73248291015625
0.59295654296875
0.531768798828125
-0.845672607421875
-0.41754150390625
0.72882080078125
0.631072998046875
-0.634002685546875
0.0
0.124542236328125
0.150146484375
0.0
0.0267333984375
0.0
-0.48968505859375
0.158599853515625
0.241363525390625
-0.46881103515625
-0.73101806640625
0.757049560546875
0.689300537109375
-0.954071044921875
-0.146514892578125
0.56915283203125
0.431060791015625
-0.076202392578125
0.01904296875
0.0142822265625
-0.1739501953125
0.0201416015625
0.055694580078125
-0.122344970703125
-0.687103271484375
0.38787841796875
0.503936767578125
-0.863250732421875
-0.52740478515625
0.816375732421875
0.614593505859375
-0.51348876953125
0.0
0.274688720703125
0.2039794921875
0.0
0.027099609375
0.0
-0.458892822265625
0.089385986328125
0.203643798828125
-0.43511962890625
-0.732513427734375
0.74163818359375
0.670257568359375
-0.917449951171875
-0.205841064453125
0.61492919921875
0.455230712890625
-0.146514892578125
0.0087890625
0.053131103515625
-0.0772705078125
0.0186767578125
0.056427001953125
-0.122344970703125
-0.66949462890625
0.291900634765625
0.454864501953125
-0.794769287109375
-0.609466552734375
0.900634765625
0.63104248046875
-0.58197021484375
0.0
0.287872314453125
0.251251220703125
0.0
0.0281982421875
0.0
-0.408355712890625
0.067779541015625
0.176910400390625
-0.39666748046875
-0.736175537109375
0.68963623046875
0.61749267578125
-0.896942138671875
-0.257843017578125
0.67095947265625
0.49810791015625
-0.205474853515625
0.0
0.070343017578125
-0.0135498046875
0.017578125
0.052764892578125
-0.077667236328125
-0.63397216796875
0.236236572265625
0.431793212890625
-0.78521728515625
-0.651580810546875
0.881561279296875
0.59478759765625
-0.635833740234375
-0.0216064453125
0.36334228515625
0.281280517578125
0.0
0.0267333984375
0.0003662109375
-0.318267822265625
0.049102783203125
0.128936767578125
-0.288970947265625
-0.71417236328125
0.64642333984375
0.62371826171875
-0.943115234375
-0.32818603515625
0.71673583984375
0.48822021484375
-0.266998291015625
0.0
0.086822509765625
-0.0216064453125
0.0091552734375
0.021240234375
-0.0135498046875
-0.0384521484375
0.012451171875
1.0
-1.0
-0.89697265625
-0.0216064453125
-0.1160888671875
0.0
0.046905517578125
0.0
-0.263336181640625
0.0
0.0223388671875
0.0
-0.224151611328125
0.0
0.0186767578125
0.0
-0.093017578125
0.0
0.119384765625
0.0
-0.186798095703125
0.128936767578125
0.054931640625
0.0
0.0340576171875
0.0355224609375
-0.145751953125
0.0
0.108795166015625
-0.162261962890625
-0.04248046875
0.0098876953125
0.0234375
-0.002197265625
-0.009521484375
0.091949462890625
0.052001953125
0.0
-0.056793212890625
0.287872314453125
-0.0648193359375
0.55670166015625
-0.318267822265625
1.0
-0.41864013671875
0.9423828125
0.0
0.0
0.0
0.0
0.0
0.0
1.0
-1.0
1.0
-1.0
-0.00146484375
0.0
0.0
0.0
0.0003662109375
0.0
0.0
0.0
0.0
0.0
0.0003662109375
0.0
0.0
0.0
0.0
0.0
0.0
0.0
-1.0
1.0
0.0010986328125
0.950439453125
1.0
-1.0
-0.00146484375
-0.950439453125
-0.005126953125
0.0
-1.0
0.0
-1.0
0.0
-0.0003662109375
0.0
0.0
0.0
0.0
0.0
0.0
0.0
0.0
0.0
0.0
0.0
0.0
0.0
0.0
0.0
0.0
0.0
0.0
0.0
0.0
0.0
0.0
0.0
0.0
0.0
0.0
0.0
0.0
0.679779052734375
0.0
1.0
0.0
0.054931640625
0.0
-1.0
0.0
-0.734710693359375
0.0
0.0
0.0
0.0
0.51641845703125
0.0
1.0
0.0
0.98193359375
0.0
0.0003662109375
0.0
0.0
0.0
0.0
0.0
0.0
0.0
0.0
1.0
-1.0
1.0
-1.0
-0.0003662109375
-0.005126953125
0.0
0.0
0.0
0.0
0.0
0.0
0.0
0.0
0.0
0.0
0.0
0.0
0.0
0.0
0.0
0.0
0.0
0.0
0.0
0.0
0.0
0.0
0.0
0.0
0.0
0.0
0.0
0.0
0.0
0.0
0.0
0.0
0.0
0.0
0.0
0.0
0.0
0.0
0.0
0.0
0.0
0.0
0.0
0.0
0.0
0.0
0.0
0.0
0.0
0.0
0.0
0.0
0.0
0.0
-1.0
0.0
-1.0
0.0
0.0
0.0
1.0
0.0
1.0
0.0
0.0
0.0
0.0
0.0
0.0
0.0
0.0
0.0
0.0
0.0
0.0
0.0
0.0
0.0
0.0
0.0
0.0
0.0
0.0
0.0
0.0
0.0
0.0
0.0
0.0
0.0
0.0
0.0
0.0
0.0
0.0
0.0
0.0
0.0
0.0
0.0
0.0
0.0
0.0
0.0
0.0
0.0
0.0
0.0
0.0
0.0
0.0
0.0
0.0
0.0
0.0
0.0
0.0
0.0
0.0
0.0
0.0
0.0
0.0
0.0
0.0
0.0
0.0
0.0
-0.0076904296875
0.0
-0.119049072265625
0.0
-0.202178955078125
0.0
-0.179443359375
0.0
-0.207305908203125
0.0
-0.235504150390625
0.0
-0.206573486328125
0.0
-0.117950439453125
0.0
-0.057861328125
0.0
-0.0853271484375
0.0
-0.1270751953125
0.0
-0.210601806640625
0.0
-0.264801025390625
0.0
-0.040283203125
0.0
0.53143310546875
0.0
0.765472412109375
0.0
0.370635986328125
0.0
-0.018310546875
0.0
-0.192291259765625
0.0
-0.252349853515625
0.0
-0.242828369140625
0.0
-0.207305908203125
0.0
-0.1072998046875
0.0
0.120880126953125
0.0
-0.0977783203125
0.0
-0.39593505859375
0.0
-0.237701416015625
0.0
-0.1160888671875
0.0
-0.0904541015625
0.0
-0.090850830078125
0.0
-0.089752197265625
0.0
-0.0703125
0.0
0.012451171875
0.0
0.091583251953125
0.0
0.158599853515625
0.0
-0.33770751953125
0.0
-0.44061279296875
1.0
0.0
1.0
0.0
-0.00146484375
0.0
0.0003662109375
0.0
0.0
0.0
0.0
0.0
0.0003662109375
0.0
0.0003662109375
0.0
-0.0003662109375
0.0
0.0
0.0
0.0003662109375
0.0
0.0
0.0
0.0
0.0
0.0
0.0
0.0
0.0
-1.0
0.0
-1.0
0.0
0.0
0.0
0.0
0.0
0.0
1.0
0.0
1.0
0.0
0.258941650390625
0.0
0.0
0.0
0.0
0.0
-1.0
0.0
-1.0
0.0
0.0
0.0
0.0
0.0
0.0
0.0
0.0
1.0
1.0
0.921875
1.0
-0.164459228515625
0.0
0.532501220703125
0.0003662109375
0.35308837890625
0.0
0.043975830078125
0.0
0.0003662109375
0.0
0.0003662109375
0.0
0.0
0.0
0.0
-1.0
0.0
-1.0
0.0
0.0
0.0
0.0
0.0
0.0
0.0
0.0
0.0
0.0
0.0
0.0
0.0
0.0
0.0
0.0
0.0
0.0
0.0
0.0
0.0
0.0
0.0
0.0
-0.0003662109375
0.0
0.0
0.0
-0.003662109375
0.0
-0.39117431640625
0.0
-0.659637451171875
0.0
-0.323394775390625
0.0
-0.299957275390625
0.0
-0.329986572265625
0.0
-0.0574951171875
1.0
-0.304718017578125
1.0
-0.1563720703125
0.0
0.188262939453125
-0.089752197265625
-0.161529541015625
-1.0
-0.301788330078125
-1.0
-0.159698486328125
0.0
-0.035919189453125
1.0
0.0
1.0
0.0
0.0
0.0
0.0
0.0
0.0
0.0
0.0
0.0
-1.0
0.0
-1.0
0.0
0.0
0.0
0.0
0.0
0.0
0.0
0.0
0.0
0.0
0.0
0.0
0.0
0.0
0.0
0.0
0.0
0.0
0.064483642578125
1.0
1.0
1.0
1.0
0.000732421875
0.147613525390625
0.0
0.0003662109375
0.0
0.0
0.0
-0.53143310546875
-0.0003662109375
-1.0
-0.0003662109375
-0.822967529296875
-0.0003662109375
-0.40032958984375
-0.0003662109375
-0.143951416015625
0.0
0.0
-1.0
0.0
-1.0
0.0
0.0
0.0
0.0
0.0
0.0
0.0
0.0
0.0
0.0
0.0
0.0
0.219024658203125
0.0
0.230377197265625
1.0
0.009521484375
1.0
-0.03955078125
0.0
-0.05859375
0.0
-0.157867431640625
0.0
-0.10693359375
0.0
0.002227783203125
0.0
-0.050567626953125
0.0
-0.025665283203125
0.0
-0.012451171875
0.0
0.047637939453125
0.0
0.054595947265625
0.0
0.02490234375
0.0
0.087158203125
0.0
0.0955810546875
0.0
0.087890625
0.0
0.0633544921875
0.0
0.0230712890625
0.0
-0.04833984375
0.0
-0.087158203125
0.0
-0.071044921875
0.0
-0.076904296875
0.0
-0.06005859375
0.0
-0.060821533203125
0.0
-0.0245361328125
0.0
-0.0274658203125
0.0
-0.037017822265625
0.0
-0.0003662109375
0.0
0.201446533203125
0.0
0.795867919921875
0.0003662109375
1.0
0.000732421875
0.377960205078125
0.0
-1.0
-0.000732421875
-1.0
-0.0003662109375
0.0
0.0
0.0
0.0
0.0
0.0
0.0
0.0
0.0
0.0
0.0
0.0
0.0
0.0
0.0
0.0
0.0
0.0
0.0
0.0
0.0
0.0
0.0
0.0
0.0
0.0
0.0
0.0
0.0
0.0
0.0
0.0
0.0
0.0
0.0
0.0
0.0
0.0
0.0
0.0
0.0
0.0
0.0
0.0
0.058624267578125
0.0
0.103302001953125
0.0
0.1029052734375
0.0
0.0823974609375
0.0
0.08642578125
0.0
0.0992431640625
0.0003662109375
0.0567626953125
0.0
0.051300048828125
-0.0003662109375
0.030792236328125
0.0
0.0216064453125
-0.0267333984375
0.01171875
-0.072540283203125
0.0084228515625
-0.083892822265625
0.00439453125
-0.0750732421875
-0.0146484375
-0.065185546875
0.000732421875
-0.0494384765625
-0.01025390625
-0.049072265625
0.0
-0.0457763671875
-0.0084228515625
-0.04541015625
-0.002197265625
-0.0574951171875
-0.0062255859375
-0.050933837890625
-0.048370361328125
0.044677734375
-0.061553955078125
0.168853759765625
-0.0318603515625
-0.086456298828125
0.0142822265625
-0.302154541015625
0.018310546875
-0.1688232421875
0.02783203125
-0.084228515625
0.00732421875
-0.0648193359375
0.0076904296875
-0.080230712890625
0.0069580078125
-0.082061767578125
-0.01025390625
-0.0472412109375
-0.0069580078125
0.021240234375
-0.0029296875
0.0501708984375
0.0157470703125
0.0164794921875
-0.005126953125
-0.0216064453125
0.00146484375
-0.0281982421875
0.005126953125
-0.017578125
0.0018310546875
-0.0135498046875
0.021270751953125
-0.0230712890625
0.017242431640625
-0.018310546875
0.0234375
-0.0150146484375
0.013916015625
-0.01025390625
0.0208740234375
-0.00732421875
0.0128173828125
-0.01904296875
0.0106201171875
-0.017578125
-0.0098876953125
0.126739501953125
-0.02783203125
0.213897705078125
0.02783203125
-0.094512939453125
0.0347900390625
-0.265533447265625
0.0296630859375
-0.1201171875
0.0076904296875
-0.0347900390625
0.000732421875
-0.02197265625
0.003662109375
-0.0435791015625
0.00146484375
-0.052734375
0.005859375
-0.021240234375
-0.00732421875
0.06298828125
0.0157470703125
0.0867919921875
0.0164794921875
0.018310546875
0.019775390625
-0.005126953125
0.00439453125
-0.006591796875
0.0029296875
-0.049072265625
0.002197265625
-0.08056640625
-0.0223388671875
-0.340606689453125
-0.01171875
-0.621185302734375
0.03076171875
-0.32159423828125
0.15380859375
0.0
1.0
0.0
0.93212890625
0.0
-0.00146484375
0.0
0.0003662109375
0.0
0.0003662109375
0.0
-0.0003662109375
0.0
-0.0003662109375
0.0
0.0003662109375
0.0
0.0003662109375
0.0
0.0
0.0
0.0
0.0
0.0
1.0
0.0
1.0
0.0
0.0
0.0
0.0
0.0
0.0
0.0
0.0
0.0
0.0
0.0
0.0
0.0
0.0
0.0
0.0
-1.0
-0.000732421875
-1.0
-0.000732421875
0.0
0.0
0.0
0.0
0.0
0.0
0.0
0.0
0.0
0.0
0.0
0.0
0.0
0.0
0.0
0.0
0.0
0.0
0.0
0.0
0.0
0.0
0.0
0.0
0.0
0.0
0.0
0.0
0.0
0.0
0.0
0.0
0.0
-0.0003662109375
0.0
0.0
0.0
0.0003662109375
0.0
0.0
0.193389892578125
0.0
1.0
0.000732421875
1.0
0.000732421875
-0.00146484375
0.0
0.0
-0.050201416015625
0.0003662109375
-1.0
0.0
-1.0
0.0
0.0
0.0003662109375
0.0
0.0
0.0
0.0
0.0
0.0
0.0
0.0
0.0
0.0
0.0
-0.717498779296875
0.0
-1.0
0.0
-0.781219482421875
0.0
0.0
0.0
0.48272705078125
0.0
1.0
0.0
1.0
0.0
0.00146484375
0.0
-0.0010986328125
0.0
-1.0
0.0
-1.0
0.0
0.0
0.0
0.0
0.0
0.0
0.0
0.0
0.0
0.0
0.0
0.0
1.0
0.0
0.0
0.0
-1.0
0.0
0.0
0.0
0.0
0.0
0.0
0.0
1.0
0.0
1.0
0.0
0.0
0.0
0.0
0.0
0.0
0.0
0.0
0.0
0.0
0.0
0.0
0.0
0.0
0.0
0.0
0.0
0.0
0.0
0.0
0.0
0.0
0.0
0.0
0.0
0.0
0.0
0.0
0.0
0.0
0.0
0.0
0.0
0.0
0.0
0.0
0.0
0.0
0.0
0.0
0.0
0.0
0.0
0.0
0.0
-1.0
0.0
-1.0
0.0
0.0
0.0
0.0
0.0
0.0
0.0
0.0
0.0
0.0
0.0
0.0
0.0
1.0
0.0
1.0
0.199249267578125
0.0
1.0
0.000732421875
1.0
0.000732421875
0.000732421875
0.0
0.0
0.0
0.0
0.0
0.0003662109375
0.0
0.0003662109375
0.0
-0.0003662109375
0.0
0.0
0.0
0.0003662109375
0.0
0.0
0.0
0.0
0.0
0.0
0.0
0.0
0.0
0.0
0.0
0.0
0.0
0.0
0.0
0.0
0.0
0.0
0.0
0.0
0.0
0.0
0.0
0.0
0.0
0.0
0.0
0.0
0.0
0.0
0.0
0.0
0.0
0.0
0.0
0.0
0.0
-0.0018310546875
0.0
-0.067413330078125
0.0
-0.132965087890625
0.0
-0.1124267578125
-0.0003662109375
-0.1168212890625
-0.0003662109375
-0.1263427734375
0.0
-0.106231689453125
0.0003662109375
-0.080963134765625
-1.0
-0.0699462890625
-1.0
-0.107666015625
-0.101837158203125
-0.199249267578125
0.0
-0.284942626953125
0.0
-0.15966796875
0.0
-0.0230712890625
0.0
-0.018310546875
0.0
0.029296875
0.0
0.0684814453125
0.0
0.0380859375
0.0
0.0260009765625
0.0
0.060791015625
1.0
0.006591796875
1.0
0.52154541015625
0.0003662109375
0.703216552734375
0.0003662109375
0.153106689453125
0.0
0.000732421875
0.0
0.0
0.0
-1.0
-0.000732421875
-1.0
-0.000732421875
-0.0267333984375
0.0
0.0
0.0
0.0
0.0
0.0
0.0
0.0
-0.012451171875
0.0
-1.0
1.0
-1.0
1.0
0.0
-0.0018310546875
0.634368896484375
0.0
1.0
0.000732421875
0.260772705078125
0.0003662109375
-1.0
-0.0003662109375
-0.8951416015625
0.0
0.417510986328125
0.0003662109375
1.0
0.0
1.0
0.0
0.0
0.0
0.0
0.0
0.0
0.0
0.0
0.0
0.0
-0.013916015625
0.0
-0.139556884765625
0.0
-0.236236572265625
-0.0003662109375
-0.255279541015625
0.0
-0.267364501953125
0.0
-0.249053955078125
0.0
-0.209503173828125
0.0
-0.17724609375
-0.0003662109375
-0.191558837890625
0.0
-0.183868408203125
-0.0003662109375
-0.18017578125
0.0
-0.148681640625
0.0003662109375
-0.152008056640625
-0.0003662109375
-0.150177001953125
-0.0003662109375
-0.123779296875
0.0
-0.099609375
0.0
-0.0684814453125
0.0
-0.095245361328125
0.0
-0.055694580078125
0.0
0.0
0.0
1.0
0.000732421875
1.0
-0.060821533203125
0.0010986328125
-1.0
0.0003662109375
-1.0
0.0
1.0
-0.0003662109375
1.0
0.0003662109375
-1.0
-1.0
-1.0
-1.0
0.0
-0.01611328125
0.0
0.0
0.0
0.0
0.0
0.0
0.0
0.0
0.0
0.0
0.005859375
0.0
0.0
0.0029296875
-0.005859375
0.0333251953125
0.0
-0.0029296875
0.190093994140625
-0.0333251953125
0.261505126953125
0.0
-0.190093994140625
0.0
-0.261505126953125
0.0
0.0
0.0
1.0
0.0
1.0
0.0
0.0
0.0
0.0
0.0
0.0
0.0
0.0
0.0
0.0
0.0
0.0
0.0
-0.40179443359375
0.0
-1.0
0.0
-1.0
0.0
0.058990478515625
0.0
1.0
0.0
1.0
0.0
0.36077880859375
0.0
0.0
0.0
0.0
0.0
0.0
0.0
0.0
0.0
0.0
0.0
0.0
0.0
0.0
0.0
0.0
0.0
0.0
0.0
0.0
0.0
-0.0003662109375
0.0
0.0
0.0
0.0003662109375
0.0
0.0
0.0
0.0
1.0
0.000732421875
1.0
-1.0
0.32159423828125
-1.0
0.0003662109375
0.0
0.0003662109375
0.0
0.0003662109375
0.0
0.0
0.0
0.0
0.0
0.0
0.0
0.0
0.0
0.0
0.0
0.0
0.0
0.0
0.054229736328125
0.0
0.215728759765625
0.0
0.269195556640625
-0.0003662109375
0.0845947265625
-0.079864501953125
0.0552978515625
-0.250885009765625
0.222320556640625
-0.938323974609375
0.966156005859375
-1.0
0.9764404296875
-0.48052978515625
0.154205322265625
0.0
0.0
0.0
0.0
0.0
0.0
0.0
0.0
0.0
0.0
0.102569580078125
-1.0
1.0
-1.0
1.0
-0.058624267578125
0.0003662109375
0.0
0.0003662109375
0.0
0.0
0.0
0.0
0.0
0.0003662109375
0.0
0.0
0.0
0.0
0.0
0.0
0.0
0.0
0.0
0.0
0.0
0.0
0.0
0.0
0.0
0.0
0.0
0.0
0.0
0.0
0.0
0.0
0.0
0.0
0.0
0.0
0.0
0.0
0.0
0.0
0.0
0.0
0.129302978515625
0.0
0.176177978515625
0.0
0.024169921875
0.0
-0.0260009765625
0.0
0.1292724609375
0.0
0.236602783203125
0.0
0.219757080078125
0.0
0.1845703125
0.0
0.140655517578125
0.0
0.176544189453125
0.0
0.198486328125
0.0
0.182403564453125
0.0
0.123443603515625
0.0
0.09521484375
-0.0003662109375
0.0867919921875
-0.044708251953125
0.0684814453125
-0.141387939453125
0.0977783203125
-0.13916015625
0.0706787109375
-0.1278076171875
0.061920166015625
-0.087158203125
0.073638916015625
-0.130767822265625
0.0380859375
-0.165924072265625
-0.079132080078125
-0.0648193359375
-0.104400634765625
0.43658447265625
0.046173095703125
0.46514892578125
-0.1702880859375
0.0003662109375
-0.721527099609375
0.0
-0.674285888671875
0.0
-0.13037109375
-1.0
-0.00439453125
-1.0
-0.074371337890625
-0.015380859375
0.145050048828125
0.0
1.0
0.0
1.0
0.0
0.0303955078125
0.0
0.0
0.0
0.0
0.0
0.0
0.0
0.0
0.0
0.0
0.0
0.0
0.0
-0.121612548828125
0.0
-0.071075439453125
0.0
0.0736083984375
0.0
0.071075439453125
0.0
0.048004150390625
0.0
0.0
0.0
0.0
0.0
0.0
0.0
0.0
0.0
0.0
0.0
0.0
0.0
0.0
1.0
-1.0
0.0025634765625
0.0
-1.0
1.0
-0.0025634765625
0.0
0.0
-1.0
0.48822021484375
-1.0
0.0150146484375
-0.283111572265625
-0.48822021484375
0.0
1.0
0.0
1.0
0.0
-0.00146484375
0.0
0.0
0.0
0.0
0.0
0.0
0.0
0.0003662109375
0.0
0.0003662109375
0.0
0.0
0.0
-0.218292236328125
0.0
-0.54681396484375
0.0
-0.49700927734375
0.0
-0.38055419921875
0.0
-0.392974853515625
0.0
-0.313140869140625
0.0
-0.254913330078125
0.0
-0.1204833984375
0.0
-0.0230712890625
0.0
0.01318359375
0.0
0.0516357421875
0.0
0.0487060546875
0.0
0.075439453125
0.0
0.046875
0.0
0.05712890625
0.0
0.0633544921875
0.0
0.062652587890625
0.0
0.051666259765625
0.0
0.0435791015625
0.0
0.054931640625
0.0
0.0311279296875
0.0
0.0567626953125
0.0
0.0501708984375
0.0
0.056396484375
0.0
0.0296630859375
0.0
0.00146484375
0.0
0.076171875
0.0
0.120513916015625
0.0
0.119049072265625
0.0
0.0765380859375
0.0
0.064453125
0.0
0.0531005859375
0.0
0.054931640625
0.0
0.0498046875
0.0
0.0333251953125
0.0
0.04833984375
0.0
0.043609619140625
0.0
0.049835205078125
0.0
0.03076171875
0.0
0.0523681640625
0.0
0.03369140625
0.0
0.1505126953125
0.0
0.52850341796875
1.0
0.36627197265625
1.0
-1.0
-0.0003662109375
0.00146484375
0.0
0.0
0.0
-1.0
-0.000732421875
0.0
0.0
1.0
0.0003662109375
1.0
-1.0
0.278717041015625
-1.0
-1.0
0.0
-1.0
0.0
-0.0135498046875
0.0
0.0
0.0
0.0
0.0
0.0
0.0
0.0
0.0
0.0
0.0
0.0
0.0
0.0
0.0
0.0
0.0
0.0
0.0
0.0
0.0
0.0
0.0
0.0
0.0
0.0
0.0
0.0
0.0
0.0
0.0
0.0
0.0
0.0
0.0
0.0
0.0
0.0
0.0
0.0
0.0
0.0
0.0
0.0
0.0
0.0
0.0
0.0
0.0
0.0
0.0
0.0
0.0
0.0
0.0
0.0
0.0
0.0
0.0
0.0
0.0
0.0
0.0
0.0
0.0
0.0
0.0
0.0
0.0
0.0
0.0
0.0
0.0
0.0
0.0
0.0
0.0
0.0
0.0
0.0
0.0
0.0
0.0
0.0
0.0
0.0
0.0
0.0
0.0
0.0
0.0
0.0
0.0
0.0
0.0
0.41827392578125
0.0
1.0
0.0
1.0
0.0
0.0018310546875
0.0
0.0
0.0
0.0
0.0
-1.0
0.0
-1.0
0.0
0.0
0.0
0.0
0.0
0.0
1.0
0.0
1.0
0.0
-1.0
0.0
-1.0
0.0
0.0
0.0
0.0
1.0
0.59478759765625
1.0
0.0
0.0018310546875
-0.59478759765625
0.0
1.0
-0.0325927734375
1.0
-0.867279052734375
-0.0003662109375
-0.265899658203125
0.0
0.72332763671875
0.0003662109375
0.297760009765625
0.0
0.143951416015625
0.0
-0.097076416015625
0.0
-0.268463134765625
0.0
-0.235870361328125
0.0
-0.167388916015625
-0.0003662109375
-0.18310546875
-0.0003662109375
-0.176177978515625
0.0
-0.180572509765625
0.0
-0.1094970703125
0.0
-0.10986328125
0.0
-0.1475830078125
0.0
-0.138458251953125
0.0
-0.089752197265625
-0.0003662109375
-0.062255859375
0.0
-0.0966796875
0.0003662109375
-0.0897216796875
-0.0003662109375
-0.10107421875
-0.0003662109375
-0.079833984375
0.0
-0.099639892578125
0.0
-0.053863525390625
0.0
-0.02490234375
0.0
-0.043212890625
0.0
-0.0205078125
0.0
-0.053466796875
0.0
-0.0281982421875
0.0
-0.0406494140625
0.0
-0.0296630859375
0.0
-0.0325927734375
0.0
-0.0245361328125
0.0
0.00439453125
0.0
-0.005126953125
0.0
0.008056640625
0.0
-0.0267333984375
-0.006591796875
-0.012451171875
-0.048370361328125
-0.0267333984375
-0.075836181640625
-0.0267333984375
-0.0655517578125
-0.0135498046875
-0.06298828125
-0.021240234375
-0.0582275390625
-0.0032958984375
-0.0567626953125
-0.015777587890625
-0.0556640625
0.005859375
-0.0501708984375
-0.01904296875
-0.0516357421875
-0.031524658203125
0.201416015625
-0.0120849609375
0.1373291015625
0.0076904296875
-0.24169921875
0.0113525390625
-0.243560791015625
-0.0029296875
-0.110260009765625
0.0018310546875
-0.035888671875
-0.0179443359375
-0.0413818359375
0.005126953125
-0.0574951171875
0.0
-0.057861328125
-0.0054931640625
-0.0120849609375
0.0
0.0472412109375
0.0032958984375
0.041748046875
0.0157470703125
-0.0062255859375
-0.003662109375
-0.0201416015625
0.0113525390625
-0.013916015625
-0.0032958984375
-0.0084228515625
0.008087158203125
-0.0098876953125
0.003662109375
-0.0091552734375
0.0025634765625
-0.0032958984375
0.005126953125
-0.0076904296875
-0.006988525390625
-0.005126953125
0.018341064453125
-0.0040283203125
0.004425048828125
-0.0087890625
0.0179443359375
-0.010986328125
0.00146484375
-0.012451171875
-0.0216064453125
0.266632080078125
0.006591796875
0.1563720703125
0.0208740234375
-0.243560791015625
0.024169921875
-0.199951171875
0.0146484375
-0.0732421875
0.0146484375
-0.0106201171875
-0.0054931640625
-0.0201416015625
0.0087890625
-0.0322265625
0.003662109375
-0.035186767578125
0.0
0.016845703125
0.0106201171875
0.083160400390625
0.0087890625
0.071044921875
0.0245361328125
0.016845703125
0.0
-0.000732421875
0.01611328125
-0.0029296875
0.0040283203125
-0.00146484375
0.0087890625
0.005126953125
0.008056640625
0.0084228515625
0.003662109375
0.0091552734375
0.0142822265625
0.0029296875
-0.0018310546875
0.0054931640625
0.01904296875
0.0076904296875
0.005859375
0.005126953125
0.015380859375
0.00732421875
0.0087890625
0.0040283203125
-0.0062255859375
0.1197509765625
-0.012451171875
0.263702392578125
0.0098876953125
-0.03076171875
0.034423828125
-0.269927978515625
0.0087890625
-0.122314453125
0.0230712890625
-0.0325927734375
0.0029296875
-0.0098876953125
0.01025390625
-0.019775390625
0.0069580078125
-0.03662109375
0.006591796875
-0.0234375
0.013916015625
0.046875
0.006591796875
0.0816650390625
0.03369140625
0.030029296875
0.0120849609375
-0.0062255859375
0.0216064453125
-0.0076904296875
0.0098876953125
-0.0029296875
0.0098876953125
-0.0018310546875
0.010986328125
-0.0010986328125
0.000732421875
0.0054931640625
0.0157470703125
0.003662109375
-0.0003662109375
-0.003662109375
0.0157470703125
-0.0029296875
0.005126953125
0.0062255859375
0.0146484375
0.005126953125
0.010986328125
-0.0032958984375
0.003662109375
-0.0087890625
-0.015380859375
0.247589111328125
-0.0062255859375
0.17578125
0.0340576171875
-0.208038330078125
0.0150146484375
-0.205810546875
0.029693603515625
-0.0838623046875
0.006591796875
-0.01171875
0.0087890625
-0.01611328125
0.0084228515625
-0.0252685546875
0.00439453125
-0.0303955078125
0.015777587890625
0.0010986328125
0.000732421875
0.0677490234375
0.02490234375
0.063720703125
0.0150146484375
0.0186767578125
0.018310546875
-0.000732421875
0.0054931640625
-0.00146484375
0.005859375
0.0029296875
0.0146484375
0.0
0.0018310546875
0.0091552734375
0.016845703125
0.0062255859375
-0.0003662109375
0.0018310546875
0.0128173828125
0.0032958984375
0.002197265625
0.006591796875
0.006591796875
0.0062255859375
0.005859375
-0.003662109375
-0.0018310546875
-0.00146484375
-0.0150146484375
0.232574462890625
-0.0146484375
0.189727783203125
0.0267333984375
-0.173248291015625
0.01025390625
-0.206939697265625
0.01904296875
-0.082763671875
0.0
-0.0106201171875
-0.0003662109375
-0.0087890625
0.00146484375
-0.016845703125
-0.01025390625
-0.02490234375
0.0040283203125
0.0003662109375
-0.00732421875
0.0692138671875
0.0201416015625
0.0758056640625
0.0113525390625
0.0234375
0.010986328125
0.00439453125
0.00732421875
-0.0025634765625
0.0029296875
-0.002197265625
0.01318359375
0.002197265625
-0.00439453125
0.005859375
0.0069580078125
0.012451171875
-0.0029296875
0.009521484375
0.01318359375
-0.0018310546875
0.0054931640625
0.0025634765625
0.0069580078125
0.0135498046875
0.0120849609375
0.0087890625
0.00439453125
0.0029296875
0.0146484375
-0.0047607421875
-0.0296630859375
0.237701416015625
0.000732421875
0.206207275390625
0.0194091796875
-0.187164306640625
0.024169921875
-0.229644775390625
0.0179443359375
-0.0860595703125
0.0003662109375
-0.0135498046875
0.0076904296875
-0.016845703125
-0.0062255859375
-0.02490234375
0.00732421875
-0.0399169921875
-0.005859375
-0.008056640625
0.008056640625
0.068115234375
0.0087890625
0.0809326171875
0.013916015625
0.0274658203125
0.0098876953125
-0.0003662109375
0.0003662109375
0.00146484375
0.0106201171875
-0.0040283203125
-0.002197265625
-0.0069580078125
0.01318359375
0.0010986328125
-0.0029296875
0.0062255859375
0.0076904296875
0.0010986328125
0.0069580078125
-0.00439453125
0.0025634765625
0.0
0.00732421875
0.0062255859375
-0.0029296875
0.0010986328125
0.012451171875
-0.0054931640625
-0.00439453125
-0.01171875
-0.0201416015625
0.256744384765625
-0.00732421875
0.189361572265625
0.0230712890625
-0.222320556640625
0.0223388671875
-0.227813720703125
0.0164794921875
-0.0889892578125
0.0084228515625
-0.0194091796875
-0.0054931640625
-0.0216064453125
0.008056640625
-0.0340576171875
-0.000732421875
-0.041748046875
0.006591796875
-0.00146484375
-0.0040283203125
0.069580078125
0.008056640625
0.0692138671875
0.019775390625
0.01611328125
0.000732421875
-0.002197265625
0.0142822265625
-0.01171875
-0.00146484375
-0.0091552734375
0.0091552734375
-0.0040283203125
0.0032958984375
-0.00439453125
0.0076904296875
0.000732421875
0.0054931640625
-0.00146484375
0.0
-0.005859375
0.0076904296875
-0.0032958984375
-0.003662109375
0.002197265625
0.016510009765625
-0.0032958984375
0.0025634765625
-0.0062255859375
0.00439453125
-0.01171875
-0.0322265625
0.256744384765625
-0.005157470703125
0.1629638671875
0.0216064453125
-0.220489501953125
0.003326416015625
-0.193359375
0.024566650390625
-0.0845947265625
-0.003692626953125
-0.0120849609375
0.006591796875
-0.0164794921875
-0.002197265625
-0.0289306640625
0.0040283203125
-0.0333251953125
-0.0040283203125
0.0040283203125
-0.0029296875
0.0684814453125
0.017974853515625
0.0626220703125
0.0032958984375
0.0164794921875
0.010986328125
-0.000732421875
-0.00439453125
-0.0010986328125
0.0062255859375
-0.002197265625
0.0
-0.0025634765625
0.0018310546875
0.000732421875
0.005859375
0.0010986328125
-0.003662109375
0.006591796875
0.0054931640625
0.000732421875
-0.005859375
0.0010986328125
0.01318359375
0.00146484375
-0.0003662109375
-0.003662109375
0.008056640625
0.0010986328125
-0.003662109375
0.0421142578125
-0.018310546875
0.281646728515625
0.037353515625
0.0556640625
0.0347900390625
-0.289337158203125
0.2113037109375
-0.177978515625
0.831390380859375
0.0260009765625
0.626312255859375
0.57794189453125
0.002197265625
-1.0
-1.0
-0.000732421875
-0.0018310546875
-0.0091552734375
1.0
-1.0
0.0003662109375
0.0
0.0003662109375
0.0
0.0003662109375
0.0
0.0
0.0
0.0
0.0
0.0
0.0
0.0
0.0
0.0
0.0
0.0
0.0
0.0
0.0
0.0
0.0
0.0
0.0
0.0
0.0
0.0
0.0
0.0
0.0
0.0
0.0
0.0
0.0
-0.0003662109375
0.0
0.0
0.0
0.0003662109375
0.0
0.0
0.0
0.0
0.0
0.0
0.0
0.0
0.0
0.0
0.0
0.0
0.0
0.0
0.0
0.0
0.0
-0.0003662109375
0.0
0.0
0.0
0.0003662109375
0.0
0.0
0.0
0.0
0.0
0.0
0.0
0.0
0.0
0.0
0.0
-0.061553955078125
0.085357666015625
-0.650848388671875
1.0
-0.301422119140625
1.0
0.45855712890625
-0.829925537109375
0.253814697265625
-1.0
0.186798095703125
-0.669525146484375
-0.05859375
-0.0439453125
0.0062255859375
0.0
-0.02783203125
-0.0516357421875
-0.060089111328125
0.0
0.0047607421875
-0.084259033203125
-0.140625
0.0003662109375
0.005126953125
-0.0076904296875
-0.147247314453125
0.196685791015625
-0.008056640625
0.0
-0.05712890625
0.054931640625
-0.025634765625
0.00146484375
-0.037353515625
0.03662109375
-0.120147705078125
0.017578125
0.0274658203125
-0.14501953125
-0.15966796875
0.258575439453125
0.0157470703125
-0.134429931640625
-0.125640869140625
0.259307861328125
0.01171875
-0.0091552734375
-0.021240234375
-0.008056640625
-0.0640869140625
0.021240234375
0.054962158203125
-0.18310546875
-0.11865234375
0.227813720703125
0.02197265625
-0.140655517578125
-0.158966064453125
0.349395751953125
0.0230712890625
-0.140625
-0.076904296875
0.109161376953125
-0.0084228515625
-0.0128173828125
0.0421142578125
-0.153106689453125
-0.080230712890625
0.1512451171875
0.0538330078125
-0.1585693359375
-0.1219482421875
0.258209228515625
0.0318603515625
-0.157501220703125
-0.109130859375
0.235137939453125
0.021240234375
-0.1080322265625
-0.0205078125
-0.00146484375
-0.0157470703125
0.024169921875
0.0457763671875
-0.140289306640625
-0.1058349609375
0.224884033203125
0.06005859375
-0.173583984375
-0.117950439453125
0.262237548828125
0.03955078125
-0.156402587890625
-0.066650390625
0.112060546875
0.0040283203125
-0.0721435546875
0.030029296875
-0.094482421875
-0.038818359375
0.0999755859375
0.062286376953125
-0.181671142578125
-0.101806640625
0.228912353515625
0.052734375
-0.169586181640625
-0.112823486328125
0.269195556640625
0.0413818359375
-0.1534423828125
-0.0355224609375
0.0582275390625
-0.0194091796875
0.0465087890625
0.0560302734375
-0.1461181640625
-0.08203125
0.202545166015625
0.0611572265625
-0.195220947265625
-0.092315673828125
0.264434814453125
0.057891845703125
-0.188629150390625
-0.0802001953125
0.16259765625
0.0325927734375
-0.0999755859375
0.0084228515625
-0.06298828125
-0.047607421875
0.1175537109375
0.0633544921875
-0.168487548828125
-0.086822509765625
0.238067626953125
0.0684814453125
-0.208740234375
-0.0860595703125
0.234771728515625
0.043975830078125
-0.155303955078125
-0.0333251953125
0.05419921875
0.0
-0.006591796875
0.02783203125
-0.1168212890625
-0.058624267578125
0.178741455078125
0.063720703125
-0.168853759765625
-0.095947265625
0.271026611328125
0.081298828125
-0.219757080078125
-0.062255859375
0.1578369140625
0.026763916015625
-0.10107421875
0.00439453125
-0.049072265625
-0.037384033203125
0.1029052734375
0.0399169921875
-0.1351318359375
-0.0816650390625
0.221588134765625
0.06591796875
-0.198516845703125
-0.0611572265625
0.197052001953125
0.066650390625
-0.192291259765625
-0.057861328125
0.106201171875
-0.0018310546875
-0.0032958984375
0.0205078125
-0.084228515625
-0.062255859375
0.180206298828125
0.0618896484375
-0.171417236328125
-0.0732421875
0.232940673828125
0.0640869140625
-0.2010498046875
-0.0545654296875
0.16552734375
0.0494384765625
-0.132232666015625
-0.0230712890625
-0.006591796875
-0.0245361328125
0.069976806640625
0.030029296875
-0.1259765625
-0.071044921875
0.2138671875
0.08203125
-0.204376220703125
-0.0736083984375
0.240631103515625
0.0677490234375
-0.190460205078125
-0.0333251953125
0.0706787109375
0.0223388671875
-0.0479736328125
0.0146484375
-0.075439453125
-0.04833984375
0.150543212890625
0.03955078125
-0.151611328125
-0.082763671875
0.247589111328125
0.079833984375
-0.214996337890625
-0.073974609375
0.1951904296875
0.0567626953125
-0.159332275390625
-0.005859375
-0.013916015625
-0.0186767578125
0.0633544921875
0.0413818359375
-0.13330078125
-0.07763671875
0.213165283203125
0.04833984375
-0.176910400390625
-0.07177734375
0.242095947265625
0.0732421875
-0.2021484375
-0.0380859375
0.09375
0.04541015625
-0.079132080078125
0.012451171875
-0.0732421875
-0.0552978515625
0.144683837890625
0.050537109375
-0.15380859375
-0.085693359375
0.255279541015625
0.0582275390625
-0.190826416015625
-0.065185546875
0.201416015625
0.060791015625
-0.164825439453125
-0.0062255859375
-0.0018310546875
0.00732421875
0.0201416015625
0.0333251953125
-0.1234130859375
-0.0626220703125
0.199249267578125
0.054931640625
-0.179473876953125
-0.0966796875
0.269561767578125
0.060791015625
-0.193359375
-0.0465087890625
0.113525390625
0.0435791015625
-0.094146728515625
0.025634765625
-0.0809326171875
-0.0355224609375
0.122711181640625
0.035888671875
-0.140625
-0.0758056640625
0.240997314453125
0.0611572265625
-0.191192626953125
-0.082763671875
0.226318359375
0.068115234375
-0.182769775390625
-0.0120849609375
0.0205078125
0.016845703125
0.0010986328125
0.0439453125
-0.12744140625
-0.0633544921875
0.193756103515625
0.0501708984375
-0.167022705078125
-0.0867919921875
0.262969970703125
0.0487060546875
-0.183837890625
-0.0556640625
0.1468505859375
0.052734375
-0.132598876953125
0.006591796875
-0.06591796875
-0.0098876953125
0.087921142578125
0.054931640625
-0.1534423828125
-0.0816650390625
0.2537841796875
0.0633544921875
-0.198516845703125
-0.088623046875
0.244293212890625
0.0509033203125
-0.168121337890625
-0.0208740234375
0.03515625
0.016845703125
-0.0234375
0.0384521484375
-0.1226806640625
-0.0333251953125
0.160797119140625
0.0531005859375
-0.176177978515625
-0.0889892578125
0.265899658203125
0.06298828125
-0.193359375
-0.07763671875
0.1827392578125
0.046142578125
-0.123077392578125
0.0084228515625
-0.054931640625
-0.0179443359375
0.082061767578125
0.0604248046875
-0.158203125
-0.0615234375
0.21533203125
0.0531005859375
-0.184967041015625
-0.0849609375
0.251617431640625
0.046875
-0.1688232421875
-0.0498046875
0.080596923828125
0.0322265625
-0.051300048828125
0.0380859375
-0.117584228515625
-0.0443115234375
0.162261962890625
0.07470703125
-0.186431884765625
-0.0765380859375
0.257476806640625
0.0516357421875
-0.1922607421875
-0.0706787109375
0.186767578125
0.031494140625
-0.115020751953125
-0.0091552734375
-0.0234375
0.000732421875
0.052764892578125
0.056396484375
-0.154541015625
-0.0472412109375
0.198486328125
0.057861328125
-0.192657470703125
-0.10107421875
0.277252197265625
0.049072265625
-0.18017578125
-0.05126953125
0.091949462890625
0.0172119140625
-0.044708251953125
0.0267333984375
-0.105499267578125
-0.021240234375
0.136260986328125
0.0692138671875
-0.179443359375
-0.05859375
0.236602783203125
0.057861328125
-0.197784423828125
-0.0908203125
0.216796875
0.04833984375
-0.145416259765625
-0.029296875
0.005126953125
-0.00439453125
0.049468994140625
0.0618896484375
-0.15673828125
-0.05712890625
0.2080078125
0.0743408203125
-0.208038330078125
-0.0706787109375
0.250518798828125
0.05126953125
-0.176513671875
-0.0574951171875
0.103271484375
0.02197265625
-0.060089111328125
0.009521484375
-0.075439453125
-0.0274658203125
0.130401611328125
0.0673828125
-0.1783447265625
-0.0706787109375
0.239532470703125
0.071044921875
-0.206939697265625
-0.0732421875
0.207275390625
0.0380859375
-0.139556884765625
-0.018310546875
0.0054931640625
-0.005859375
0.040313720703125
0.03369140625
-0.1270751953125
-0.0428466796875
0.1864013671875
0.071044921875
-0.193023681640625
-0.0732421875
0.245391845703125
0.0633544921875
-0.1944580078125
-0.0677490234375
0.13330078125
0.024169921875
-0.070709228515625
0.0201416015625
-0.084228515625
-0.0362548828125
0.128570556640625
0.0556640625
-0.161865234375
-0.0574951171875
0.227813720703125
0.0582275390625
-0.192291259765625
-0.0684814453125
0.207275390625
0.0574951171875
-0.161895751953125
-0.03515625
0.0362548828125
-0.0010986328125
0.021240234375
0.0325927734375
-0.1241455078125
-0.0560302734375
0.193023681640625
0.071044921875
-0.190460205078125
-0.065185546875
0.240631103515625
0.0545654296875
-0.1875
-0.0545654296875
0.13037109375
0.03515625
-0.097442626953125
0.005859375
-0.0567626953125
-0.0201416015625
0.102203369140625
0.03515625
-0.1468505859375
-0.069580078125
0.237701416015625
0.0750732421875
-0.206207275390625
-0.0750732421875
0.220458984375
0.0596923828125
-0.170318603515625
-0.02197265625
0.035888671875
0.0087890625
-0.0018310546875
0.028564453125
-0.120849609375
-0.05126953125
0.183135986328125
0.050537109375
-0.167755126953125
-0.0732421875
0.253814697265625
0.063720703125
-0.198486328125
-0.071044921875
0.15673828125
0.047607421875
-0.118682861328125
0.00732421875
-0.0523681640625
-0.0230712890625
0.098907470703125
0.05419921875
-0.1593017578125
-0.0721435546875
0.23583984375
0.0487060546875
-0.182769775390625
-0.060791015625
0.218658447265625
0.0640869140625
-0.178009033203125
-0.027099609375
0.0494384765625
0.0325927734375
-0.0406494140625
0.0230712890625
-0.1087646484375
-0.049072265625
0.174346923828125
0.0538330078125
-0.171783447265625
-0.0955810546875
0.271759033203125
0.05712890625
-0.1944580078125
-0.056396484375
0.1585693359375
0.04541015625
-0.119415283203125
0.016845703125
-0.0574951171875
-0.0029296875
0.067779541015625
0.038818359375
-0.138427734375
-0.0728759765625
0.2259521484375
0.041748046875
-0.171783447265625
-0.0823974609375
0.249420166015625
0.0648193359375
-0.191192626953125
-0.031494140625
0.065185546875
0.0362548828125
-0.054931640625
0.035888671875
-0.1197509765625
-0.04248046875
0.166656494140625
0.0457763671875
-0.160064697265625
-0.08203125
0.254913330078125
0.0421142578125
-0.1783447265625
-0.0692138671875
0.1878662109375
0.065185546875
-0.150909423828125
0.0018310546875
-0.0296630859375
0.009521484375
0.0391845703125
0.0498046875
-0.1505126953125
-0.0699462890625
0.231842041015625
0.0457763671875
-0.178741455078125
-0.0955810546875
0.263702392578125
0.046142578125
-0.1688232421875
-0.0325927734375
0.090484619140625
0.0428466796875
-0.086090087890625
0.0245361328125
-0.102935791015625
-0.021240234375
0.155670166015625
0.0340576171875
-0.1212158203125
-0.1248779296875
0.418609619140625
-0.002197265625
-0.0472412109375
-0.0179443359375
0.03369140625
0.017578125
-0.122344970703125
0.047607421875
-0.2340087890625
0.09521484375
-0.193756103515625
0.0
-0.0032958984375
0.0325927734375
0.275421142578125
-0.093017578125
0.027099609375
-0.294830322265625
0.0120849609375
-0.023101806640625
-0.089385986328125
0.39373779296875
-0.025634765625
0.39337158203125
-0.1058349609375
-0.169952392578125
0.044342041015625
-0.368804931640625
0.0867919921875
-0.1138916015625
-0.039581298828125
0.147216796875
0.009521484375
0.100341796875
-0.0380859375
0.254913330078125
-0.013916015625
0.0501708984375
-0.00439453125
-0.298858642578125
0.076934814453125
-0.51129150390625
-0.022705078125
-0.243194580078125
-0.034454345703125
0.44573974609375
0.0205078125
0.160430908203125
-0.01171875
0.107666015625
0.0377197265625
0.0260009765625
-0.031494140625
-0.0758056640625
0.042144775390625
0.0618896484375
-0.022705078125
0.0662841796875
-0.026397705078125
0.172882080078125
-0.040283203125
0.127105712890625
-0.04833984375
0.329620361328125
-0.052734375
-0.196319580078125
0.0640869140625
-0.45269775390625
0.1219482421875
-0.167388916015625
0.005157470703125
-0.217926025390625
0.093414306640625
-0.1124267578125
-0.022003173828125
0.139190673828125
-0.034423828125
0.335845947265625
-0.047607421875
0.090087890625
-0.030059814453125
0.0267333984375
-0.010986328125
-0.1351318359375
0.029327392578125
-0.112060546875
0.056396484375
-0.0296630859375
-0.022735595703125
-0.0230712890625
0.043609619140625
0.0966796875
-0.0380859375
0.00439453125
-0.023834228515625
0.0732421875
-0.017578125
-0.0296630859375
-0.0084228515625
0.0106201171875
0.012451171875
-0.01025390625
-0.00146484375
-0.03369140625
0.0439453125
0.03076171875
-0.024169921875
-0.04541015625
0.033721923828125
0.0640869140625
-0.0303955078125
-0.0303955078125
-0.01171875
0.0340576171875
-0.0047607421875
-0.0201416015625
-0.023468017578125
-0.0172119140625
0.047607421875
0.0146484375
-0.0164794921875
0.0179443359375
0.030426025390625
0.134765625
-0.0238037109375
-0.0736083984375
0.0003662109375
0.02783203125
-0.006591796875
-0.0472412109375
-0.027862548828125
0.078765869140625
-0.0087890625
0.60394287109375
-0.2186279296875
0.311309814453125
0.018310546875
-0.177642822265625
0.098876953125
-0.180572509765625
0.0205078125
-0.0311279296875
0.0194091796875
0.063720703125
-0.0787353515625
0.706878662109375
-0.48345947265625
-0.62042236328125
0.172882080078125
-1.0
0.60064697265625
0.1007080078125
-0.107696533203125
0.1669921875
0.008819580078125
0.101470947265625
0.0010986328125
-0.499908447265625
0.0809326171875
-0.025634765625
0.03076171875
0.0223388671875
-0.0479736328125
0.0263671875
0.020538330078125
0.03369140625
-0.0205078125
-0.0003662109375
0.0281982421875
0.111328125
-0.037384033203125
-0.181304931640625
0.03076171875
0.126373291015625
-0.0091552734375
-0.0380859375
-0.0201416015625
0.1556396484375
-0.00439453125
0.271026611328125
-0.086090087890625
-0.418975830078125
0.122711181640625
-0.192291259765625
0.0047607421875
0.355987548828125
-0.0615234375
0.089752197265625
0.00146484375
-0.112060546875
0.000732421875
0.147216796875
-0.00439453125
-0.005126953125
-0.0208740234375
0.107330322265625
-0.0069580078125
-0.015380859375
-0.029693603515625
-0.230010986328125
0.091949462890625
-0.046905517578125
-0.013916015625
-0.154937744140625
0.012451171875
0.106964111328125
-0.0076904296875
-0.0076904296875
-0.0223388671875
-0.003662109375
0.047271728515625
-0.0194091796875
-0.0296630859375
0.14501953125
-0.017242431640625
-0.0966796875
-0.010284423828125
-0.205078125
0.056427001953125
0.397003173828125
-0.075439453125
0.160400390625
-0.0362548828125
-0.032958984375
0.0523681640625
0.210968017578125
-0.098175048828125
-0.0443115234375
0.086456298828125
-0.694427490234375
0.114288330078125
-0.093017578125
-0.060089111328125
0.45709228515625
-0.164093017578125
0.80133056640625
-0.142822265625
0.254180908203125
-0.0205078125
-0.68743896484375
0.194488525390625
0.081298828125
0.208404541015625
-0.287872314453125
-0.163726806640625
-0.369903564453125
-0.259307861328125
0.159698486328125
-0.0435791015625
0.04248046875
-0.36041259765625
-0.223419189453125
1.0
-0.46148681640625
1.0
-0.103302001953125
-0.005859375
-0.003662109375
0.0
0.45306396484375
-0.661468505859375
0.792572021484375
-1.0
0.64385986328125
-0.806121826171875
0.64129638671875
0.0
0.40142822265625
0.0
0.064483642578125
0.0
-0.841278076171875
0.0
-1.0
0.42376708984375
-0.55633544921875
0.808685302734375
-0.037017822265625
0.110595703125
0.182373046875
-0.453399658203125
-0.0435791015625
-0.351959228515625
-0.283111572265625
-0.34906005859375
-0.261138916015625
0.181304931640625
0.251983642578125
0.49261474609375
0.211334228515625
0.349029541015625
-0.005859375
0.1036376953125
0.253448486328125
-0.176544189453125
0.243194580078125
-0.0018310546875
-0.0604248046875
0.160430908203125
-0.180938720703125
0.220855712890625
-0.0450439453125
0.018310546875
0.051300048828125
-0.113525390625
0.0574951171875
-0.09814453125
-0.0267333984375
0.0208740234375
-0.047607421875
0.10986328125
-0.028228759765625
0.0369873046875
-0.0263671875
0.071044921875
0.066314697265625
-0.044677734375
-0.0128173828125
0.005126953125
0.046142578125
-0.043212890625
0.0025634765625
-0.0604248046875
-0.41717529296875
0.03955078125
-0.30255126953125
-0.002197265625
0.37506103515625
0.0325927734375
0.289337158203125
0.0047607421875
-0.0234375
0.04541015625
0.098175048828125
-0.046875
-0.0018310546875
-0.02490234375
0.05126953125
-0.065185546875
0.0076904296875
-0.0955810546875
-0.01171875
0.0040283203125
-0.049102783203125
0.0289306640625
-0.0498046875
0.1197509765625
0.078399658203125
-0.0062255859375
-0.0391845703125
0.0087890625
0.0662841796875
-0.0296630859375
0.005126953125
-0.0205078125
0.0531005859375
-0.068145751953125
-0.013916015625
-0.091552734375
-0.0626220703125
-0.0150146484375
0.0274658203125
-0.075836181640625
-0.08203125
0.077667236328125
0.046875
-0.006591796875
0.0318603515625
-0.0325927734375
0.04248046875
-0.046142578125
0.04833984375
-0.039581298828125
-0.013916015625
0.0626220703125
-0.0146484375
0.042877197265625
-0.04248046875
0.091217041015625
0.0252685546875
-0.051300048828125
-0.0135498046875
-0.0128173828125
-0.1124267578125
-0.0018310546875
0.00146484375
-0.0516357421875
0.123779296875
-0.00439453125
0.0142822265625
0.0069580078125
-0.005126953125
0.050567626953125
0.0087890625
0.006591796875
-0.06005859375
0.040283203125
0.0322265625
-0.066314697265625
0.03515625
-0.0245361328125
0.041748046875
-0.0120849609375
-0.0234375
-0.0010986328125
-0.02197265625
0.0113525390625
0.0084228515625
-0.0252685546875
-0.029296875
0.068878173828125
0.0179443359375
-0.0025634765625
-0.0355224609375
0.052001953125
0.0172119140625
-0.026763916015625
-0.000732421875
-0.0457763671875
0.038818359375
-0.0450439453125
-0.0146484375
-0.0069580078125
-0.02197265625
0.0303955078125
0.018310546875
-0.028961181640625
-0.046875
0.064483642578125
0.0333251953125
-0.0428466796875
-0.0128173828125
0.0263671875
-0.00439453125
0.056427001953125
-0.0391845703125
0.0977783203125
-0.0146484375
0.154541015625
-0.113555908203125
0.340972900390625
-0.378326416015625
0.727752685546875
0.131500244140625
-0.50653076171875
0.407623291015625
-0.751922607421875
0.103271484375
-0.0113525390625
0.000732421875
-0.263336181640625
-0.0205078125
-0.0106201171875
-0.179107666015625
0.63909912109375
-0.022705078125
0.248321533203125
-0.0003662109375
-0.06298828125
-0.173248291015625
0.257843017578125
-0.10400390625
-0.373199462890625
0.45196533203125
-0.354888916015625
0.343536376953125
-0.021240234375
-0.357086181640625
0.07177734375
-0.1226806640625
0.2255859375
-0.130401611328125
0.311309814453125
-0.188995361328125
0.54205322265625
-0.059326171875
0.39007568359375
-0.0010986328125
0.0150146484375
0.251983642578125
-0.679412841796875
0.369903564453125
-0.66217041015625
-0.01904296875
-0.0911865234375
0.91748046875
-0.782684326171875
-0.41461181640625
0.399566650390625
-1.0
0.857391357421875
0.0
-0.418975830078125
0.0
-0.390777587890625
0.0
-0.0333251953125
0.0
0.174346923828125
0.0
0.0201416015625
0.061553955078125
-0.122344970703125
0.005859375
-0.168853759765625
0.052001953125
-0.131103515625
-0.005859375
-0.437286376953125
0.043212890625
0.053466796875
0.311676025390625
-0.087921142578125
0.191192626953125
-0.44097900390625
0.076568603515625
0.0
0.0120849609375
0.0
0.090087890625
0.0
-0.080596923828125
0.273223876953125
-0.097412109375
0.0
0.42230224609375
-0.273223876953125
-0.37322998046875
1.0
-0.51348876953125
0.9075927734375
-0.0076904296875
0.076934814453125
0.034423828125
-0.132598876953125
0.066680908203125
-0.217926025390625
-0.0205078125
-0.0670166015625
0.050537109375
-0.143585205078125
0.103271484375
0.0369873046875
0.304718017578125
-0.852996826171875
-0.018310546875
-0.744964599609375
0.243194580078125
-0.284210205078125
0.34576416015625
0.0
-0.05419921875
0.0
-0.076934814453125
0.0
0.05712890625
0.0
0.115386962890625
0.0
-0.219757080078125
0.192291259765625
-0.345367431640625
0.56439208984375
-0.223419189453125
0.58160400390625
-0.079864501953125
0.230377197265625
0.0849609375
0.0933837890625
-0.0230712890625
0.234405517578125
-0.0120849609375
0.062652587890625
0.0611572265625
0.052734375
-0.1168212890625
0.114990234375
-0.147216796875
-0.093017578125
0.0281982421875
-0.294464111328125
0.329986572265625
-0.672454833984375
0.212799072265625
-0.11572265625
1.0
-0.315704345703125
-0.42193603515625
0.864349365234375
-1.0
1.0
1.0
-1.0
1.0
-1.0
-0.0010986328125
0.0
0.0
0.0
-1.0
0.0
-1.0
0.0
0.0
0.0
0.0
0.0
0.0
0.0
0.0
0.0
0.0
0.0
0.0
0.0
0.0
0.0
0.0
0.0
0.0
0.0
0.0
0.0
0.0
0.0
0.0
1.0
0.0
1.0
0.0
0.0
0.0
0.0
0.0
0.0
0.0
0.0
0.0
0.0
0.0
0.0
0.0
0.0
0.0
0.0
0.0
0.0
0.0
0.0
0.0
0.0
0.0
0.0
0.0
0.0
0.0
0.0
0.0
0.0
0.0
0.0
0.0
0.0
0.0
0.0
0.0
0.0
0.0
0.0
0.0
0.0
0.0
0.0
0.0
0.0
0.0
0.0
0.00146484375
0.0
0.008056640625
0.0
0.154571533203125
-0.0135498046875
0.672088623046875
-1.0
-0.156036376953125
-1.0
-0.680145263671875
0.0
0.0
0.0
0.0
0.0
0.0
0.0
0.0
0.0
0.0
0.0
0.0
0.0
0.0
0.0
1.0
0.0
1.0
0.0
-0.00146484375
0.0
0.0003662109375
0.0
0.0
0.0
0.0003662109375
0.0
0.0003662109375
0.0
-1.0
1.0
-1.0
1.0
0.0
0.0
0.0
0.0
0.0
0.0
0.000732421875
0.0
0.0
0.0
-0.000732421875
0.0
0.0
0.0
0.0
0.0
0.0
0.0
0.0
0.0
0.0
0.0
0.0
0.0
0.0
0.0
0.0
0.0
0.0
0.0
0.093780517578125
0.0
0.0
0.0
-0.093780517578125
0.0
0.009521484375
0.0
0.0
0.0
0.248321533203125
0.0003662109375
0.0087890625
0.0
0.190093994140625
-0.029296875
0.00146484375
0.0
-0.0560302734375
0.010986328125
0.207305908203125
0.0
-0.080230712890625
0.013916015625
0.376495361328125
-0.0018310546875
-0.1885986328125
0.00439453125
0.226715087890625
-0.178741455078125
-0.0699462890625
-0.0003662109375
0.00146484375
-0.261505126953125
0.2003173828125
0.0
-0.221588134765625
0.300689697265625
0.276519775390625
-0.046905517578125
-0.366241455078125
0.137725830078125
-0.0933837890625
-0.1761474609375
-0.232940673828125
0.003662109375
-0.295196533203125
-0.43988037109375
0.061553955078125
0.0
0.062255859375
-0.002197265625
0.273956298828125
-0.0098876953125
0.073974609375
0.51934814453125
0.2080078125
-0.265533447265625
0.003662109375
0.145782470703125
0.041748046875
-0.52337646484375
0.032958984375
0.0
-0.00439453125
-0.313507080078125
0.154571533203125
0.0003662109375
-0.006591796875
0.389678955078125
0.204376220703125
-0.187896728515625
0.02783203125
0.58709716796875
0.2003173828125
-0.65008544921875
0.070709228515625
0.135894775390625
0.050567626953125
-0.55560302734375
0.166259765625
0.0
0.0765380859375
0.091552734375
0.225982666015625
-0.146881103515625
0.0201416015625
0.67572021484375
0.158233642578125
-0.64056396484375
-0.0179443359375
0.53143310546875
0.0062255859375
-0.55377197265625
-0.029296875
0.094879150390625
-0.040283203125
-0.158233642578125
0.0860595703125
-0.00732421875
-0.048736572265625
0.296661376953125
0.173980712890625
-0.58380126953125
-0.08935546875
0.749359130859375
0.261138916015625
-0.836151123046875
0.44464111328125
0.248321533203125
-0.0128173828125
-0.072174072265625
0.00146484375
0.0311279296875
-0.43402099609375
0.032958984375
0.0010986328125
-0.802093505859375
0.206207275390625
0.046539306640625
-0.53253173828125
-0.332916259765625
0.237701416015625
-0.079498291015625
-0.870574951171875
0.0509033203125
0.008056640625
0.0
-0.096710205078125
-0.0655517578125
0.0
0.052764892578125
0.44171142578125
-0.019775390625
-0.186798095703125
0.21533203125
0.769500732421875
0.01611328125
-0.867279052734375
0.108062744140625
0.288238525390625
-0.03662109375
-0.44573974609375
-0.071441650390625
0.0003662109375
0.01171875
0.0
0.013916015625
-1.0
1.0
0.037017822265625
0.39263916015625
-0.130767822265625
-0.62481689453125
0.1402587890625
0.54608154296875
-0.298858642578125
-0.46258544921875
-0.177276611328125
0.241729736328125
0.0
-0.1636962890625
0.0
-0.0120849609375
0.0
0.252349853515625
0.0
-0.228546142578125
0.0
0.55120849609375
0.0
-0.63214111328125
0.0
0.401397705078125
0.0
-0.35675048828125
0.0
0.08935546875
0.0
-0.037353515625
0.0
-0.0670166015625
0.0
0.324493408203125
0.0040283203125
-0.429595947265625
0.0
0.47503662109375
0.0150146484375
-0.58050537109375
0.074005126953125
0.351226806640625
0.030059814453125
-0.267364501953125
0.113525390625
0.0552978515625
0.06591796875
0.1728515625
0.09814453125
-0.257080078125
0.0977783203125
0.44866943359375
0.040313720703125
-0.47174072265625
0.0699462890625
0.271026611328125
-0.082427978515625
-0.44757080078125
0.035888671875
0.301422119140625
0.0322265625
-0.208740234375
0.076934814453125
0.052734375
0.077301025390625
0.316070556640625
0.416046142578125
-0.54937744140625
1.0
-0.36883544921875
0.39849853515625
-0.802825927734375
0.000732421875
-0.0003662109375
-0.819671630859375
0.005859375
0.0
0.0
-0.194854736328125
0.0018310546875
0.0
0.0029296875
0.869476318359375
-0.0018310546875
-0.284942626953125
0.126373291015625
0.43475341796875
-0.005859375
-0.849700927734375
0.0263671875
0.0
0.0
-0.36517333984375
-0.0194091796875
0.0
0.076202392578125
0.37725830078125
0.0208740234375
-0.105865478515625
0.158203125
0.852264404296875
-0.00732421875
-0.498809814453125
0.088287353515625
0.270294189453125
-0.0201416015625
-0.758880615234375
-0.039947509765625
0.0
0.0362548828125
-0.136260986328125
-0.0179443359375
0.0
0.113525390625
0.58966064453125
0.182769775390625
-1.0
0.903564453125
-0.58966064453125
0.64825439453125
0.0
-0.30804443359375
0.0
0.232208251953125
0.0
-0.448638916015625
0.0
0.0421142578125
0.0
0.1094970703125
0.0
-0.1102294921875
0.0
0.37835693359375
0.0
-0.364776611328125
0.0
0.1783447265625
0.0
-0.29669189453125
0.0
0.217559814453125
0.0
-0.281280517578125
0.0
0.0120849609375
0.0
0.270294189453125
0.0
-0.283111572265625
0.0
0.33551025390625
0.0
-0.44134521484375
0.0
-0.168487548828125
0.0
-0.418975830078125
0.0
0.56256103515625
0.0
0.150909423828125
0.0
-0.199981689453125
0.0
0.392608642578125
0.0
-0.365509033203125
0.0
0.1376953125
0.0
-0.43841552734375
0.037750244140625
0.44610595703125
0.0
-0.154541015625
0.1058349609375
-0.107666015625
0.0146484375
0.285308837890625
-0.0791015625
-0.974609375
0.071441650390625
0.344635009765625
0.183837890625
0.358917236328125
0.2039794921875
0.288238525390625
-0.010986328125
-0.403594970703125
0.070343017578125
0.0966796875
-0.0494384765625
-0.0677490234375
-0.0230712890625
-0.399932861328125
0.037353515625
0.256378173828125
-0.054229736328125
-0.285308837890625
-0.0274658203125
0.58819580078125
-0.05712890625
-0.271026611328125
0.09521484375
0.258575439453125
-0.0234375
-0.16552734375
0.0146484375
-0.054229736328125
-0.0150146484375
0.276519775390625
-0.0087890625
-0.357086181640625
0.052734375
0.462921142578125
-0.003662109375
-0.320098876953125
0.0439453125
0.364776611328125
-0.03515625
-0.316802978515625
0.02197265625
0.137359619140625
-0.01904296875
0.003662109375
0.051300048828125
-0.281646728515625
0.0435791015625
0.366973876953125
-0.0098876953125
-0.307647705078125
0.0179443359375
0.328155517578125
-0.045806884765625
-0.243560791015625
0.015380859375
0.275421142578125
-0.0069580078125
-0.289703369140625
0.034088134765625
0.110260009765625
-0.01171875
0.052001953125
0.00439453125
-0.47723388671875
0.0340576171875
0.370269775390625
0.046875
-0.279815673828125
0.087188720703125
0.35235595703125
-0.0003662109375
-0.317535400390625
0.0146484375
0.1944580078125
-0.06298828125
-0.0875244140625
0.030029296875
-0.0933837890625
0.059326171875
0.216064453125
0.063720703125
-0.43988037109375
0.219024658203125
0.45123291015625
0.795867919921875
-0.60650634765625
-0.016876220703125
0.328155517578125
-0.983367919921875
0.0
-0.038818359375
0.205108642578125
0.175048828125
0.103668212890625
0.060455322265625
-0.47869873046875
0.003662109375
0.416412353515625
-0.076568603515625
-0.477569580078125
0.008056640625
0.55157470703125
-0.053466796875
-0.33294677734375
-0.01611328125
0.281646728515625
-0.0457763671875
0.0
0.041748046875
-0.157470703125
0.005126953125
0.34466552734375
0.010986328125
-0.613494873046875
0.0223388671875
0.457794189453125
-0.043212890625
-0.429962158203125
0.0040283203125
0.44866943359375
-0.054931640625
-0.152374267578125
0.016845703125
0.1142578125
-0.006591796875
0.143218994140625
0.0450439453125
-0.317535400390625
0.0252685546875
0.49847412109375
-0.01904296875
-0.740203857421875
0.0025634765625
0.377227783203125
-0.0849609375
-0.291900634765625
0.0322265625
0.233306884765625
-0.022705078125
-0.0157470703125
0.071044921875
-0.132965087890625
0.201812744140625
0.281280517578125
0.276885986328125
-0.54791259765625
0.1534423828125
0.37908935546875
-0.1453857421875
-0.55963134765625
0.047607421875
0.413848876953125
-0.0208740234375
-0.01171875
0.127105712890625
0.0465087890625
0.0970458984375
0.03076171875
-0.0322265625
-0.376495361328125
-0.367706298828125
0.256378173828125
-0.49224853515625
-0.53692626953125
-0.0904541015625
0.647552490234375
-0.146881103515625
-0.207305908203125
0.0047607421875
0.366607666015625
-0.0582275390625
0.0
-0.046173095703125
-0.03515625
-0.0032958984375
0.39593505859375
0.0289306640625
-0.46405029296875
0.03515625
0.474273681640625
-0.0234375
-0.459259033203125
0.01611328125
0.275421142578125
-0.052734375
-0.235870361328125
0.009521484375
0.204010009765625
-0.032958984375
-0.022705078125
0.032958984375
-0.225982666015625
0.028564453125
0.284942626953125
0.0
-0.502471923828125
0.03955078125
0.55010986328125
-0.049072265625
-0.54132080078125
0.0003662109375
0.312042236328125
-0.041748046875
-0.079864501953125
0.0281982421875
0.0677490234375
0.01171875
0.318634033203125
0.057891845703125
-0.48199462890625
0.0618896484375
0.50946044921875
-0.0267333984375
-0.55596923828125
-0.0498046875
0.36297607421875
-0.166656494140625
-0.261138916015625
-0.0633544921875
0.1739501953125
-0.0849609375
0.106231689453125
-0.1087646484375
-0.191192626953125
-0.079132080078125
0.53839111328125
-0.065216064453125
-0.59735107421875
0.0
0.17431640625
-0.0003662109375
-0.490386962890625
0.0
0.50726318359375
0.0
-0.086090087890625
0.058624267578125
0.0263671875
0.0
0.204376220703125
0.08203125
-0.449737548828125
0.048736572265625
0.58197021484375
-0.0084228515625
-0.641693115234375
0.0662841796875
0.46331787109375
-0.0322265625
-0.261138916015625
0.064453125
0.13330078125
0.0054931640625
0.041046142578125
0.0670166015625
-0.215362548828125
0.0472412109375
0.343536376953125
0.0230712890625
-0.487091064453125
0.053466796875
0.60430908203125
-0.01025390625
-0.54571533203125
0.0238037109375
0.339874267578125
-0.0205078125
-0.134796142578125
0.03955078125
-0.016845703125
-0.0435791015625
0.149810791015625
0.091583251953125
-0.53070068359375
0.046875
0.356353759765625
-0.076934814453125
-0.458892822265625
-0.0289306640625
0.696990966796875
-0.04248046875
-0.32232666015625
0.0018310546875
0.218994140625
-0.0567626953125
0.0
0.0369873046875
-0.1571044921875
0.0062255859375
0.32342529296875
0.0531005859375
-0.56988525390625
0.0201416015625
0.67608642578125
-0.0164794921875
-0.50103759765625
0.0010986328125
0.357818603515625
-0.0626220703125
-0.194122314453125
0.0120849609375
0.056396484375
-0.0853271484375
0.072540283203125
0.0157470703125
-0.350128173828125
0.0120849609375
0.525177001953125
0.031494140625
-0.65118408203125
0.0113525390625
0.647918701171875
-0.088623046875
-0.41241455078125
-0.052734375
0.198486328125
-0.10693359375
0.0
0.027099609375
-0.1329345703125
-0.0047607421875
0.284210205078125
0.041748046875
-0.53692626953125
-0.0128173828125
0.665130615234375
-0.060791015625
-0.53546142578125
0.04541015625
0.53619384765625
1.0
-0.238800048828125
1.0
-1.0
0.0018310546875
0.0
0.0
0.0
-0.841278076171875
0.319366455078125
-1.0
0.52886962890625
-0.58050537109375
0.987060546875
0.071441650390625
-0.481597900390625
0.0084228515625
0.170318603515625
-0.046539306640625
-0.047271728515625
0.0391845703125
-0.156768798828125
0.085723876953125
0.174346923828125
-0.124176025390625
-0.55303955078125
-0.110626220703125
0.788177490234375
0.0
-0.68084716796875
0.0
0.53472900390625
0.0
-0.086090087890625
0.0
0.0018310546875
0.0274658203125
0.090118408203125
1.0
-1.0
0.943115234375
-0.090118408203125
-1.0
-0.100738525390625
0.348297119140625
0.0
-0.34869384765625
0.0
0.180938720703125
0.0
0.00146484375
0.0
-0.233306884765625
1.0
1.0
0.60247802734375
-0.0084228515625
-0.790740966796875
-0.811248779296875
0.850067138671875
0.209503173828125
-0.43072509765625
-0.226715087890625
0.046173095703125
-0.020904541015625
0.077301025390625
0.0
0.0003662109375
-1.0
1.0
0.052764892578125
-0.039581298828125
0.0
-0.0252685546875
0.04248046875
-1.0
0.0
0.0252685546875
-0.095245361328125
0.1318359375
1.0
-0.615325927734375
1.0
-0.50103759765625
0.149444580078125
-0.883758544921875
-0.0252685546875
0.204010009765625
-0.254913330078125
0.50396728515625
-0.085357666015625
0.1138916015625
-0.245025634765625
0.46588134765625
-0.0516357421875
0.097076416015625
0.0615234375
-0.015380859375
-0.0032958984375
-0.062255859375
0.04541015625
-0.160797119140625
-0.185333251953125
0.281646728515625
0.0010986328125
-0.200347900390625
-1.0
0.20361328125
0.196685791015625
-0.2578125
0.641693115234375
0.186798095703125
-0.0333251953125
0.0494384765625
0.2373046875
-0.136627197265625
0.0552978515625
0.0120849609375
-0.0380859375
-0.1585693359375
-0.56439208984375
0.372833251953125
0.42962646484375
-0.311676025390625
-0.45452880859375
0.189361572265625
0.228179931640625
-0.280181884765625
0.023468017578125
-0.0439453125
-0.068511962890625
0.07763671875
0.22412109375
-0.143585205078125
-0.530303955078125
0.361846923828125
0.303985595703125
-0.188629150390625
-0.51824951171875
0.280914306640625
0.33770751953125
-0.213134765625
-0.202178955078125
0.093780517578125
0.14501953125
-0.105865478515625
0.146881103515625
-0.060821533203125
-0.224884033203125
0.149810791015625
0.301055908203125
-0.185302734375
-0.315338134765625
0.16845703125
0.837982177734375
-0.705780029296875
-0.298492431640625
0.120880126953125
0.012451171875
0.0018310546875
-0.225250244140625
0.1109619140625
-0.213531494140625
0.240264892578125
-0.037353515625
-0.015380859375
-0.664398193359375
0.40838623046875
0.349395751953125
-0.1593017578125
-0.468048095703125
0.2054443359375
0.50286865234375
-0.318634033203125
-0.131866455078125
0.050201416015625
-0.0325927734375
0.0355224609375
0.042510986328125
-0.037384033203125
0.0849609375
-0.0318603515625
0.421539306640625
-0.14794921875
-0.68634033203125
0.419708251953125
0.49774169921875
-0.297393798828125
-0.45562744140625
0.212432861328125
0.397735595703125
-0.275421142578125
-0.0018310546875
-0.0113525390625
-0.0721435546875
0.0245361328125
0.168487548828125
-0.186431884765625
-0.49041748046875
0.220489501953125
0.48602294921875
-0.348663330078125
-0.68267822265625
0.369903564453125
0.273590087890625
-0.148345947265625
0.0948486328125
0.0655517578125
0.1025390625
-0.0084228515625
0.018310546875
-0.05712890625
0.106201171875
0.0238037109375
-0.227447509765625
-0.0948486328125
-0.59185791015625
0.37469482421875
0.9281005859375
-0.319000244140625
-0.421539306640625
0.1904296875
-0.298492431640625
0.0684814453125
0.217559814453125
-0.0391845703125
-0.038482666015625
0.0501708984375
0.079833984375
-0.09814453125
-0.1322021484375
0.142120361328125
0.09521484375
-0.134429931640625
-0.1142578125
0.146484375
0.348663330078125
-0.259674072265625
-0.34466552734375
0.1043701171875
0.209136962890625
-0.0941162109375
0.035552978515625
-0.0670166015625
-0.299591064453125
0.215362548828125
0.299591064453125
-0.1600341796875
-0.419342041015625
0.260772705078125
0.324493408203125
-0.158233642578125
-0.271026611328125
0.1710205078125
0.840179443359375
-0.48382568359375
-0.0428466796875
0.053863525390625
-0.47650146484375
0.42962646484375
-0.0054931640625
0.041015625
0.288604736328125
-0.239166259765625
0.2581787109375
-0.184600830078125
-0.889984130859375
0.61822509765625
0.757049560546875
-0.56182861328125
-0.42193603515625
0.269561767578125
0.44281005859375
-0.212432861328125
0.0
-0.1614990234375
-0.872406005859375
0.054962158203125
0.282012939453125
-0.304351806640625
-0.237335205078125
0.348297119140625
0.182769775390625
-0.251983642578125
-0.175811767578125
0.389678955078125
0.146148681640625
-0.153106689453125
-0.0816650390625
0.234039306640625
0.1336669921875
-0.01025390625
0.0318603515625
-0.11279296875
-0.54827880859375
0.336212158203125
0.424468994140625
-0.30987548828125
1.0
-0.53326416015625
-0.58270263671875
-0.194091796875
-1.0
0.716400146484375
0.681243896484375
-0.41021728515625
0.0
-0.016845703125
-0.681243896484375
0.171783447265625
0.0
-0.173614501953125
0.0
0.171783447265625
0.0
-0.18603515625
0.0
0.2523193359375
0.0
-0.149078369140625
0.0
0.169219970703125
0.0
-0.0347900390625
0.0
-0.01171875
0.0
0.1435546875
0.0
-0.1314697265625
0.0
0.31170654296875
0.0
-0.205474853515625
0.0
0.0714111328125
0.0
-0.175079345703125
0.0
0.0926513671875
0.231842041015625
-0.1285400390625
0.0
-0.03955078125
-0.219390869140625
0.287139892578125
0.0
-0.1263427734375
-0.012451171875
0.285675048828125
0.842742919921875
-0.44500732421875
0.0
0.417877197265625
-0.385650634765625
0.168121337890625
0.0
0.017578125
-0.1226806640625
0.18017578125
0.0
-0.298858642578125
-0.260406494140625
-0.120849609375
0.212799072265625
-0.52886962890625
-0.062286376953125
0.328155517578125
-0.212066650390625
0.0238037109375
0.0029296875
-0.057861328125
-0.000732421875
-0.0552978515625
0.0091552734375
0.0560302734375
1.0
-0.261871337890625
1.0
-0.49847412109375
0.0
0.0
-1.0
0.249053955078125
-1.0
0.929931640625
0.10400390625
-0.226715087890625
0.024169921875
-0.0157470703125
0.52447509765625
-0.08056640625
-0.024169921875
-0.087554931640625
-0.726654052734375
0.46588134765625
0.0
-0.1922607421875
0.0
0.1636962890625
0.029296875
-0.065948486328125
0.0062255859375
0.129669189453125
0.055694580078125
0.080230712890625
-0.0062255859375
-0.010986328125
-0.084991455078125
0.0560302734375
0.0
-0.132598876953125
0.0
0.03369140625
0.188995361328125
-0.129638671875
0.015380859375
0.08349609375
1.0
-0.46221923828125
-0.0087890625
0.081329345703125
-1.0
0.63653564453125
-0.006591796875
0.1131591796875
-0.098175048828125
0.0205078125
0.0
0.0347900390625
0.0
0.51129150390625
0.0
0.44793701171875
0.0
0.145416259765625
0.165557861328125
-0.924072265625
0.172149658203125
-1.0
0.1314697265625
-0.427764892578125
0.02490234375
0.025665283203125
0.0208740234375
0.240631103515625
0.0758056640625
-0.065216064453125
0.206573486328125
-0.38787841796875
0.086090087890625
-0.279815673828125
-0.51824951171875
0.38751220703125
-0.119781494140625
0.663299560546875
0.186431884765625
1.0
0.159332275390625
0.835784912109375
-0.138427734375
-0.48382568359375
-0.335845947265625
-0.56695556640625
0.385284423828125
-0.59552001953125
-0.032989501953125
-0.825897216796875
-0.0904541015625
-0.41973876953125
-0.0296630859375
-0.106231689453125
-0.037017822265625
0.0
0.037384033203125
0.34649658203125
0.8973388671875
0.082061767578125
0.306549072265625
0.2442626953125
-1.0
0.61859130859375
0.354522705078125
0.0084228515625
-0.060455322265625
0.1256103515625
-0.250152587890625
0.129302978515625
0.228912353515625
0.110260009765625
-0.0732421875
0.0157470703125
0.096343994140625
-0.047637939453125
-0.103668212890625
0.237701416015625
0.357818603515625
0.087188720703125
-0.14208984375
-0.38604736328125
-0.116851806640625
-0.752288818359375
-0.101837158203125
-0.2208251953125
0.000732421875
0.0399169921875
0.35821533203125
0.63323974609375
0.249053955078125
1.0
-0.082427978515625
-0.038818359375
-0.297393798828125
-1.0
0.147979736328125
-0.45965576171875
0.139923095703125
0.45233154296875
0.336578369140625
-0.1439208984375
0.386383056640625
-0.0384521484375
-0.236968994140625
0.19189453125
-0.66253662109375
0.312774658203125
-0.0677490234375
0.257476806640625
-0.0347900390625
0.145751953125
-0.213531494140625
-0.359649658203125
0.0860595703125
-0.74749755859375
-0.0523681640625
-0.0303955078125
-0.0567626953125
0.51568603515625
-0.0120849609375
0.55633544921875
-0.082427978515625
0.445343017578125
-0.177276611328125
0.51751708984375
0.249786376953125
-1.0
1.0
-1.0
-0.225250244140625
0.126007080078125
-0.827728271484375
0.38714599609375
-0.0596923828125
0.1875
0.078399658203125
-0.199249267578125
0.0164794921875
0.085723876953125
0.0450439453125
0.335845947265625
0.062652587890625
0.1871337890625
-0.106964111328125
0.147979736328125
0.040283203125
0.042510986328125
0.120147705078125
0.010986328125
0.07177734375
-0.030792236328125
0.0040283203125
-0.06591796875
0.00439453125
-0.0355224609375
-0.017578125
-0.015045166015625
-0.044677734375
0.076568603515625
-0.017578125
-0.0040283203125
0.0157470703125
-0.0142822265625
0.01904296875
-0.044677734375
-0.0391845703125
0.043212890625
-0.015380859375
0.056427001953125
0.018310546875
-0.0498046875
0.052001953125
-0.033721923828125
0.010986328125
-0.0054931640625
-0.063720703125
0.141387939453125
-0.0347900390625
0.0670166015625
-0.015380859375
0.005126953125
-0.0018310546875
0.0355224609375
-0.102569580078125
0.379425048828125
-0.37799072265625
0.783782958984375
0.250518798828125
-0.882293701171875
0.55743408203125
-1.0
-0.1204833984375
0.56732177734375
-0.1556396484375
0.55853271484375
0.0787353515625
-0.386016845703125
0.1226806640625
-0.56658935546875
0.0655517578125
-0.128204345703125
-0.10400390625
0.310211181640625
-0.0615234375
0.196319580078125
0.015380859375
0.0523681640625
0.021240234375
0.171051025390625
-0.0087890625
0.0556640625
-0.0787353515625
-0.0303955078125
-0.015380859375
0.01318359375
-0.076171875
-0.136260986328125
0.06005859375
-0.08642578125
0.0498046875
0.156036376953125
0.002197265625
0.0399169921875
0.047607421875
-0.038848876953125
-0.002197265625
-0.031494140625
0.021240234375
-0.04248046875
0.0322265625
0.186065673828125
-0.079833984375
0.05419921875
-0.11279296875
0.0179443359375
-0.078399658203125
0.101470947265625
-0.125274658203125
0.0765380859375
0.017608642578125
-0.0238037109375
0.129302978515625
-0.1248779296875
0.1160888671875
-0.093414306640625
0.0611572265625
-0.165924072265625
0.00439453125
-0.0172119140625
0.025634765625
-0.0516357421875
0.041015625
-0.0208740234375
-0.0179443359375
0.07177734375
0.0194091796875
-0.02490234375
0.009521484375
0.0186767578125
-0.0091552734375
-0.034423828125
-0.01025390625
0.0743408203125
-0.06591796875
0.10107421875
-0.082763671875
0.121978759765625
-0.117584228515625
0.156036376953125
0.1109619140625
-0.1160888671875
0.082427978515625
-0.1102294921875
-0.1197509765625
0.0208740234375
-0.186431884765625
0.1351318359375
0.376861572265625
-0.36480712890625
0.61822509765625
-0.48345947265625
-0.230743408203125
0.254913330078125
-0.273223876953125
0.255645751953125
-0.1875
0.145050048828125
-0.189697265625
0.156768798828125
-0.33184814453125
0.297027587890625
-0.36920166015625
0.310211181640625
0.210968017578125
-0.282745361328125
0.0
0.48895263671875
0.0615234375
0.2025146484375
0.663299560546875
-1.0
0.892913818359375
-0.882293701171875
-0.0054931640625
0.0
-0.2567138671875
0.0
0.1201171875
0.0
-0.111724853515625
0.0
0.052734375
0.0
-0.097412109375
0.0
-0.00146484375
0.0
0.022705078125
0.0
0.043212890625
0.0
-0.0062255859375
0.0
-0.073974609375
0.0
0.08203125
0.0
-0.0406494140625
0.0
0.0362548828125
0.0
-0.0450439453125
0.0
0.073272705078125
0.0018310546875
0.095947265625
0.0
0.323394775390625
-0.0018310546875
0.689666748046875
0.0
0.267364501953125
0.0
0.0
0.0
-1.0
1.0
-1.0
1.0
-0.0029296875
0.0
0.0
0.0
0.0
0.0
0.0
0.0
0.0
-0.0003662109375
0.0
0.0
0.0
0.0003662109375
0.0
0.0
0.0
0.0
0.0
0.0
0.0
0.0
0.0
0.0
1.0
-1.0
0.188262939453125
-0.277984619140625
-0.140289306640625
0.061187744140625
-0.188262939453125
0.277984619140625
-1.0
1.0
0.0
0.0
0.009521484375
0.200714111328125
1.0
-1.0
0.9339599609375
-1.0
-1.0
1.0
-0.715667724609375
0.881927490234375
-0.177276611328125
0.142120361328125
1.0
-0.9141845703125
-0.01171875
0.286773681640625
0.10546875
-0.0146484375
0.005859375
0.0003662109375
-1.0
0.773895263671875
-0.005859375
0.0
-0.292999267578125
0.65997314453125
0.121612548828125
-0.48455810546875
0.0
0.065216064453125
-0.121612548828125
0.48455810546875
0.039947509765625
0.0
0.0
0.0
-0.039947509765625
0.0
0.0
0.0
0.0
0.0
0.0
-0.0172119140625
0.0
-0.000732421875
0.0
0.0172119140625
0.0
0.000732421875
0.0267333984375
0.0
0.35748291015625
-0.831024169921875
-0.0267333984375
-0.0084228515625
1.0
-0.668060302734375
0.867645263671875
-1.0
-1.0
1.0
0.34246826171875
-0.363311767578125
-0.016845703125
0.34063720703125
0.12890625
-0.097442626953125
-0.035919189453125
0.0
-1.0
1.0
0.0003662109375
0.0
-0.050567626953125
0.38055419921875
-0.0003662109375
-0.0205078125
0.0098876953125
0.0
1.0
-1.0
0.031158447265625
0.0
-0.214263916015625
0.199249267578125
-0.041046142578125
-0.034454345703125
-0.0333251953125
0.056396484375
0.9002685546875
-1.0
-1.0
1.0
0.517120361328125
-0.40325927734375
0.041046142578125
0.0333251953125
0.070709228515625
0.0
-0.041046142578125
0.0
-1.0
0.9779052734375
0.187530517578125
-0.320098876953125
0.862152099609375
-0.762176513671875
1.0
-1.0
-0.847137451171875
0.740203857421875
0.0
0.0
0.32525634765625
-0.276885986328125
0.0018310546875
0.009521484375
-0.616058349609375
0.806854248046875
-0.240631103515625
0.172149658203125
0.46075439453125
-0.647552490234375
-1.0
1.0
0.840545654296875
-0.826629638671875
0.0
0.169586181640625
0.175079345703125
-0.01171875
0.017578125
0.0
-0.153106689453125
0.132232666015625
0.129302978515625
-0.228912353515625
-1.0
1.0
0.868011474609375
-1.0
0.0
0.0
-1.0
1.0
0.0
0.0003662109375
-0.002197265625
0.0
0.0
0.0
0.0
0.0
0.0
0.0
0.0
0.0
0.012451171875
-0.269927978515625
0.0
0.0
0.145782470703125
-0.323760986328125
0.0
0.0
-0.158233642578125
0.425567626953125
0.0
0.0
0.0
0.168121337890625
0.0
0.0
0.0
0.0
0.0
-0.01904296875
0.0
0.0
0.240997314453125
-0.610198974609375
0.0
0.0
-0.194091796875
0.32342529296875
0.0087890625
-0.072906494140625
-0.046905517578125
0.305450439453125
0.765106201171875
-1.0
0.02783203125
0.0003662109375
0.48968505859375
-0.36370849609375
-0.02783203125
0.0
-0.43402099609375
0.34613037109375
0.0
0.0
-0.829559326171875
0.981903076171875
0.000732421875
-0.0318603515625
0.0
0.171051025390625
0.280548095703125
-0.609100341796875
0.035186767578125
0.0
1.0
-0.858123779296875
-0.029327392578125
0.0
-0.375030517578125
0.294464111328125
-0.005859375
0.0
0.162628173828125
-0.14501953125
1.0
-1.0
-0.98486328125
0.864715576171875
-0.250152587890625
0.061553955078125
-0.195587158203125
0.48492431640625
0.250152587890625
-0.061553955078125
0.015380859375
0.0
-0.0238037109375
0.0234375
0.068145751953125
-0.0172119140625
-1.0
1.0
1.0
-1.0
0.71966552734375
-0.64459228515625
0.0
0.0
-0.844207763671875
1.0
-0.0003662109375
0.0245361328125
0.061920166015625
-0.092315673828125
-0.157135009765625
0.082427978515625
1.0
-1.0
-0.345367431640625
0.225250244140625
0.214996337890625
-0.162261962890625
-0.58563232421875
0.514923095703125
0.0
0.0018310546875
-0.41131591796875
0.57391357421875
0.0
0.0029296875
0.725189208984375
-0.68707275390625
0.0
-0.0047607421875
0.763275146484375
-0.733978271484375
-0.58782958984375
0.35894775390625
0.0025634765625
0.0
-0.9119873046875
0.933929443359375
0.0087890625
0.0
0.0
0.205841064453125
0.0
0.0205078125
0.063018798828125
-0.036285400390625
-0.43511962890625
0.220489501953125
0.373931884765625
-0.529571533203125
-1.0
1.0
0.312774658203125
-0.183135986328125
0.749725341796875
-0.54351806640625
