-0.0977783203125
0.13916015625
-0.104736328125
0.1343994140625
-0.01318359375
0.014312744140625
0.032958984375
-0.035888671875
0.046142578125
-0.076934814453125
-0.0146484375
-0.0179443359375
0.0025634765625
-0.015380859375
0.043212890625
-0.02783203125
0.035888671875
-0.0223388671875
0.0120849609375
-0.002197265625
0.021240234375
-0.016845703125
0.03515625
-0.022705078125
0.012451171875
0.01904296875
0.027099609375
-0.0098876953125
0.0223388671875
-0.0252685546875
-0.01904296875
0.0146484375
-0.02197265625
0.01171875
0.0245361328125
-0.0322265625
0.0281982421875
-0.025634765625
0.0062255859375
-0.00146484375
0.0604248046875
-0.010986328125
0.0413818359375
-0.0128173828125
0.0201416015625
-0.01904296875
0.03662109375
-0.0384521484375
-0.041015625
0.0010986328125
-0.03369140625
0.04248046875
-0.0128173828125
0.01318359375
-0.0322265625
0.0135498046875
-0.0084228515625
0.0238037109375
-0.003662109375
0.0113525390625
-0.009521484375
0.0098876953125
-0.0098876953125
0.00439453125
-0.0040283203125
-0.0135498046875
0.005859375
0.0
0.025634765625
0.0098876953125
0.03955078125
0.0062255859375
0.0384521484375
0.0047607421875
0.0157470703125
-0.01318359375
0.0098876953125
0.0
-0.003662109375
0.030029296875
0.00146484375
-0.0029296875
0.0164794921875
-0.0238037109375
-0.016845703125
0.0223388671875
0.005859375
0.02490234375
0.0047607421875
0.022705078125
-0.0029296875
-0.000732421875
0.005859375
-0.0216064453125
0.0029296875
0.0106201171875
-0.0113525390625
-0.00146484375
-0.0172119140625
-0.0274658203125
0.016845703125
-0.0120849609375
0.041412353515625
-0.021240234375
0.017578125
-0.0172119140625
-0.027862548828125
0.0205078125
0.018341064453125
-0.02490234375
0.017578125
-0.0281982421875
0.0084228515625
-0.0010986328125
0.016510009765625
0.005126953125
-0.0084228515625
0.0076904296875
-0.003662109375
0.005126953125
-0.026397705078125
0.0347900390625
0.0135498046875
-0.0234375
0.026763916015625
-0.0509033203125
-0.037750244140625
0.0003662109375
-0.021636962890625
0.015380859375
-0.0054931640625
0.0303955078125
-0.0146484375
0.0179443359375
-0.037353515625
-0.002197265625
-0.0384521484375
0.0223388671875
-0.00146484375
0.0391845703125
-0.0025634765625
-0.0003662109375
0.009521484375
-0.0263671875
0.0113525390625
0.0047607421875
0.0091552734375
0.0252685546875
-0.0113525390625
0.03076171875
-0.053466796875
0.0457763671875
-0.0501708984375
0.0311279296875
-0.016845703125
-0.0003662109375
-0.0054931640625
0.0223388671875
-0.0113525390625
0.0333251953125
-0.02197265625
0.009521484375
-0.0201416015625
0.0032958984375
-0.0029296875
0.020538330078125
-0.00732421875
0.020538330078125
0.010986328125
-0.006591796875
0.0098876953125
-0.010284423828125
-0.017578125
0.0098876953125
-0.01025390625
0.026397705078125
-0.0025634765625
-0.0040283203125
-0.0054931640625
-0.0223388671875
-0.0303955078125
0.0098876953125
0.0076904296875
-0.0010986328125
0.0274658203125
-0.042144775390625
-0.0208740234375
-0.028228759765625
0.0
-0.002197265625
0.0150146484375
-0.010986328125
-0.0128173828125
0.0040283203125
-0.003662109375
-0.0054931640625
0.0179443359375
-0.0252685546875
-0.0010986328125
-0.0069580078125
0.0113525390625
-0.0091552734375
0.0377197265625
-0.01611328125
0.013916015625
-0.021240234375
-0.0263671875
-0.0113525390625
-0.005859375
-0.0047607421875
0.01025390625
0.0047607421875
-0.03515625
0.006591796875
-0.0150146484375
-0.008056640625
0.02197265625
-0.01318359375
0.027099609375
-0.0150146484375
0.0113525390625
0.000732421875
0.0098876953125
-0.022705078125
-0.0146484375
0.021240234375
-0.0421142578125
0.041015625
-0.0216064453125
-0.000732421875
-0.0084228515625
-0.0003662109375
0.0098876953125
-0.012451171875
-0.0362548828125
0.01611328125
-0.0260009765625
0.0164794921875
-0.008056640625
-0.003662109375
-0.0179443359375
0.000732421875
0.0128173828125
0.00439453125
0.01611328125
-0.0054931640625
0.017578125
-0.0157470703125
0.005126953125
-0.016845703125
0.01171875
-0.0194091796875
-0.017578125
0.0
-0.010986328125
0.005126953125
0.0479736328125
-0.017578125
0.028564453125
-0.0142822265625
-0.0146484375
0.0303955078125
-0.022705078125
0.025634765625
0.0029296875
-0.0047607421875
0.0208740234375
-0.0245361328125
0.041748046875
-0.0164794921875
0.0318603515625
-0.0010986328125
0.002197265625
-0.0260009765625
0.0040283203125
-0.0208740234375
0.0135498046875
-0.032958984375
-0.0069580078125
-0.0263671875
-0.0333251953125
0.0069580078125
0.009521484375
-0.010986328125
0.018310546875
-0.0223388671875
0.005859375
-0.0025634765625
0.003662109375
0.022705078125
-0.0150146484375
0.00732421875
0.0
-0.00146484375
-0.0098876953125
0.010986328125
0.008056640625
0.0003662109375
0.0069580078125
0.0120849609375
-0.0230712890625
0.0135498046875
-0.0194091796875
0.015380859375
0.0003662109375
0.017578125
-0.002197265625
0.02197265625
-0.0157470703125
0.021240234375
-0.0135498046875
-0.00146484375
0.0054931640625
0.015380859375
0.035888671875
-0.01904296875
0.01171875
-0.037353515625
0.0120849609375
-0.01318359375
0.0146484375
-0.000732421875
-0.0040283203125
0.006591796875
0.00732421875
-0.021240234375
-0.0025634765625
0.002197265625
-0.00732421875
0.01904296875
0.00439453125
0.016845703125
0.02197265625
0.005126953125
0.0194091796875
0.005126953125
0.0322265625
-0.0205078125
0.018310546875
-0.0230712890625
-0.0205078125
0.00146484375
0.0146484375
-0.022705078125
0.0018310546875
-0.0120849609375
-0.0150146484375
0.012451171875
-0.0069580078125
0.0216064453125
0.0062255859375
-0.0018310546875
0.0238037109375
-0.0029296875
-0.0128173828125
-0.00146484375
-0.0252685546875
0.04248046875
-0.0157470703125
0.02783203125
0.012451171875
-0.0355224609375
0.0230712890625
-0.0018310546875
0.0047607421875
0.0142822265625
0.000732421875
0.01171875
-0.0142822265625
0.0179443359375
-0.0234375
0.024169921875
-0.0087890625
0.0098876953125
0.0025634765625
0.0084228515625
0.0098876953125
0.015380859375
0.0032958984375
0.0076904296875
-0.0186767578125
-0.0029296875
-0.0150146484375
0.0
-0.01611328125
0.013916015625
-0.00146484375
-0.005859375
0.000732421875
-0.01171875
0.0010986328125
0.0
0.0234375
0.00439453125
-0.000732421875
-0.0003662109375
0.0029296875
-0.0054931640625
-0.0223388671875
0.002197265625
-0.0135498046875
0.008056640625
-0.0120849609375
0.0084228515625
-0.03076171875
-0.01171875
0.02490234375
-0.0194091796875
0.0084228515625
-0.0029296875
-0.0040283203125
-0.0084228515625
-0.0252685546875
-0.002197265625
-0.0267333984375
-0.0003662109375
0.017578125
-0.013916015625
0.012451171875
-0.0172119140625
-0.0040283203125
-0.018310546875
-0.01171875
-0.01025390625
-0.0087890625
-0.0040283203125
-0.015380859375
0.0025634765625
-0.0087890625
0.00732421875
0.00146484375
-0.0029296875
0.005859375
-0.01904296875
0.00146484375
0.0128173828125
-0.01611328125
0.0234375
-0.018310546875
0.009521484375
-0.017578125
0.012451171875
-0.0194091796875
-0.00732421875
0.018310546875
0.01611328125
0.0208740234375
-0.0040283203125
-0.0238037109375
-0.016845703125
-0.016845703125
0.01171875
0.0010986328125
0.0029296875
-0.00146484375
0.0040283203125
-0.013916015625
0.0029296875
-0.0260009765625
0.0076904296875
0.0216064453125
-0.0194091796875
0.0494384765625
-0.019775390625
-0.0076904296875
0.0157470703125
-0.028564453125
0.0164794921875
-0.0106201171875
0.0186767578125
-0.0205078125
0.0377197265625
-0.0267333984375
0.0157470703125
0.0113525390625
-0.0234375
0.0091552734375
-0.0230712890625
0.0234375
-0.0025634765625
0.03076171875
0.01611328125
-0.00732421875
0.0150146484375
-0.006591796875
0.0098876953125
-0.017578125
0.017578125
0.0413818359375
0.013916015625
0.0589599609375
-0.019775390625
0.03662109375
-0.035888671875
0.0135498046875
-0.005859375
-0.0087890625
-0.0003662109375
0.0194091796875
-0.02197265625
0.0084228515625
-0.0318603515625
0.021240234375
-0.017578125
0.01025390625
0.00146484375
-0.0120849609375
0.0076904296875
-0.0146484375
-0.000732421875
-0.0216064453125
-0.0113525390625
-0.0362548828125
0.009521484375
-0.0281982421875
0.0087890625
0.00439453125
-0.0025634765625
-0.0062255859375
0.003662109375
0.00439453125
-0.003662109375
0.0120849609375
0.0032958984375
0.0263671875
-0.016845703125
0.0333251953125
-0.0406494140625
0.017578125
-0.0362548828125
-0.0128173828125
-0.0003662109375
-0.022705078125
0.052734375
-0.02197265625
0.0062255859375
-0.032958984375
-0.028564453125
0.0216064453125
-0.022705078125
0.010986328125
-0.01904296875
-0.017578125
-0.0087890625
-0.0223388671875
-0.0003662109375
-0.0157470703125
0.0029296875
0.0113525390625
0.0084228515625
-0.0029296875
0.0172119140625
0.009521484375
0.0025634765625
0.0157470703125
-0.01318359375
0.0179443359375
-0.0260009765625
0.0040283203125
-0.0128173828125
-0.017578125
-0.0010986328125
-0.1256103515625
0.0216064453125
-0.164825439453125
0.021240234375
-0.028594970703125
0.0128173828125
0.0157470703125
0.006591796875
0.015380859375
-0.0098876953125
-0.013916015625
0.0098876953125
-0.03076171875
0.0047607421875
0.042144775390625
0.0098876953125
0.02783203125
0.000732421875
-0.027862548828125
0.0098876953125
-0.0230712890625
0.0296630859375
-0.0047607421875
0.000732421875
-0.0040283203125
0.0018310546875
-0.009521484375
0.010986328125
-0.005126953125
0.01025390625
-0.0025634765625
0.0289306640625
0.0333251953125
0.03955078125
0.012451171875
0.037353515625
0.020904541015625
0.0205078125
0.023101806640625
0.0113525390625
0.00732421875
0.0179443359375
0.0040283203125
0.016143798828125
-0.0084228515625
0.0054931640625
-0.0018310546875
-0.001861572265625
-0.0040283203125
0.017974853515625
0.0260009765625
-0.0018310546875
0.0369873046875
-0.037017822265625
0.0325927734375
-0.035888671875
-0.013916015625
-0.0062255859375
0.013916015625
0.018310546875
0.0106201171875
0.0091552734375
-0.0281982421875
-0.0120849609375
0.018310546875
-0.021240234375
0.0150146484375
-0.030029296875
0.0263671875
-0.0201416015625
0.0172119140625
-0.0018310546875
0.005859375
-0.0054931640625
0.0091552734375
-0.0135498046875
0.0230712890625
-0.01904296875
0.0113525390625
-0.0146484375
-0.0216064453125
-0.0054931640625
-0.00146484375
0.006591796875
-0.03369140625
0.01904296875
-0.050537109375
0.021240234375
-0.02197265625
0.0263671875
-0.0128173828125
0.0245361328125
-0.0260009765625
0.0318603515625
-0.041046142578125
0.0333251953125
-0.0003662109375
-0.00146484375
0.008819580078125
-0.005126953125
-0.008819580078125
0.0047607421875
0.0234375
0.030426025390625
0.039947509765625
0.0054931640625
-0.00732421875
-0.0164794921875
-0.0120849609375
-0.0003662109375
-0.01025390625
0.0098876953125
-0.01904296875
0.016510009765625
-0.00439453125
-0.012481689453125
0.017578125
-0.032989501953125
0.054931640625
-0.0380859375
0.0267333984375
-0.018310546875
0.0216064453125
-0.02197265625
0.0325927734375
-0.030029296875
0.0146484375
-0.040283203125
-0.0120849609375
-0.0172119140625
-0.0069580078125
-0.006591796875
0.008056640625
-0.0157470703125
-0.0076904296875
-0.0054931640625
0.01171875
-0.0029296875
0.008056640625
0.012451171875
0.010986328125
0.005859375
0.002197265625
-0.003662109375
-0.0296630859375
0.000732421875
-0.0018310546875
0.0281982421875
-0.0069580078125
0.012451171875
0.003662109375
-0.0205078125
0.00146484375
-0.0087890625
-0.021240234375
-0.002197265625
-0.0135498046875
0.006591796875
-0.0146484375
0.0062255859375
-0.0142822265625
0.0069580078125
-0.0069580078125
0.0069580078125
-0.0062255859375
0.0194091796875
-0.038818359375
0.03515625
-0.0084228515625
0.0040283203125
0.0135498046875
-0.013916015625
-0.057525634765625
-0.005126953125
-0.091583251953125
0.0164794921875
-0.046142578125
0.016845703125
-0.006591796875
-0.002197265625
0.0084228515625
0.0010986328125
0.021240234375
-0.0062255859375
0.0164794921875
-0.01318359375
0.028564453125
-0.01904296875
-0.006591796875
0.008056640625
-0.002197265625
0.0325927734375
0.02490234375
-0.0128173828125
-0.002197265625
-0.0274658203125
-0.0128173828125
0.0216064453125
-0.04541015625
0.046142578125
-0.0128173828125
0.009521484375
0.00732421875
-0.0120849609375
0.015380859375
-0.015380859375
0.0303955078125
-0.0047607421875
0.028564453125
0.00146484375
0.0179443359375
-0.0135498046875
-0.0128173828125
0.00732421875
-0.00146484375
0.0179443359375
-0.0062255859375
0.01171875
0.005859375
0.0
0.0223388671875
-0.0128173828125
0.008056640625
-0.013916015625
0.015045166015625
-0.0032958984375
0.005889892578125
0.005859375
0.0106201171875
-0.0032958984375
0.002197265625
-0.0069580078125
-0.033355712890625
0.009521484375
0.016845703125
0.021240234375
0.043975830078125
-0.0238037109375
-0.0003662109375
-0.0303955078125
-0.005859375
0.000732421875
-0.00146484375
0.0003662109375
-0.006591796875
-0.0010986328125
-0.0128173828125
-0.002197265625
-0.0054931640625
-0.006591796875
0.0223388671875
-0.0120849609375
0.0172119140625
-0.008056640625
0.00732421875
-0.0113525390625
0.0029296875
-0.0003662109375
-0.009521484375
0.0032958984375
0.002197265625
0.002197265625
-0.005126953125
0.0018310546875
-0.00146484375
-0.005126953125
0.006591796875
-0.00732421875
0.0303955078125
-0.0040283203125
0.0230712890625
0.010986328125
-0.0142822265625
0.0087890625
-0.0164794921875
0.0164794921875
-0.0205078125
0.01904296875
0.0325927734375
0.021240234375
0.0087890625
-0.00439453125
-0.0025634765625
-0.030029296875
0.0289306640625
-0.0135498046875
0.00146484375
-0.016845703125
-0.0025634765625
-0.01171875
-0.018310546875
0.0069580078125
-0.000732421875
0.0047607421875
0.01904296875
-0.01904296875
0.03955078125
-0.0369873046875
0.0399169921875
-0.0289306640625
0.0194091796875
-0.010986328125
-0.00732421875
0.0069580078125
-0.0150146484375
0.0018310546875
0.00439453125
-0.0084228515625
0.0087890625
-0.0113525390625
-0.0003662109375
-0.002197265625
-0.0179443359375
0.0216064453125
0.0084228515625
0.0098876953125
0.0318603515625
-0.022705078125
0.0289306640625
-0.0333251953125
0.00439453125
-0.0135498046875
-0.012451171875
0.037353515625
-0.008056640625
0.0238037109375
0.0084228515625
-0.037353515625
0.0443115234375
-0.0311279296875
0.0234375
-0.00439453125
-0.0084228515625
0.0135498046875
0.0010986328125
0.0164794921875
0.008056640625
-0.0003662109375
0.050537109375
-0.0238037109375
0.07763671875
-0.0380859375
0.0413818359375
-0.02197265625
-0.01318359375
0.00732421875
-0.008056640625
0.0047607421875
-0.0040283203125
-0.00732421875
-0.0040283203125
-0.0172119140625
-0.0120849609375
0.00732421875
-0.0413818359375
0.0186767578125
-0.02490234375
0.0150146484375
-0.031494140625
0.0194091796875
-0.012451171875
0.006591796875
0.00146484375
0.002197265625
-0.015380859375
-0.0135498046875
-0.0347900390625
0.03955078125
-0.01611328125
0.02490234375
0.0146484375
-0.0362548828125
0.0087890625
-0.018310546875
0.0018310546875
0.0029296875
-0.0087890625
0.0128173828125
-0.0047607421875
0.000732421875
-0.006591796875
0.0091552734375
0.00439453125
0.0150146484375
0.00732421875
0.01025390625
-0.0106201171875
0.005859375
-0.0047607421875
0.0054931640625
0.000732421875
-0.0018310546875
0.0120849609375
-0.0076904296875
0.003662109375
0.005859375
-0.00439453125
0.0135498046875
0.006591796875
0.000732421875
0.008056640625
-0.015380859375
0.0054931640625
-0.0032958984375
-0.002197265625
0.0054931640625
0.0025634765625
0.006591796875
-0.0135498046875
0.01025390625
-0.031494140625
0.0120849609375
0.03662109375
-0.0010986328125
0.053466796875
-0.030029296875
-0.0069580078125
-0.0238037109375
-0.0179443359375
-0.0032958984375
-0.002197265625
0.005126953125
0.002197265625
0.0032958984375
-0.013916015625
0.000732421875
-0.0267333984375
0.0003662109375
0.0084228515625
-0.01171875
0.0281982421875
-0.0062255859375
0.0106201171875
0.0
0.01025390625
0.002197265625
-0.009521484375
0.0087890625
-0.0113525390625
0.0062255859375
-0.0084228515625
0.0076904296875
0.008056640625
-0.0003662109375
0.0106201171875
-0.000732421875
-0.0069580078125
0.0142822265625
-0.0025634765625
0.012451171875
0.0032958984375
-0.0040283203125
0.0069580078125
0.006591796875
-0.03662109375
0.0128173828125
0.0223388671875
0.0164794921875
0.0472412109375
-0.0047607421875
-0.0128173828125
-0.016845703125
0.0018310546875
-0.000732421875
0.016845703125
-0.0194091796875
0.0091552734375
-0.015380859375
-0.0245361328125
0.0018310546875
-0.01318359375
-0.0146484375
-0.006591796875
-0.030029296875
0.0010986328125
-0.00439453125
0.012451171875
0.003662109375
0.01611328125
-0.0208740234375
0.0087890625
-0.0091552734375
-0.015380859375
0.0047607421875
-0.0267333984375
0.0098876953125
-0.000732421875
-0.0076904296875
0.0560302734375
-0.0399169921875
0.03515625
-0.018310546875
-0.0084228515625
0.0084228515625
-0.03515625
0.018310546875
-0.038818359375
0.0263671875
-0.0263671875
0.0172119140625
-0.0003662109375
0.034423828125
0.027099609375
0.0040283203125
0.0201416015625
-0.0487060546875
0.034423828125
-0.0333251953125
0.02783203125
-0.0238037109375
0.008056640625
-0.0150146484375
-0.00439453125
-0.002197265625
0.013916015625
-0.013916015625
0.0509033203125
-0.0106201171875
0.029296875
0.0003662109375
0.0179443359375
-0.0076904296875
0.0106201171875
-0.00146484375
0.000732421875
0.0113525390625
-0.0084228515625
0.0179443359375
-0.009521484375
0.0018310546875
-0.008056640625
-0.002197265625
-0.0303955078125
0.01318359375
-0.01171875
0.0281982421875
0.0084228515625
0.0084228515625
0.024169921875
-0.0252685546875
0.0150146484375
-0.0135498046875
-0.01025390625
-0.0113525390625
0.0128173828125
0.0252685546875
-0.0054931640625
0.015380859375
-0.0216064453125
-0.0201416015625
-0.0164794921875
0.0091552734375
-0.002197265625
0.0
0.0084228515625
-0.005859375
0.0054931640625
0.002197265625
-0.02783203125
0.0263671875
-0.012451171875
0.0135498046875
0.0238037109375
-0.00439453125
-0.0142822265625
0.0205078125
-0.0047607421875
0.01611328125
-0.0018310546875
0.0054931640625
0.0091552734375
-0.0084228515625
-0.03369140625
0.031494140625
-0.0736083984375
0.060791015625
-0.02490234375
0.0186767578125
-0.0098876953125
0.0106201171875
-0.00146484375
0.00439453125
-0.0003662109375
-0.0054931640625
0.0106201171875
-0.0120849609375
-0.0084228515625
-0.0128173828125
0.0318603515625
-0.0087890625
0.0322265625
-0.01025390625
-0.0062255859375
-0.01904296875
0.015380859375
-0.0146484375
-0.0091552734375
0.005859375
-0.0150146484375
0.0106201171875
-0.016845703125
0.008056640625
-0.0091552734375
0.0091552734375
-0.00146484375
0.00146484375
0.0157470703125
-0.0146484375
0.00439453125
-0.00146484375
-0.018310546875
0.005859375
0.0040283203125
-0.005126953125
0.013916015625
-0.0047607421875
0.015380859375
-0.0032958984375
-0.0040283203125
0.0
-0.010986328125
0.000732421875
-0.006591796875
0.0150146484375
-0.0025634765625
0.0106201171875
0.0018310546875
-0.0032958984375
-0.0098876953125
-0.0018310546875
-0.025634765625
0.0084228515625
0.0029296875
0.035888671875
0.015380859375
0.005126953125
-0.0311279296875
-0.005126953125
-0.0010986328125
0.0029296875
0.0135498046875
-0.0091552734375
-0.009521484375
-0.012451171875
-0.0179443359375
-0.0142822265625
-0.017578125
-0.017578125
0.0186767578125
-0.0289306640625
0.0234375
-0.029296875
0.0040283203125
-0.015380859375
-0.01611328125
0.01025390625
-0.0164794921875
0.006591796875
0.0
-0.000732421875
0.005859375
-0.0135498046875
0.0106201171875
-0.025634765625
-0.0091552734375
-0.0029296875
-0.0076904296875
0.017578125
-0.009521484375
0.0208740234375
0.006591796875
-0.0091552734375
0.013916015625
-0.030029296875
-0.0355224609375
0.025634765625
-0.0205078125
0.052734375
0.0018310546875
-0.0025634765625
0.01025390625
-0.0234375
0.0274658203125
-0.0172119140625
0.0322265625
-0.0230712890625
0.01025390625
-0.0146484375
-0.0010986328125
-0.01611328125
-0.0025634765625
-0.0003662109375
0.0062255859375
0.0029296875
0.03515625
-0.0146484375
0.006591796875
-0.0029296875
0.005126953125
-0.0010986328125
0.0087890625
-0.0010986328125
-0.00732421875
0.0069580078125
-0.0091552734375
-0.000732421875
-0.0128173828125
-0.0186767578125
-0.015380859375
-0.002197265625
-0.0098876953125
0.01171875
0.0025634765625
0.0150146484375
-0.013916015625
0.02490234375
0.0018310546875
-0.002197265625
0.0106201171875
0.018310546875
-0.002197265625
0.005859375
-0.0135498046875
-0.0120849609375
-0.037353515625
0.02490234375
-0.0205078125
0.022705078125
-0.0186767578125
0.0164794921875
-0.0018310546875
0.00439453125
0.0010986328125
0.0040283203125
-0.0084228515625
0.012451171875
0.009521484375
0.0113525390625
0.008056640625
0.006591796875
0.0054931640625
0.0047607421875
-0.0238037109375
0.00146484375
-0.017578125
0.0091552734375
-0.0032958984375
0.0201416015625
-0.0076904296875
0.009521484375
-0.0135498046875
0.01025390625
0.0029296875
0.010986328125
0.010986328125
0.0003662109375
-0.0062255859375
-0.009521484375
0.0106201171875
-0.0113525390625
-0.0146484375
-0.006591796875
0.030029296875
0.00146484375
0.0223388671875
0.0084228515625
-0.0106201171875
-0.0018310546875
0.0128173828125
-0.0029296875
-0.0040283203125
-0.0029296875
0.0010986328125
-0.006591796875
-0.01171875
-0.003662109375
-0.000732421875
-0.0018310546875
0.0234375
-0.01025390625
0.0439453125
-0.025634765625
0.02783203125
-0.0208740234375
0.002197265625
-0.0040283203125
-0.0150146484375
0.0098876953125
-0.0205078125
0.01171875
-0.0186767578125
0.0091552734375
-0.01904296875
0.006591796875
0.000732421875
0.0040283203125
-0.0106201171875
0.0146484375
0.0040283203125
0.005859375
0.0076904296875
-0.0054931640625
-0.013916015625
-0.00146484375
-0.0413818359375
0.0186767578125
-0.019775390625
0.0413818359375
0.0281982421875
-0.0032958984375
0.0157470703125
-0.030029296875
0.0179443359375
-0.0084228515625
-0.00146484375
0.0029296875
-0.021240234375
0.0113525390625
-0.02490234375
0.0135498046875
-0.002197265625
0.005859375
0.0267333984375
-0.0003662109375
0.0120849609375
0.0
0.0216064453125
-0.006591796875
0.0179443359375
-0.019775390625
0.01171875
-0.0223388671875
0.0113525390625
-0.0113525390625
0.00439453125
-0.013916015625
0.0029296875
-0.0238037109375
-0.00439453125
-0.0223388671875
0.01904296875
-0.0146484375
0.025634765625
-0.01318359375
0.0172119140625
-0.01171875
-0.008056640625
-0.012451171875
-0.02490234375
0.02783203125
-0.0025634765625
0.012451171875
-0.000732421875
-0.01904296875
-0.00439453125
-0.0003662109375
-0.010986328125
-0.000732421875
-0.00146484375
0.0098876953125
0.005126953125
0.01171875
-0.0106201171875
0.010986328125
-0.0186767578125
0.0179443359375
0.0120849609375
0.005859375
0.019775390625
-0.005859375
0.0010986328125
-0.005859375
0.0146484375
-0.0076904296875
-0.0025634765625
0.0054931640625
0.00146484375
0.01025390625
0.00439453125
0.0003662109375
0.0047607421875
-0.0230712890625
0.0062255859375
-0.0091552734375
-0.003662109375
0.005126953125
0.000732421875
0.00146484375
-0.0018310546875
-0.002197265625
-0.0120849609375
0.0032958984375
0.0084228515625
0.0362548828125
0.0194091796875
-0.0113525390625
-0.0201416015625
-0.031494140625
-0.0216064453125
0.0098876953125
-0.0040283203125
0.0047607421875
-0.0025634765625
-0.0047607421875
-0.003662109375
-0.009521484375
-0.00732421875
-0.0098876953125
0.0289306640625
-0.0098876953125
0.0340576171875
0.0010986328125
0.0054931640625
0.010986328125
0.0054931640625
-0.00146484375
-0.0062255859375
0.002197265625
-0.019775390625
0.021240234375
-0.0322265625
0.027099609375
-0.01904296875
0.0164794921875
-0.00146484375
-0.003662109375
0.016845703125
-0.008056640625
-0.003662109375
0.0069580078125
-0.0186767578125
0.00146484375
-0.003662109375
-0.006591796875
-0.0369873046875
0.0208740234375
-0.0062255859375
0.0303955078125
-0.032958984375
0.0
-0.09814453125
-0.0146484375
-0.052734375
0.000732421875
-0.002197265625
0.0029296875
-0.010986328125
0.009521484375
-0.0303955078125
0.017578125
-0.010986328125
-0.002197265625
0.0135498046875
-0.015380859375
0.0380859375
-0.01171875
0.010986328125
0.00732421875
0.0018310546875
0.0128173828125
0.0040283203125
0.0025634765625
-0.0128173828125
-0.0018310546875
-0.0062255859375
-0.0032958984375
-0.0003662109375
-0.0076904296875
0.016845703125
-0.0018310546875
0.0186767578125
-0.0003662109375
0.019775390625
-0.000732421875
0.0047607421875
0.0113525390625
0.006591796875
-0.01611328125
0.00146484375
0.0179443359375
-0.002197265625
0.0399169921875
0.0069580078125
0.008056640625
-0.0120849609375
0.0084228515625
-0.0047607421875
0.0069580078125
-0.0179443359375
0.0179443359375
-0.0076904296875
0.010986328125
0.01025390625
-0.0087890625
0.0135498046875
-0.019775390625
0.0201416015625
-0.009521484375
-0.003662109375
0.0087890625
-0.0003662109375
0.0098876953125
0.0040283203125
0.01171875
0.0128173828125
0.006591796875
0.010986328125
-0.009521484375
0.0146484375
-0.0201416015625
0.0208740234375
-0.0234375
0.01171875
-0.0106201171875
0.0274658203125
-0.013916015625
0.0150146484375
-0.018310546875
-0.0025634765625
-0.00146484375
-0.00732421875
-0.0135498046875
0.0223388671875
0.009521484375
0.008056640625
0.005859375
-0.0047607421875
-0.0260009765625
-0.000732421875
-0.00732421875
-0.027099609375
-0.0010986328125
-0.0135498046875
0.0029296875
-0.01171875
0.0040283203125
-0.0010986328125
-0.005859375
0.03955078125
-0.02197265625
0.053466796875
-0.018310546875
0.018310546875
-0.0069580078125
0.00732421875
-0.01318359375
0.0164794921875
-0.0120849609375
-0.000732421875
0.005859375
-0.0040283203125
0.00732421875
-0.006591796875
-0.0084228515625
0.0054931640625
-0.016845703125
0.006591796875
-0.0084228515625
0.002197265625
-0.006591796875
0.0032958984375
-0.017578125
-0.0032958984375
-0.0201416015625
-0.0391845703125
0.0150146484375
-0.0281982421875
0.0421142578125
0.01318359375
-0.0091552734375
-0.00146484375
-0.0263671875
0.02490234375
-0.010986328125
0.0216064453125
-0.013916015625
-0.0128173828125
0.0054931640625
-0.024169921875
0.015380859375
-0.0179443359375
0.005126953125
0.013916015625
-0.000732421875
0.022705078125
-0.0062255859375
0.015380859375
-0.010986328125
-0.000732421875
0.00732421875
-0.00146484375
0.01318359375
-0.005859375
0.0069580078125
-0.0098876953125
-0.0040283203125
-0.0087890625
0.003662109375
-0.0274658203125
0.021240234375
0.01171875
0.0113525390625
0.029296875
0.002197265625
0.0234375
-0.0032958984375
0.0091552734375
-0.005859375
-0.0498046875
0.0252685546875
-0.00439453125
0.0362548828125
0.03076171875
-0.025634765625
0.00439453125
-0.03076171875
0.0047607421875
0.000732421875
-0.0010986328125
0.0069580078125
-0.028564453125
0.01611328125
-0.038818359375
0.012451171875
-0.0245361328125
0.0062255859375
-0.00439453125
-0.0069580078125
0.0201416015625
-0.012451171875
0.0010986328125
-0.003662109375
-0.0047607421875
0.0040283203125
0.0040283203125
-0.0054931640625
0.019775390625
-0.0135498046875
0.0164794921875
-0.012451171875
-0.0029296875
-0.002197265625
-0.005126953125
0.0054931640625
-0.00146484375
0.0113525390625
0.01171875
0.0142822265625
0.005859375
0.0029296875
0.01318359375
-0.0025634765625
-0.0263671875
0.0186767578125
-0.000732421875
0.034423828125
0.034423828125
-0.002197265625
-0.009521484375
-0.01318359375
-0.012451171875
0.003662109375
-0.0146484375
0.00439453125
0.003662109375
0.0087890625
-0.0098876953125
0.0076904296875
-0.0010986328125
-0.0047607421875
0.0318603515625
-0.0201416015625
0.0135498046875
-0.0032958984375
-0.0084228515625
0.0146484375
0.002197265625
-0.0010986328125
0.0087890625
-0.00439453125
-0.003662109375
0.0029296875
0.0069580078125
0.0087890625
0.0146484375
-0.000732421875
0.00439453125
0.0029296875
0.01025390625
0.00439453125
0.037353515625
-0.031494140625
0.0230712890625
-0.030029296875
-0.009521484375
-0.019775390625
-0.0216064453125
0.003662109375
-0.0003662109375
0.0164794921875
0.008056640625
-0.01904296875
0.0076904296875
-0.03515625
0.030029296875
-0.028564453125
0.012451171875
-0.0164794921875
-0.02197265625
0.005126953125
-0.0289306640625
0.0216064453125
-0.02783203125
0.010986328125
-0.0047607421875
0.0047607421875
0.017578125
0.0003662109375
0.0135498046875
-0.006591796875
-0.005126953125
0.01171875
-0.0047607421875
0.00732421875
0.0142822265625
-0.01611328125
-0.000732421875
-0.016845703125
-0.0003662109375
-0.0142822265625
0.00732421875
-0.0146484375
0.017578125
-0.00732421875
0.0029296875
-0.003662109375
0.0062255859375
-0.015380859375
-0.0003662109375
-0.0128173828125
-0.0531005859375
0.034423828125
-0.0172119140625
0.0443115234375
0.0047607421875
-0.00732421875
-0.00146484375
-0.012451171875
0.0069580078125
-0.0032958984375
0.0003662109375
-0.0087890625
-0.0106201171875
0.005859375
-0.0128173828125
0.00439453125
-0.00146484375
0.005859375
-0.003662109375
0.01025390625
-0.00439453125
0.01318359375
-0.0186767578125
0.02197265625
-0.00146484375
0.0164794921875
0.0032958984375
0.0087890625
-0.009521484375
0.0062255859375
-0.008056640625
0.01318359375
-0.008056640625
0.0076904296875
-0.0054931640625
0.0
-0.0186767578125
0.018310546875
-0.0150146484375
0.0245361328125
-0.01904296875
0.0157470703125
-0.01025390625
0.00732421875
-0.0303955078125
0.0157470703125
0.006591796875
0.0252685546875
0.030029296875
-0.012451171875
-0.021240234375
-0.0135498046875
-0.0040283203125
0.0098876953125
-0.0018310546875
0.005859375
0.003662109375
0.002197265625
0.00732421875
-0.005126953125
0.006591796875
-0.0040283203125
0.0084228515625
0.00146484375
0.0150146484375
-0.0047607421875
0.016845703125
-0.0069580078125
-0.0091552734375
0.0047607421875
-0.01025390625
0.0032958984375
-0.0091552734375
-0.002197265625
0.0029296875
-0.0076904296875
0.0135498046875
-0.019775390625
0.01171875
-0.028564453125
0.005859375
-0.005859375
-0.0084228515625
0.0098876953125
0.0135498046875
-0.0157470703125
0.01611328125
-0.01904296875
-0.0091552734375
-0.0040283203125
0.021240234375
0.01611328125
0.021240234375
0.006591796875
-0.0303955078125
-0.0106201171875
-0.02783203125
-0.0010986328125
-0.013916015625
0.005859375
-0.0274658203125
0.0142822265625
-0.0234375
0.013916015625
-0.0113525390625
0.0047607421875
0.0186767578125
-0.00146484375
0.0263671875
-0.0010986328125
0.0098876953125
0.0003662109375
0.00732421875
0.006591796875
-0.01171875
0.006591796875
-0.017578125
0.009521484375
-0.015380859375
0.0018310546875
0.021240234375
-0.0142822265625
0.0142822265625
-0.005126953125
-0.005859375
0.019775390625
0.017578125
0.0087890625
0.0150146484375
-0.0106201171875
-0.0029296875
0.006591796875
-0.0311279296875
0.0120849609375
0.0216064453125
0.013916015625
0.021240234375
0.0062255859375
-0.0069580078125
-0.0135498046875
0.0311279296875
-0.01904296875
0.0439453125
-0.03369140625
0.0274658203125
-0.040283203125
-0.009521484375
-0.0216064453125
-0.0087890625
-0.0087890625
0.0208740234375
-0.0223388671875
0.041748046875
-0.0230712890625
0.0106201171875
-0.0106201171875
-0.0047607421875
-0.0047607421875
-0.016845703125
0.0106201171875
-0.0164794921875
0.00146484375
0.0003662109375
0.0003662109375
-0.0029296875
-0.0032958984375
0.00146484375
-0.012451171875
-0.0098876953125
0.009521484375
0.00732421875
0.0146484375
0.003662109375
0.01171875
-0.017578125
0.01171875
-0.0164794921875
-0.0010986328125
-0.0146484375
0.0234375
0.0010986328125
-0.008056640625
-0.00732421875
-0.030029296875
-0.0076904296875
0.008056640625
-0.0223388671875
0.0025634765625
-0.028564453125
0.0084228515625
-0.0281982421875
0.0223388671875
-0.0281982421875
0.0098876953125
0.005859375
-0.0164794921875
0.013916015625
-0.0087890625
0.0252685546875
-0.0054931640625
0.0087890625
-0.017578125
-0.010986328125
-0.000732421875
-0.0029296875
0.00732421875
0.00146484375
-0.0091552734375
-0.000732421875
-0.01025390625
-0.0062255859375
-0.009521484375
-0.0047607421875
0.01611328125
-0.0113525390625
0.0252685546875
0.003662109375
0.0029296875
0.0054931640625
-0.00732421875
0.0040283203125
-0.01611328125
-0.015380859375
0.034423828125
-0.002197265625
0.025634765625
0.0157470703125
-0.0157470703125
-0.0076904296875
0.0010986328125
-0.0003662109375
0.00146484375
-0.0120849609375
0.00439453125
-0.013916015625
0.0157470703125
-0.0216064453125
0.0216064453125
-0.0025634765625
0.0003662109375
0.028564453125
-0.0208740234375
0.0164794921875
-0.0128173828125
0.000732421875
0.0084228515625
-0.0113525390625
0.0087890625
0.0098876953125
-0.003662109375
0.0098876953125
-0.0054931640625
0.00732421875
-0.0025634765625
-0.002197265625
-0.000732421875
-0.013916015625
0.0062255859375
-0.0098876953125
0.0142822265625
-0.0062255859375
0.005126953125
0.0098876953125
-0.005859375
-0.0032958984375
-0.0157470703125
-0.013916015625
0.0128173828125
0.0076904296875
0.008056640625
0.0267333984375
-0.021240234375
0.009521484375
-0.01025390625
0.0025634765625
-0.006591796875
0.005859375
-0.0018310546875
-0.005859375
-0.0047607421875
-0.0010986328125
-0.0029296875
0.003662109375
-0.0076904296875
0.0205078125
-0.005126953125
0.0146484375
0.0040283203125
-0.0157470703125
0.005126953125
-0.0157470703125
0.0106201171875
-0.019775390625
0.0186767578125
-0.0084228515625
0.01904296875
0.0
0.0098876953125
0.01171875
0.0003662109375
0.00146484375
0.017578125
-0.0054931640625
0.0260009765625
0.0040283203125
0.0062255859375
-0.010986328125
0.0087890625
-0.005126953125
-0.0010986328125
-0.0157470703125
0.0179443359375
0.0084228515625
0.0098876953125
0.012451171875
-0.018310546875
0.0025634765625
-0.0003662109375
0.0106201171875
-0.0054931640625
-0.0010986328125
0.0
0.0003662109375
-0.0040283203125
-0.0025634765625
-0.021240234375
0.03369140625
-0.034423828125
0.0380859375
-0.021240234375
0.021240234375
-0.0018310546875
0.0113525390625
-0.0113525390625
0.0106201171875
-0.0157470703125
0.017578125
-0.0201416015625
-0.0032958984375
-0.00146484375
-0.0098876953125
0.009521484375
-0.01171875
0.0
-0.0032958984375
0.0091552734375
0.008056640625
0.0087890625
0.0087890625
0.006591796875
-0.00732421875
-0.0040283203125
0.00732421875
-0.0230712890625
0.0054931640625
0.006591796875
0.0106201171875
0.018310546875
0.022705078125
-0.00439453125
-0.0120849609375
0.0018310546875
-0.0047607421875
0.0029296875
0.0076904296875
-0.0069580078125
0.0076904296875
-0.0069580078125
-0.0128173828125
-0.00146484375
-0.0084228515625
-0.00146484375
-0.00146484375
0.0113525390625
-0.0150146484375
0.01025390625
0.012451171875
-0.003662109375
0.015380859375
-0.0003662109375
0.0076904296875
0.000732421875
-0.0076904296875
-0.0010986328125
0.0010986328125
-0.0135498046875
0.0087890625
-0.0091552734375
-0.01611328125
0.0113525390625
-0.0157470703125
0.0296630859375
-0.013916015625
0.0238037109375
0.0084228515625
-0.0025634765625
0.006591796875
-0.006591796875
-0.0201416015625
0.0084228515625
0.0113525390625
0.0325927734375
0.0205078125
-0.010986328125
-0.0003662109375
-0.0399169921875
-0.0157470703125
0.002197265625
-0.009521484375
0.00732421875
-0.012451171875
0.0076904296875
-0.01171875
0.00732421875
0.0084228515625
-0.00732421875
0.0267333984375
-0.017578125
0.0208740234375
-0.0120849609375
0.0047607421875
-0.0087890625
0.01171875
-0.0146484375
-0.01904296875
0.0029296875
-0.0128173828125
0.0135498046875
-0.01171875
0.0128173828125
-0.0098876953125
0.015380859375
-0.0106201171875
-0.0003662109375
-0.010986328125
-0.00732421875
-0.0003662109375
0.0025634765625
-0.0091552734375
-0.000732421875
-0.00146484375
-0.0040283203125
-0.0054931640625
-0.0223388671875
-0.005126953125
0.0113525390625
-0.0040283203125
0.0267333984375
-0.000732421875
-0.0113525390625
-0.0054931640625
-0.005126953125
-0.0150146484375
-0.0003662109375
-0.0216064453125
0.01025390625
-0.031494140625
0.0223388671875
-0.0172119140625
0.0179443359375
0.0003662109375
0.0
0.0216064453125
-0.0135498046875
0.0120849609375
-0.0003662109375
-0.0029296875
0.0032958984375
-0.012451171875
0.00146484375
-0.0201416015625
-0.0018310546875
0.0032958984375
-0.0069580078125
0.0003662109375
-0.009521484375
0.00439453125
-0.008056640625
0.0003662109375
0.000732421875
0.0025634765625
0.000732421875
0.0150146484375
-0.0087890625
0.0120849609375
-0.0179443359375
0.0040283203125
-0.01025390625
-0.029296875
0.0029296875
0.0205078125
0.0113525390625
0.0303955078125
-0.018310546875
-0.002197265625
-0.028564453125
0.0054931640625
-0.0040283203125
-0.000732421875
-0.003662109375
-0.01171875
-0.00439453125
-0.0234375
-0.01318359375
-0.0135498046875
-0.017578125
0.0018310546875
-0.0032958984375
0.0223388671875
0.0054931640625
0.0040283203125
0.0032958984375
0.0029296875
-0.002197265625
0.0010986328125
-0.0003662109375
-0.01611328125
0.01171875
-0.0098876953125
0.017578125
-0.0098876953125
0.009521484375
-0.002197265625
0.0054931640625
-0.000732421875
0.0150146484375
0.002197265625
0.0194091796875
-0.0076904296875
0.017578125
-0.0029296875
0.0146484375
-0.0062255859375
0.0120849609375
-0.009521484375
0.0377197265625
-0.01025390625
0.0303955078125
-0.0267333984375
0.00439453125
0.0098876953125
0.0135498046875
0.019775390625
0.008056640625
0.0
0.0032958984375
0.00146484375
0.005126953125
0.0234375
-0.0164794921875
0.0311279296875
-0.0201416015625
0.0201416015625
-0.0076904296875
0.0318603515625
-0.0208740234375
0.02783203125
-0.0384521484375
0.0142822265625
-0.0289306640625
-0.000732421875
-0.005859375
0.003662109375
-0.0076904296875
0.0146484375
-0.0106201171875
0.00146484375
-0.01025390625
0.0113525390625
-0.0201416015625
0.01171875
-0.006591796875
0.0208740234375
0.01318359375
0.021240234375
0.0084228515625
0.0142822265625
0.0018310546875
-0.0054931640625
0.0377197265625
0.006591796875
0.047607421875
0.0128173828125
0.016845703125
-0.0230712890625
0.0142822265625
0.0062255859375
0.015380859375
-0.0032958984375
0.02197265625
-0.008056640625
0.0234375
0.002197265625
0.0230712890625
-0.009521484375
0.0194091796875
-0.01318359375
0.0003662109375
0.0150146484375
-0.0029296875
0.0406494140625
0.0003662109375
0.01025390625
-0.0087890625
-0.0047607421875
-0.015380859375
-0.03955078125
0.0003662109375
-0.0325927734375
0.01171875
0.019775390625
0.006591796875
0.01611328125
-0.005859375
-0.00146484375
0.00146484375
-0.01318359375
0.01171875
-0.0263671875
0.000732421875
-0.0164794921875
0.000732421875
-0.003662109375
0.0018310546875
0.0054931640625
0.027099609375
0.0
0.005859375
-0.0025634765625
-0.016845703125
0.0003662109375
0.002197265625
-0.0216064453125
-0.0106201171875
-0.02490234375
-0.021240234375
-0.01025390625
-0.0150146484375
-0.0216064453125
0.00439453125
0.01025390625
0.005859375
0.013916015625
0.0010986328125
-0.0047607421875
-0.0018310546875
0.005859375
-0.000732421875
-0.013916015625
0.008056640625
-0.0098876953125
0.0018310546875
0.0025634765625
-0.0069580078125
0.0076904296875
-0.005859375
-0.0135498046875
-0.013916015625
-0.006591796875
-0.0318603515625
-0.006591796875
-0.021240234375
-0.0150146484375
-0.012451171875
-0.010986328125
-0.018310546875
-0.0281982421875
-0.016845703125
-0.035888671875
0.0091552734375
-0.00146484375
0.00439453125
0.006591796875
-0.0208740234375
-0.02490234375
-0.0142822265625
-0.005859375
-0.021240234375
-0.012451171875
-0.0084228515625
-0.0303955078125
0.0
-0.0087890625
-0.012451171875
-0.0076904296875
-0.012451171875
0.01611328125
-0.02197265625
0.032958984375
-0.0377197265625
0.01611328125
-0.028564453125
-0.013916015625
0.0054931640625
-0.02490234375
0.01611328125
-0.00146484375
0.0029296875
-0.0216064453125
0.013916015625
-0.032958984375
0.02197265625
-0.0252685546875
0.01611328125
0.013916015625
0.008056640625
0.03662109375
-0.0032958984375
0.0413818359375
-0.0113525390625
0.05712890625
-0.0106201171875
0.0274658203125
0.00146484375
0.085693359375
0.009521484375
0.098876953125
-0.0340576171875
0.037353515625
-0.034423828125
0.0003662109375
-0.0018310546875
0.029296875
-0.057861328125
0.0611572265625
-0.0509033203125
0.050933837890625
-0.01611328125
0.035552978515625
-0.0245361328125
0.0010986328125
-0.003662109375
0.0216064453125
0.000732421875
0.0113525390625
0.0018310546875
0.035888671875
-0.0205078125
0.0106201171875
-0.008056640625
-0.02490234375
0.0230712890625
-0.0076904296875
0.013916015625
-0.0234375
0.006591796875
-0.0260009765625
-0.0091552734375
-0.046539306640625
0.0252685546875
-0.044708251953125
0.0274658203125
-0.0076904296875
-0.017578125
0.024566650390625
-0.0245361328125
0.01025390625
-0.0025634765625
-0.0040283203125
0.0498046875
-0.0087890625
0.031494140625
-0.058258056640625
0.009521484375
-0.0421142578125
0.0274658203125
-0.0157470703125
0.0201416015625
-0.015380859375
-0.0186767578125
-0.0087890625
-0.0384521484375
-0.0098876953125
-0.008056640625
-0.0069580078125
0.0010986328125
-0.003662109375
0.00146484375
-0.0084228515625
-0.0047607421875
-0.022705078125
-0.02783203125
-0.0091552734375
-0.0216064453125
-0.02490234375
0.0032958984375
-0.013916015625
0.002197265625
-0.0201416015625
0.010986328125
-0.038818359375
0.01611328125
-0.0120849609375
0.019775390625
0.0025634765625
0.017578125
-0.0029296875
0.016845703125
-0.003662109375
0.0208740234375
0.00439453125
0.0018310546875
-0.01611328125
0.034423828125
-0.0025634765625
0.03662109375
-0.01318359375
0.00732421875
-0.0303955078125
0.0142822265625
-0.0128173828125
0.0150146484375
-0.0076904296875
0.0281982421875
0.008056640625
0.02197265625
0.0113525390625
0.01025390625
0.035888671875
-0.0076904296875
0.0281982421875
-0.01318359375
-0.010986328125
0.0029296875
-0.0062255859375
0.0098876953125
-0.0054931640625
0.024169921875
-0.005126953125
0.0179443359375
-0.00732421875
-0.0003662109375
0.0029296875
0.005126953125
0.00439453125
0.0010986328125
0.010986328125
-0.013916015625
0.0252685546875
-0.00146484375
0.0205078125
0.012451171875
-0.0076904296875
0.0098876953125
-0.0347900390625
-0.008056640625
-0.03369140625
0.002197265625
0.0029296875
0.029296875
0.0355224609375
-0.0069580078125
0.0186767578125
-0.021240234375
0.0106201171875
-0.0010986328125
-0.0098876953125
0.0054931640625
-0.022705078125
0.016845703125
-0.01611328125
0.0142822265625
-0.01318359375
0.0076904296875
0.0234375
-0.0018310546875
0.01611328125
0.0029296875
-0.0062255859375
0.0135498046875
-0.01318359375
0.012451171875
-0.0267333984375
0.015380859375
-0.0084228515625
-0.0010986328125
0.003662109375
-0.017578125
0.0029296875
-0.0032958984375
-0.005859375
-0.008056640625
0.0010986328125
-0.000732421875
-0.0142822265625
0.0234375
-0.01318359375
0.0076904296875
-0.0062255859375
-0.0069580078125
-0.0260009765625
-0.0157470703125
0.0164794921875
0.0106201171875
0.0076904296875
0.0047607421875
-0.0157470703125
-0.01171875
-0.006591796875
0.015380859375
-0.005126953125
0.0157470703125
-0.01318359375
0.0098876953125
-0.02490234375
0.0029296875
-0.015380859375
-0.00146484375
-0.003662109375
0.0069580078125
0.01904296875
0.0062255859375
0.002197265625
0.0040283203125
-0.0054931640625
0.0135498046875
-0.003662109375
0.005126953125
0.005859375
-0.0025634765625
0.002197265625
0.0010986328125
-0.0120849609375
0.00146484375
0.0054931640625
-0.0113525390625
0.0032958984375
-0.0142822265625
0.0120849609375
0.000732421875
0.0146484375
-0.0032958984375
0.0186767578125
-0.0142822265625
0.016845703125
-0.0172119140625
-0.0142822265625
0.0150146484375
-0.00439453125
0.024169921875
-0.00439453125
-0.0062255859375
-0.0087890625
-0.0025634765625
0.0010986328125
0.00146484375
0.0172119140625
-0.010986328125
0.00146484375
-0.0098876953125
-0.0164794921875
0.002197265625
0.002197265625
-0.0025634765625
0.006591796875
-0.0003662109375
0.005859375
0.0084228515625
-0.0018310546875
0.000732421875
0.008056640625
-0.0025634765625
0.01025390625
-0.005126953125
0.017578125
-0.008056640625
0.0098876953125
-0.0029296875
0.0
-0.0029296875
-0.00146484375
-0.0120849609375
-0.018310546875
0.0018310546875
-0.0010986328125
0.008056640625
0.0010986328125
-0.0069580078125
-0.0010986328125
-0.00439453125
-0.0120849609375
-0.0150146484375
-0.0047607421875
0.01171875
0.00732421875
0.0098876953125
0.00439453125
-0.01904296875
0.0032958984375
0.006591796875
-0.01171875
0.0113525390625
0.005859375
-0.000732421875
-0.00439453125
0.0076904296875
-0.0062255859375
0.0062255859375
0.003662109375
-0.0087890625
0.01318359375
-0.01611328125
0.0146484375
-0.0069580078125
0.0032958984375
-0.0010986328125
0.015380859375
-0.0091552734375
0.0113525390625
-0.01025390625
0.021240234375
-0.0135498046875
0.0091552734375
-0.009521484375
-0.000732421875
-0.0054931640625
-0.0047607421875
-0.00146484375
-0.010986328125
0.0113525390625
0.0062255859375
0.0076904296875
0.005126953125
-0.010986328125
0.005859375
-0.009521484375
-0.010986328125
-0.002197265625
0.0362548828125
0.0076904296875
0.0281982421875
-0.0018310546875
-0.0128173828125
-0.017578125
0.006591796875
-0.0113525390625
-0.015380859375
-0.005859375
-0.012451171875
-0.0010986328125
-0.0157470703125
0.00732421875
-0.00146484375
0.008056640625
0.0205078125
-0.00732421875
0.0194091796875
-0.006591796875
-0.0040283203125
0.005126953125
-0.0062255859375
-0.0084228515625
0.0032958984375
-0.0135498046875
-0.0120849609375
-0.0029296875
0.00439453125
-0.0054931640625
0.0062255859375
-0.0076904296875
0.0054931640625
-0.008056640625
0.0106201171875
-0.0208740234375
0.005859375
-0.0186767578125
-0.0010986328125
0.0003662109375
0.00439453125
-0.005126953125
0.01611328125
-0.0146484375
-0.01904296875
0.0025634765625
0.0098876953125
0.03076171875
0.0146484375
-0.0062255859375
-0.0146484375
-0.0120849609375
-0.002197265625
0.0216064453125
-0.002197265625
-0.000732421875
0.0010986328125
-0.0091552734375
-0.01611328125
-0.0029296875
-0.0157470703125
0.008056640625
0.002197265625
0.00439453125
0.0377197265625
-0.0120849609375
0.030029296875
-0.0120849609375
0.016845703125
-0.0157470703125
0.010986328125
-0.0047607421875
-0.0029296875
0.0029296875
-0.0025634765625
0.00732421875
-0.0087890625
0.0069580078125
0.0069580078125
-0.015380859375
-0.0029296875
-0.0084228515625
0.0098876953125
-0.0040283203125
0.01025390625
-0.0084228515625
-0.008056640625
-0.0010986328125
-0.008056640625
0.00732421875
-0.0230712890625
0.022705078125
0.015380859375
0.0146484375
0.009521484375
-0.0062255859375
0.0003662109375
-0.006591796875
0.0084228515625
-0.0069580078125
-0.0032958984375
-0.0084228515625
-0.0069580078125
0.0029296875
-0.017578125
0.0172119140625
-0.01611328125
0.0142822265625
-0.013916015625
0.002197265625
0.01904296875
-0.00439453125
0.029296875
-0.0047607421875
0.021240234375
-0.00439453125
-0.0029296875
-0.0018310546875
-0.019775390625
0.0087890625
-0.0230712890625
0.0205078125
-0.031494140625
0.0208740234375
-0.0098876953125
0.005126953125
0.000732421875
-0.0047607421875
0.0062255859375
0.000732421875
-0.0157470703125
0.0120849609375
-0.0186767578125
0.0098876953125
-0.00146484375
-0.012451171875
-0.022705078125
0.012451171875
0.0010986328125
0.0146484375
0.006591796875
-0.01025390625
0.0084228515625
-0.003662109375
0.005126953125
0.0018310546875
-0.0120849609375
0.010986328125
-0.01318359375
0.0113525390625
-0.0029296875
-0.00439453125
0.0029296875
-0.0069580078125
0.0076904296875
-0.0120849609375
0.0146484375
-0.0091552734375
-0.0128173828125
0.0091552734375
-0.0194091796875
0.0164794921875
-0.0146484375
0.0238037109375
-0.0025634765625
0.013916015625
-0.01025390625
0.0098876953125
-0.0084228515625
-0.0032958984375
0.0029296875
-0.0146484375
-0.006591796875
-0.0054931640625
0.0076904296875
-0.00732421875
0.01025390625
-0.0069580078125
0.017578125
-0.008056640625
0.0062255859375
-0.0194091796875
0.0186767578125
-0.0010986328125
0.0106201171875
0.00732421875
-0.027099609375
-0.0032958984375
-0.0098876953125
0.005859375
-0.0084228515625
0.0047607421875
0.0040283203125
-0.0029296875
-0.0106201171875
0.0003662109375
-0.0157470703125
-0.0003662109375
0.002197265625
-0.005126953125
0.01904296875
-0.0106201171875
0.01904296875
-0.005126953125
-0.0018310546875
-0.003662109375
-0.0084228515625
0.0047607421875
-0.016845703125
0.016845703125
0.0142822265625
0.0025634765625
0.018310546875
-0.0076904296875
0.0087890625
-0.0054931640625
0.0289306640625
-0.0076904296875
0.01025390625
0.002197265625
0.0106201171875
-0.00146484375
0.021240234375
-0.017578125
0.0267333984375
-0.0260009765625
0.005859375
-0.021240234375
0.0303955078125
0.0106201171875
0.0186767578125
-0.0135498046875
-0.017578125
-0.038818359375
0.0040283203125
-0.0234375
-0.0040283203125
-0.0216064453125
-0.000732421875
0.003662109375
0.00146484375
0.006591796875
0.008056640625
-0.009521484375
0.0084228515625
0.0047607421875
0.0205078125
0.002197265625
0.012451171875
0.0018310546875
0.0010986328125
0.00146484375
0.021240234375
-0.015380859375
0.0150146484375
-0.016845703125
0.0032958984375
0.005859375
-0.002197265625
0.0186767578125
-0.002197265625
-0.003662109375
-0.02197265625
-0.010986328125
-0.01904296875
-0.00146484375
0.0
0.01025390625
-0.025634765625
0.0274658203125
-0.0120849609375
0.003662109375
-0.01611328125
0.0076904296875
-0.000732421875
0.015380859375
0.0216064453125
-0.012451171875
-0.0025634765625
-0.0032958984375
-0.0223388671875
0.0179443359375
-0.03369140625
0.01611328125
-0.022705078125
0.0087890625
-0.01904296875
-0.005859375
0.0098876953125
-0.0142822265625
0.02783203125
0.005859375
-0.000732421875
0.005126953125
-0.01611328125
-0.0029296875
0.000732421875
0.003662109375
0.01611328125
0.0157470703125
0.01318359375
0.0135498046875
-0.0029296875
0.005859375
-0.0106201171875
-0.000732421875
0.018310546875
-0.015380859375
0.015380859375
-0.000732421875
-0.002197265625
0.01318359375
-0.0076904296875
0.0157470703125
-0.0010986328125
-0.0054931640625
0.0054931640625
-0.0274658203125
-0.0377197265625
0.0194091796875
0.0032958984375
0.021240234375
0.0252685546875
-0.0194091796875
-0.0172119140625
-0.005126953125
0.0003662109375
0.0032958984375
-0.000732421875
0.0
-0.019775390625
0.0113525390625
-0.02783203125
0.013916015625
-0.013916015625
-0.00146484375
-0.000732421875
-0.0128173828125
0.0025634765625
-0.008056640625
-0.00732421875
0.0054931640625
-0.0120849609375
0.0194091796875
-0.00439453125
0.0135498046875
0.015380859375
-0.005859375
0.015380859375
-0.00439453125
-0.009521484375
0.0087890625
-0.00732421875
0.0032958984375
-0.0047607421875
-0.0091552734375
0.0245361328125
-0.0098876953125
0.0205078125
0.003662109375
-0.008056640625
0.000732421875
0.00146484375
-0.0150146484375
-0.0355224609375
0.0076904296875
0.0091552734375
0.0029296875
0.0399169921875
-0.024169921875
0.0018310546875
-0.0106201171875
-0.0003662109375
0.000732421875
-0.006591796875
0.0062255859375
-0.0157470703125
0.009521484375
-0.0260009765625
0.0106201171875
-0.009521484375
0.012451171875
0.0025634765625
0.009521484375
0.0076904296875
0.0018310546875
-0.0194091796875
-0.0010986328125
-0.0230712890625
0.0054931640625
-0.00732421875
0.0106201171875
0.0084228515625
0.0040283203125
0.0245361328125
0.006591796875
0.0062255859375
0.0098876953125
0.0087890625
-0.009521484375
0.024169921875
-0.0106201171875
0.0245361328125
-0.000732421875
0.003662109375
0.0
0.0003662109375
-0.0029296875
0.00146484375
-0.0142822265625
-0.0142822265625
0.0146484375
-0.025634765625
0.01318359375
-0.019775390625
-0.0157470703125
0.0084228515625
-0.0106201171875
-0.003662109375
-0.0029296875
-0.008056640625
0.0
-0.0087890625
-0.0032958984375
-0.0260009765625
0.005859375
-0.00146484375
0.0010986328125
0.0362548828125
-0.025634765625
0.03369140625
-0.025634765625
0.0120849609375
-0.0128173828125
0.015380859375
-0.0091552734375
-0.0040283203125
0.005126953125
-0.006591796875
0.0076904296875
0.0025634765625
0.0098876953125
0.0
0.009521484375
0.0025634765625
-0.0062255859375
-0.0106201171875
0.0
-0.0069580078125
0.0054931640625
-0.003662109375
-0.0003662109375
0.0179443359375
-0.0018310546875
0.00732421875
-0.0205078125
-0.006591796875
0.017578125
-0.00439453125
0.0322265625
-0.0205078125
-0.0069580078125
-0.005126953125
-0.0029296875
0.006591796875
-0.0032958984375
0.0113525390625
-0.0029296875
-0.0087890625
0.0010986328125
-0.009521484375
0.005859375
0.010986328125
0.0047607421875
0.0179443359375
-0.0010986328125
0.012451171875
0.00439453125
-0.0018310546875
0.000732421875
0.0087890625
-0.0084228515625
-0.000732421875
-0.0069580078125
0.016845703125
-0.00732421875
0.013916015625
-0.00146484375
-0.017578125
0.0098876953125
-0.0216064453125
-0.002197265625
-0.0106201171875
-0.0054931640625
-0.0025634765625
0.0087890625
-0.0157470703125
0.012451171875
-0.000732421875
0.0194091796875
-0.0062255859375
0.0025634765625
0.003662109375
0.016845703125
0.0003662109375
0.0146484375
-0.0208740234375
-0.009521484375
-0.0084228515625
0.000732421875
-0.0106201171875
0.0029296875
-0.0106201171875
0.0120849609375
-0.016845703125
0.01318359375
-0.0120849609375
0.0113525390625
0.0025634765625
-0.0032958984375
0.027099609375
-0.0179443359375
0.0142822265625
-0.0040283203125
-0.0040283203125
-0.0025634765625
0.005859375
-0.01171875
0.0018310546875
-0.0113525390625
0.009521484375
-0.0062255859375
0.005859375
-0.0032958984375
0.0146484375
-0.0164794921875
0.0069580078125
-0.012451171875
0.005859375
-0.0025634765625
0.012451171875
0.0010986328125
0.0032958984375
-0.000732421875
0.0120849609375
-0.0062255859375
0.0062255859375
-0.016845703125
-0.0172119140625
0.016845703125
0.008056640625
0.0263671875
0.027099609375
-0.019775390625
-0.0018310546875
-0.01611328125
-0.005126953125
0.0025634765625
-0.0194091796875
0.008056640625
-0.037353515625
0.0091552734375
-0.0025634765625
-0.003662109375
0.0113525390625
-0.0142822265625
0.0216064453125
-0.0113525390625
0.013916015625
-0.0010986328125
-0.010986328125
0.00146484375
-0.010986328125
0.000732421875
-0.0164794921875
0.00732421875
-0.003662109375
0.00439453125
0.0003662109375
0.0029296875
0.0047607421875
0.0076904296875
-0.018310546875
0.0084228515625
0.00146484375
0.0025634765625
0.0234375
-0.00146484375
0.008056640625
-0.0018310546875
0.010986328125
0.005126953125
-0.005859375
-0.0032958984375
-0.0091552734375
0.02490234375
-0.005126953125
0.029296875
0.0172119140625
-0.0135498046875
0.0186767578125
-0.012451171875
0.006591796875
-0.0164794921875
-0.006591796875
-0.018310546875
-0.0146484375
-0.017578125
-0.0029296875
-0.0091552734375
-0.005126953125
-0.0010986328125
0.0120849609375
-0.0062255859375
0.0
0.000732421875
-0.0084228515625
0.006591796875
-0.0142822265625
0.0076904296875
-0.0164794921875
-0.00146484375
0.0069580078125
-0.01171875
0.0
-0.01025390625
0.00146484375
-0.005859375
-0.0106201171875
-0.009521484375
-0.0098876953125
-0.0018310546875
0.0029296875
0.006591796875
-0.0054931640625
0.009521484375
-0.010986328125
0.0146484375
-0.0098876953125
-0.0062255859375
0.0040283203125
0.021240234375
-0.0084228515625
0.009521484375
0.0098876953125
-0.0380859375
0.00439453125
-0.009521484375
0.000732421875
0.00732421875
0.0069580078125
0.0087890625
-0.0252685546875
0.0087890625
-0.0303955078125
0.009521484375
-0.0223388671875
0.00732421875
0.0223388671875
-0.0062255859375
0.024169921875
-0.005126953125
0.0076904296875
0.006591796875
-0.0076904296875
0.0150146484375
-0.012451171875
0.01025390625
0.002197265625
0.0032958984375
0.0018310546875
-0.0062255859375
0.0069580078125
-0.003662109375
0.0
-0.005126953125
0.0069580078125
0.00439453125
-0.0010986328125
0.02197265625
0.00439453125
0.0113525390625
0.0091552734375
0.00439453125
0.0029296875
-0.0179443359375
-0.0062255859375
0.0223388671875
0.0
0.016845703125
0.017578125
-0.02490234375
-0.010986328125
0.0091552734375
-0.01171875
0.01611328125
-0.006591796875
0.002197265625
-0.009521484375
-0.0018310546875
-0.0234375
0.0032958984375
-0.01904296875
-0.0040283203125
0.01318359375
-0.01318359375
-0.0032958984375
-0.0003662109375
-0.00146484375
0.0091552734375
-0.000732421875
0.0054931640625
0.0062255859375
-0.00146484375
0.0172119140625
-0.0076904296875
0.005859375
-0.0091552734375
0.0
-0.0010986328125
-0.0076904296875
-0.000732421875
0.003662109375
-0.0098876953125
0.0029296875
0.0003662109375
0.0135498046875
-0.0003662109375
0.01025390625
-0.0018310546875
0.0018310546875
-0.000732421875
-0.0263671875
0.013916015625
0.009521484375
0.027099609375
0.0267333984375
-0.010986328125
-0.0186767578125
-0.031494140625
0.0084228515625
-0.018310546875
0.005859375
-0.01318359375
0.0076904296875
-0.009521484375
-0.008056640625
0.009521484375
-0.0186767578125
0.01171875
0.006591796875
-0.0025634765625
0.002197265625
0.0062255859375
0.0032958984375
0.01318359375
-0.002197265625
0.0062255859375
0.0062255859375
-0.0018310546875
0.0
0.0040283203125
-0.01611328125
0.019775390625
-0.009521484375
0.0230712890625
-0.01171875
0.01171875
-0.009521484375
0.0054931640625
-0.010986328125
0.015380859375
0.005126953125
0.0098876953125
0.0179443359375
-0.0164794921875
0.0164794921875
-0.0208740234375
-0.00146484375
-0.024169921875
0.0010986328125
-0.0029296875
0.01611328125
-0.0010986328125
0.0142822265625
-0.0238037109375
0.013916015625
-0.0091552734375
0.010986328125
-0.0128173828125
0.0194091796875
-0.012451171875
0.003662109375
-0.0047607421875
-0.0201416015625
0.0010986328125
-0.0142822265625
0.005859375
0.01318359375
-0.003662109375
0.01318359375
-0.0054931640625
-0.0146484375
0.008056640625
-0.0003662109375
0.0032958984375
-0.0069580078125
0.0010986328125
-0.0032958984375
0.0010986328125
0.0205078125
-0.0029296875
0.01611328125
0.0010986328125
0.0
-0.0113525390625
-0.010986328125
-0.01611328125
0.002197265625
-0.0040283203125
0.002197265625
-0.0018310546875
0.0164794921875
-0.01171875
0.0091552734375
-0.01025390625
-0.024169921875
0.021240234375
-0.006591796875
0.0296630859375
0.0084228515625
-0.0084228515625
-0.008056640625
-0.0087890625
-0.0120849609375
0.0032958984375
0.0040283203125
-0.005859375
-0.0054931640625
-0.0010986328125
-0.0076904296875
0.0040283203125
-0.00439453125
-0.0018310546875
0.01318359375
-0.009521484375
0.030029296875
-0.0062255859375
-0.008056640625
0.0128173828125
-0.008056640625
0.018310546875
-0.0010986328125
-0.0029296875
0.01171875
-0.0172119140625
0.013916015625
-0.0084228515625
0.006591796875
0.0003662109375
0.012451171875
-0.0076904296875
-0.00146484375
-0.01171875
-0.006591796875
0.005859375
-0.0201416015625
0.0223388671875
-0.010986328125
0.0194091796875
0.002197265625
0.006591796875
0.0032958984375
-0.0142822265625
0.0120849609375
0.006591796875
0.0223388671875
-0.0128173828125
0.0157470703125
-0.035888671875
-0.01025390625
0.0054931640625
-0.01318359375
0.01318359375
-0.0047607421875
-0.0032958984375
0.005126953125
-0.0062255859375
-0.0146484375
0.0113525390625
-0.009521484375
0.0054931640625
0.0084228515625
-0.000732421875
-0.0062255859375
0.005859375
-0.0084228515625
0.0076904296875
-0.0098876953125
0.0069580078125
0.0
0.0029296875
0.012451171875
-0.0106201171875
0.0128173828125
-0.0084228515625
-0.0135498046875
0.0120849609375
-0.008056640625
0.0069580078125
0.0
-0.0076904296875
-0.0018310546875
-0.00439453125
0.0113525390625
-0.00439453125
-0.0018310546875
-0.00732421875
0.00732421875
-0.00439453125
0.0018310546875
-0.016845703125
0.0157470703125
0.0
0.0054931640625
0.005859375
-0.016845703125
-0.00732421875
-0.0087890625
0.0142822265625
-0.0216064453125
0.0223388671875
-0.0054931640625
0.010986328125
-0.0062255859375
0.00732421875
-0.0032958984375
0.0128173828125
0.0135498046875
-0.00732421875
0.017578125
-0.0205078125
0.0047607421875
0.00146484375
0.002197265625
0.006591796875
0.0142822265625
0.000732421875
0.00732421875
-0.01318359375
0.00732421875
-0.0128173828125
-0.005859375
0.0091552734375
-0.0076904296875
0.01318359375
-0.0172119140625
0.0029296875
-0.0172119140625
-0.01171875
0.0047607421875
-0.0040283203125
-0.0010986328125
0.0003662109375
0.0003662109375
-0.0040283203125
-0.0128173828125
0.00146484375
-0.0318603515625
0.016845703125
0.010986328125
0.0230712890625
0.0263671875
-0.0172119140625
-0.0087890625
-0.0230712890625
-0.0069580078125
-0.0032958984375
0.0106201171875
-0.0135498046875
0.0062255859375
-0.0172119140625
0.0018310546875
-0.009521484375
0.0087890625
-0.0040283203125
0.0245361328125
-0.008056640625
0.0029296875
0.000732421875
-0.017578125
0.0098876953125
-0.00146484375
0.005859375
0.0018310546875
0.0003662109375
0.0076904296875
0.000732421875
-0.00439453125
0.003662109375
0.009521484375
-0.0003662109375
0.019775390625
-0.0120849609375
0.01171875
-0.0281982421875
-0.0003662109375
-0.0062255859375
-0.01318359375
0.0208740234375
-0.002197265625
0.0194091796875
0.000732421875
0.0069580078125
0.000732421875
-0.0150146484375
-0.0289306640625
0.0245361328125
-0.0113525390625
0.0234375
0.006591796875
-0.01171875
-0.0146484375
0.003662109375
-0.024169921875
0.01171875
-0.0362548828125
0.012451171875
-0.018310546875
0.0062255859375
-0.0091552734375
-0.003662109375
0.0084228515625
-0.0113525390625
0.01904296875
-0.0054931640625
0.0201416015625
0.0040283203125
0.01171875
0.009521484375
0.003662109375
0.000732421875
0.0029296875
-0.005859375
-0.012451171875
-0.003662109375
-0.009521484375
0.0106201171875
0.00439453125
0.0146484375
0.0201416015625
0.003662109375
-0.0040283203125
0.003662109375
-0.0106201171875
0.002197265625
0.0091552734375
-0.006591796875
-0.00732421875
-0.009521484375
0.0025634765625
-0.0010986328125
-0.005126953125
-0.0029296875
-0.00439453125
0.0205078125
-0.005126953125
0.0205078125
-0.0157470703125
-0.002197265625
-0.0087890625
0.0087890625
-0.0098876953125
0.0025634765625
-0.000732421875
-0.0069580078125
-0.01611328125
0.0029296875
-0.015380859375
0.0098876953125
0.0
-0.0003662109375
0.027099609375
-0.016845703125
0.019775390625
-0.01318359375
-0.003662109375
-0.0018310546875
-0.0040283203125
0.0018310546875
-0.0106201171875
0.00146484375
-0.003662109375
-0.0054931640625
-0.0040283203125
-0.00732421875
0.0084228515625
-0.0047607421875
0.0029296875
-0.0047607421875
0.0054931640625
-0.009521484375
0.005126953125
0.008056640625
-0.005859375
0.0150146484375
0.0010986328125
0.003662109375
-0.002197265625
-0.0018310546875
-0.0087890625
0.000732421875
0.022705078125
0.02197265625
0.0311279296875
-0.00439453125
-0.0069580078125
-0.0230712890625
0.0
-0.0010986328125
0.002197265625
0.006591796875
-0.0040283203125
0.0047607421875
-0.0040283203125
0.00732421875
-0.017578125
0.0091552734375
0.022705078125
-0.0076904296875
0.03662109375
-0.0106201171875
0.008056640625
-0.006591796875
-0.00146484375
-0.00439453125
-0.006591796875
-0.0091552734375
0.0091552734375
-0.0150146484375
0.009521484375
-0.0128173828125
0.0172119140625
-0.0128173828125
0.008056640625
-0.009521484375
-0.0003662109375
-0.010986328125
-0.00439453125
0.005126953125
-0.0062255859375
0.0113525390625
-0.00732421875
0.0029296875
-0.0120849609375
-0.00146484375
0.0032958984375
-0.021240234375
-0.0032958984375
0.0205078125
0.0098876953125
0.0234375
0.0113525390625
-0.0194091796875
0.0040283203125
-0.00732421875
-0.0040283203125
0.0
-0.021240234375
0.005126953125
-0.0216064453125
0.0142822265625
-0.0142822265625
0.0032958984375
0.018310546875
-0.012451171875
0.018310546875
-0.0087890625
0.0113525390625
-0.003662109375
0.0
0.0025634765625
-0.005859375
0.00439453125
-0.003662109375
0.00732421875
-0.0076904296875
0.0047607421875
0.00732421875
-0.0069580078125
0.0025634765625
-0.0054931640625
0.00439453125
-0.0029296875
0.0032958984375
-0.0032958984375
0.01171875
0.0029296875
-0.005859375
0.0146484375
-0.0223388671875
0.0084228515625
-0.012451171875
-0.008056640625
-0.03515625
0.017578125
0.01025390625
0.016845703125
0.0260009765625
-0.017578125
0.005126953125
-0.01025390625
0.002197265625
0.0025634765625
-0.006591796875
-0.00146484375
-0.0172119140625
0.000732421875
-0.030029296875
0.01025390625
-0.0076904296875
0.005859375
0.002197265625
-0.002197265625
0.0194091796875
0.0
0.009521484375
0.0029296875
0.0054931640625
-0.005859375
0.0047607421875
-0.0040283203125
-0.0029296875
-0.0018310546875
0.0010986328125
-0.0047607421875
-0.0172119140625
0.00732421875
-0.005859375
0.00732421875
-0.0054931640625
-0.0010986328125
-0.006591796875
0.012451171875
0.003662109375
0.00439453125
0.0084228515625
-0.0113525390625
0.0
0.00146484375
-0.0263671875
0.000732421875
0.0076904296875
0.00439453125
-0.0029296875
0.01318359375
-0.01318359375
-0.0003662109375
0.0003662109375
-0.0040283203125
-0.0087890625
0.003662109375
-0.0120849609375
0.0054931640625
-0.01904296875
0.00439453125
-0.0040283203125
-0.0025634765625
0.0084228515625
-0.015380859375
0.027099609375
-0.0216064453125
0.0179443359375
-0.01025390625
0.01171875
-0.002197265625
-0.0076904296875
0.0087890625
-0.01025390625
0.0062255859375
0.0029296875
-0.0062255859375
0.0
-0.009521484375
0.0054931640625
-0.006591796875
-0.0106201171875
-0.002197265625
-0.000732421875
0.00146484375
0.002197265625
0.00732421875
0.0025634765625
0.0084228515625
0.003662109375
0.0062255859375
-0.0018310546875
-0.005126953125
-0.0146484375
0.02197265625
0.0018310546875
0.01904296875
0.03076171875
-0.0205078125
0.00146484375
-0.0120849609375
0.005859375
-0.002197265625
0.005859375
0.0010986328125
-0.0113525390625
0.0120849609375
-0.0186767578125
0.0128173828125
-0.0084228515625
-0.0003662109375
0.0186767578125
-0.0062255859375
0.0150146484375
-0.0054931640625
0.0091552734375
0.0010986328125
-0.00146484375
0.0010986328125
-0.0010986328125
-0.0091552734375
-0.0040283203125
-0.0040283203125
-0.0135498046875
0.0076904296875
-0.0084228515625
0.002197265625
-0.0135498046875
-0.005126953125
0.0003662109375
-0.005126953125
0.0
0.0054931640625
0.0029296875
0.0032958984375
0.0098876953125
-0.0128173828125
0.0084228515625
-0.0164794921875
-0.0245361328125
0.013916015625
-0.0113525390625
0.0234375
0.0216064453125
-0.0164794921875
-0.00439453125
-0.01904296875
0.0018310546875
-0.0029296875
-0.0076904296875
0.0
-0.0084228515625
0.0054931640625
-0.0113525390625
0.0047607421875
-0.0135498046875
0.00146484375
0.0120849609375
-0.0029296875
0.0098876953125
-0.0040283203125
0.0062255859375
0.0003662109375
0.000732421875
-0.0054931640625
0.00732421875
-0.0084228515625
0.0003662109375
0.003662109375
-0.0010986328125
0.0054931640625
0.0054931640625
0.0032958984375
0.0
-0.00732421875
0.0098876953125
-0.018310546875
0.0029296875
0.003662109375
0.012451171875
0.0113525390625
0.0091552734375
-0.0040283203125
0.0025634765625
-0.0025634765625
-0.02490234375
0.01611328125
0.008056640625
0.0322265625
0.019775390625
-0.0069580078125
-0.0245361328125
-0.0142822265625
-0.0025634765625
0.009521484375
-0.009521484375
-0.000732421875
-0.0062255859375
0.0032958984375
-0.0098876953125
0.009521484375
-0.0113525390625
0.0146484375
-0.0040283203125
0.0069580078125
-0.0010986328125
-0.00439453125
0.01171875
-0.008056640625
-0.0047607421875
-0.0040283203125
0.0018310546875
-0.0018310546875
0.0032958984375
-0.0003662109375
-0.0098876953125
0.0062255859375
-0.0157470703125
0.0146484375
-0.01171875
0.01318359375
-0.0091552734375
0.0025634765625
-0.016845703125
0.009521484375
-0.0010986328125
0.0040283203125
0.0003662109375
-0.0032958984375
0.00732421875
0.0003662109375
-0.009521484375
-0.0113525390625
-0.0062255859375
0.0113525390625
0.0029296875
0.01318359375
-0.01025390625
-0.0106201171875
0.0010986328125
-0.0032958984375
-0.009521484375
0.0032958984375
0.002197265625
0.0018310546875
0.005859375
-0.0025634765625
0.000732421875
-0.0018310546875
0.000732421875
-0.0054931640625
0.01171875
-0.0120849609375
0.0128173828125
-0.013916015625
-0.01025390625
-0.0062255859375
-0.0087890625
-0.000732421875
-0.009521484375
0.0029296875
0.0076904296875
0.0025634765625
0.00732421875
-0.0010986328125
0.00732421875
-0.0076904296875
0.005859375
-0.01611328125
-0.0029296875
-0.0062255859375
0.0106201171875
0.000732421875
0.0098876953125
-0.0062255859375
0.019775390625
-0.0091552734375
0.0076904296875
-0.01611328125
-0.010986328125
0.01904296875
0.0054931640625
0.0260009765625
0.0087890625
-0.0054931640625
-0.0084228515625
0.000732421875
-0.01025390625
0.0025634765625
0.0047607421875
0.0
-0.0018310546875
0.0047607421875
0.0018310546875
0.005126953125
0.005859375
-0.0040283203125
0.0179443359375
-0.0120849609375
0.02197265625
-0.009521484375
0.00439453125
0.0003662109375
0.002197265625
0.005859375
0.006591796875
-0.005859375
0.0087890625
-0.0047607421875
-0.010986328125
0.0010986328125
-0.0018310546875
-0.0106201171875
0.0040283203125
-0.0230712890625
0.0
-0.016845703125
-0.0047607421875
0.00732421875
-0.012451171875
0.0157470703125
0.0040283203125
0.0084228515625
-0.0069580078125
-0.00732421875
-0.01171875
0.0234375
0.009521484375
0.013916015625
0.0186767578125
-0.0223388671875
0.0010986328125
-0.0010986328125
-0.0062255859375
0.002197265625
-0.00146484375
-0.0032958984375
-0.018310546875
-0.0018310546875
-0.0076904296875
-0.000732421875
0.010986328125
-0.0084228515625
0.0322265625
-0.0120849609375
0.0230712890625
-0.0047607421875
0.0025634765625
-0.00146484375
-0.006591796875
0.0084228515625
-0.0208740234375
0.01171875
-0.005859375
0.0087890625
-0.005126953125
0.0062255859375
0.002197265625
-0.00439453125
-0.006591796875
-0.0091552734375
0.0018310546875
-0.005126953125
0.0135498046875
0.0018310546875
0.002197265625
0.00439453125
0.0025634765625
0.0025634765625
-0.0091552734375
-0.0062255859375
-0.0098876953125
0.0194091796875
0.00732421875
0.0164794921875
0.0252685546875
-0.0186767578125
-0.002197265625
-0.00732421875
-0.002197265625
-0.0010986328125
-0.00439453125
0.005126953125
-0.0296630859375
0.0142822265625
-0.0172119140625
0.008056640625
-0.0150146484375
0.0003662109375
0.015380859375
0.0
0.0179443359375
0.00146484375
0.0084228515625
-0.003662109375
0.0029296875
0.002197265625
-0.0098876953125
0.0040283203125
-0.0018310546875
-0.000732421875
-0.0047607421875
-0.0040283203125
0.00732421875
-0.0040283203125
-0.009521484375
0.00146484375
-0.006591796875
-0.0003662109375
0.0025634765625
0.008056640625
0.003662109375
0.010986328125
0.006591796875
0.002197265625
-0.0113525390625
0.0032958984375
-0.041015625
0.0318603515625
-0.0025634765625
0.0333251953125
0.0296630859375
-0.0150146484375
-0.00732421875
-0.02783203125
0.0018310546875
-0.005126953125
-0.005126953125
0.005859375
-0.005859375
0.005126953125
-0.005126953125
0.0106201171875
-0.010986328125
0.006591796875
0.025634765625
-0.01611328125
0.031494140625
-0.0194091796875
0.025634765625
-0.0142822265625
0.0087890625
-0.01025390625
0.0
-0.005859375
-0.0032958984375
0.0
-0.017578125
0.0029296875
-0.0018310546875
-0.0047607421875
-0.00732421875
-0.005859375
0.002197265625
-0.0087890625
0.009521484375
0.00146484375
0.0172119140625
0.0032958984375
0.0142822265625
-0.0106201171875
0.0
-0.0076904296875
-0.017578125
-0.0025634765625
0.0146484375
0.0054931640625
0.0172119140625
0.0029296875
-0.0260009765625
-0.003662109375
0.005126953125
-0.0003662109375
-0.005126953125
0.0084228515625
-0.01318359375
0.012451171875
-0.0208740234375
0.0186767578125
-0.025634765625
0.0157470703125
0.0047607421875
-0.0025634765625
0.013916015625
-0.005126953125
0.0194091796875
-0.0025634765625
0.003662109375
-0.0047607421875
-0.0069580078125
-0.0018310546875
-0.006591796875
0.0018310546875
-0.0091552734375
0.0054931640625
-0.0062255859375
0.006591796875
-0.0113525390625
-0.0032958984375
-0.0084228515625
-0.0076904296875
-0.0003662109375
0.0
0.0234375
-0.0010986328125
0.0157470703125
-0.009521484375
0.0
-0.006591796875
-0.0194091796875
0.00146484375
0.012451171875
0.0186767578125
0.022705078125
-0.0029296875
-0.0263671875
-0.0157470703125
0.00146484375
-0.00146484375
0.000732421875
-0.00146484375
-0.0029296875
0.0010986328125
-0.005859375
0.005126953125
-0.0054931640625
0.00732421875
0.0252685546875
-0.010986328125
0.0201416015625
-0.010986328125
0.0091552734375
0.0040283203125
-0.0029296875
0.005859375
0.00439453125
0.0076904296875
0.0010986328125
0.008056640625
0.0062255859375
-0.0029296875
0.01318359375
-0.0084228515625
0.01318359375
-0.00732421875
0.018310546875
-0.003662109375
-0.009521484375
0.01171875
-0.0029296875
0.0091552734375
-0.0047607421875
0.0032958984375
-0.002197265625
0.0098876953125
-0.00439453125
0.0025634765625
0.0194091796875
0.0164794921875
0.0087890625
0.0076904296875
-0.03515625
-0.0098876953125
-0.0040283203125
-0.0032958984375
0.002197265625
-0.0098876953125
0.008056640625
-0.00732421875
-0.0076904296875
0.003662109375
-0.0113525390625
0.0032958984375
0.00146484375
-0.00146484375
0.0003662109375
-0.0032958984375
0.0076904296875
-0.005126953125
-0.006591796875
-0.002197265625
0.002197265625
-0.00732421875
0.00146484375
-0.0047607421875
0.0087890625
-0.003662109375
0.012451171875
-0.006591796875
0.01171875
-0.01025390625
-0.0018310546875
-0.0113525390625
-0.0205078125
0.0062255859375
-0.0025634765625
0.01318359375
-0.009521484375
0.0106201171875
0.0018310546875
0.0091552734375
-0.0029296875
-0.0025634765625
-0.0047607421875
0.0252685546875
0.003662109375
0.0157470703125
-0.0018310546875
-0.018310546875
0.0
-0.0025634765625
-0.0098876953125
0.00146484375
-0.005859375
0.0003662109375
-0.0164794921875
-0.000732421875
-0.006591796875
-0.0010986328125
-0.0040283203125
0.0003662109375
0.0087890625
-0.01318359375
0.015380859375
-0.0128173828125
-0.0098876953125
-0.000732421875
-0.005126953125
0.0032958984375
-0.00439453125
0.0040283203125
0.01171875
-0.0062255859375
0.0076904296875
-0.008056640625
0.0003662109375
-0.006591796875
-0.0120849609375
-0.0062255859375
-0.015380859375
0.003662109375
-0.000732421875
0.0087890625
-0.0179443359375
0.002197265625
-0.0325927734375
-0.0076904296875
-0.0362548828125
-0.0205078125
-0.017578125
0.0087890625
0.010986328125
0.01025390625
0.0150146484375
-0.0164794921875
-0.002197265625
-0.005126953125
-0.0076904296875
0.00146484375
0.000732421875
0.00732421875
-0.00732421875
0.009521484375
-0.0029296875
0.005126953125
0.0032958984375
-0.0025634765625
0.0157470703125
-0.0047607421875
0.0172119140625
0.005859375
0.0113525390625
0.0113525390625
0.0205078125
0.01025390625
0.0164794921875
0.0054931640625
0.025634765625
-0.0003662109375
0.0172119140625
0.0040283203125
0.0201416015625
0.0010986328125
0.01611328125
-0.01171875
0.0186767578125
-0.0029296875
0.0150146484375
0.009521484375
-0.0025634765625
0.005859375
0.0128173828125
-0.0029296875
0.0142822265625
-0.02197265625
-0.000732421875
0.0062255859375
0.01904296875
0.0098876953125
0.03662109375
-0.0245361328125
0.000732421875
-0.0113525390625
-0.002197265625
-0.01025390625
0.005126953125
-0.0128173828125
-0.01025390625
-0.005126953125
-0.0062255859375
-0.0029296875
-0.0069580078125
-0.000732421875
0.0076904296875
0.0025634765625
0.0150146484375
0.0003662109375
0.0062255859375
0.0
-0.0018310546875
0.003662109375
-0.0087890625
-0.00439453125
0.0040283203125
-0.0113525390625
-0.0062255859375
-0.00439453125
-0.005126953125
-0.005126953125
-0.0098876953125
-0.0142822265625
-0.005126953125
-0.0040283203125
0.0003662109375
0.0084228515625
-0.006591796875
0.0084228515625
-0.002197265625
0.0018310546875
-0.003662109375
-0.0172119140625
-0.0069580078125
0.0142822265625
0.002197265625
0.015380859375
0.0245361328125
-0.0205078125
-0.0062255859375
-0.00146484375
-0.01171875
0.0018310546875
-0.0106201171875
0.0018310546875
-0.0234375
0.008056640625
-0.0098876953125
0.0040283203125
-0.0087890625
-0.002197265625
0.01904296875
-0.0069580078125
0.008056640625
-0.0047607421875
-0.005859375
-0.0018310546875
-0.0106201171875
0.0032958984375
-0.0135498046875
0.0018310546875
0.0
-0.0047607421875
-0.015380859375
0.0
0.0106201171875
0.0
0.017578125
-0.0032958984375
0.016845703125
0.0029296875
0.0142822265625
0.0098876953125
0.0018310546875
0.013916015625
-0.0018310546875
0.010986328125
-0.0186767578125
-0.0010986328125
-0.0380859375
0.0267333984375
-0.013916015625
0.0205078125
0.0205078125
-0.01611328125
-0.005126953125
-0.0040283203125
-0.0025634765625
0.0062255859375
-0.002197265625
0.008056640625
-0.010986328125
0.0047607421875
-0.0142822265625
0.00439453125
-0.0113525390625
-0.0010986328125
0.0172119140625
-0.013916015625
0.0135498046875
-0.01025390625
0.005859375
0.005859375
-0.0054931640625
0.0084228515625
-0.00439453125
0.0010986328125
0.00146484375
-0.0010986328125
-0.005859375
0.0018310546875
-0.0018310546875
0.0025634765625
-0.01171875
-0.0047607421875
0.00146484375
0.002197265625
-0.0032958984375
0.010986328125
-0.0029296875
0.0040283203125
0.0091552734375
-0.0069580078125
-0.0018310546875
-0.0201416015625
-0.0201416015625
0.0106201171875
0.005859375
0.0047607421875
0.0289306640625
-0.0234375
-0.002197265625
-0.006591796875
0.0047607421875
-0.0054931640625
-0.003662109375
0.0
-0.0172119140625
0.0098876953125
-0.01904296875
0.0120849609375
-0.0135498046875
0.0054931640625
0.0091552734375
-0.00439453125
0.0054931640625
-0.000732421875
0.00146484375
0.0076904296875
-0.0076904296875
0.0128173828125
-0.0032958984375
0.01611328125
-0.0010986328125
0.009521484375
-0.0047607421875
0.0040283203125
-0.01025390625
0.0120849609375
-0.016845703125
0.006591796875
0.005126953125
0.002197265625
0.0113525390625
-0.003662109375
0.02197265625
-0.0150146484375
0.012451171875
-0.0087890625
-0.0062255859375
-0.006591796875
-0.010986328125
0.0245361328125
-0.00146484375
0.0069580078125
0.00732421875
-0.0230712890625
0.000732421875
-0.0069580078125
0.01318359375
-0.0142822265625
0.0040283203125
-0.0135498046875
0.0
-0.003662109375
-0.0098876953125
0.0025634765625
0.0018310546875
0.0018310546875
0.02197265625
-0.0010986328125
0.01025390625
-0.0018310546875
0.013916015625
-0.0040283203125
0.0084228515625
-0.0069580078125
0.0010986328125
-0.0029296875
-0.0084228515625
0.0018310546875
0.00732421875
0.00146484375
0.0054931640625
-0.000732421875
-0.00732421875
-0.0032958984375
-0.005859375
0.0120849609375
-0.0069580078125
0.01318359375
0.0135498046875
-0.0040283203125
0.0076904296875
-0.0029296875
-0.01171875
0.0040283203125
0.0128173828125
0.0333251953125
0.0216064453125
-0.0025634765625
-0.0040283203125
-0.0325927734375
-0.00439453125
-0.003662109375
-0.0084228515625
-0.0047607421875
-0.025634765625
-0.003662109375
-0.016845703125
0.002197265625
0.0032958984375
0.0040283203125
0.029296875
-0.0032958984375
0.025634765625
-0.0025634765625
-0.0047607421875
0.0032958984375
-0.0194091796875
0.00439453125
-0.002197265625
-0.0062255859375
0.005859375
-0.002197265625
-0.01318359375
0.0091552734375
0.0040283203125
0.00439453125
-0.01171875
0.003662109375
-0.0113525390625
-0.000732421875
0.0106201171875
0.0054931640625
0.00439453125
0.008056640625
0.0087890625
-0.00439453125
0.029296875
-0.0076904296875
0.025634765625
0.0186767578125
0.024169921875
0.0325927734375
0.0340576171875
-0.0164794921875
-0.0047607421875
-0.0205078125
-0.010986328125
0.0025634765625
-0.0032958984375
-0.0084228515625
-0.015380859375
-0.0029296875
-0.0179443359375
0.00439453125
-0.0216064453125
0.00439453125
-0.0032958984375
-0.009521484375
-0.0040283203125
-0.012451171875
-0.012451171875
0.000732421875
-0.0205078125
0.0054931640625
-0.021240234375
0.0025634765625
0.0018310546875
-0.0018310546875
-0.00146484375
-0.0040283203125
0.0040283203125
-0.005126953125
-0.0062255859375
-0.009521484375
-0.0076904296875
-0.008056640625
-0.0062255859375
0.0054931640625
-0.0069580078125
0.0040283203125
-0.002197265625
-0.006591796875
-0.037353515625
-0.01318359375
-0.08349609375
0.017578125
-0.0281982421875
0.0186767578125
0.0318603515625
-0.0205078125
-0.0018310546875
-0.01318359375
0.00146484375
0.005859375
-0.0047607421875
0.01171875
-0.0164794921875
0.0106201171875
-0.0164794921875
0.013916015625
-0.01171875
0.005126953125
0.0205078125
-0.0047607421875
0.0146484375
0.0084228515625
0.0113525390625
0.009521484375
0.0120849609375
0.000732421875
0.0054931640625
-0.000732421875
0.0040283203125
0.000732421875
-0.00146484375
0.000732421875
0.01025390625
-0.000732421875
-0.00146484375
-0.0029296875
0.00439453125
0.000732421875
0.017578125
-0.005126953125
0.0234375
-0.016845703125
0.0135498046875
-0.012451171875
-0.01171875
-0.01318359375
-0.008056640625
0.022705078125
0.000732421875
0.0201416015625
0.0194091796875
-0.01171875
0.025634765625
-0.0025634765625
0.0234375
-0.0113525390625
-0.0029296875
-0.010986328125
-0.0150146484375
0.0
-0.0040283203125
0.005126953125
0.0062255859375
-0.006591796875
0.0296630859375
-0.0150146484375
0.024169921875
-0.00146484375
0.018310546875
0.0040283203125
0.0084228515625
0.00146484375
0.003662109375
0.000732421875
-0.002197265625
-0.0018310546875
0.002197265625
-0.000732421875
0.0135498046875
0.0025634765625
-0.0040283203125
0.0003662109375
0.0010986328125
0.0054931640625
-0.000732421875
0.0047607421875
0.006591796875
-0.0087890625
0.009521484375
-0.006591796875
-0.0164794921875
0.000732421875
0.0128173828125
0.0238037109375
0.0047607421875
0.005859375
-0.0245361328125
-0.0164794921875
-0.01171875
-0.002197265625
-0.0062255859375
0.0054931640625
-0.016845703125
0.0091552734375
-0.013916015625
0.002197265625
-0.0113525390625
0.002197265625
0.0091552734375
-0.0040283203125
0.03515625
-0.015380859375
0.006591796875
-0.0087890625
-0.0106201171875
0.00439453125
-0.010986328125
0.0040283203125
0.006591796875
-0.000732421875
0.0069580078125
-0.002197265625
0.01025390625
-0.0029296875
-0.0018310546875
0.0018310546875
-0.03076171875
0.01318359375
-0.024169921875
0.03515625
-0.01611328125
0.0208740234375
0.009521484375
-0.019775390625
0.0084228515625
-0.0120849609375
-0.0091552734375
0.005126953125
0.0194091796875
0.03369140625
0.0087890625
0.0120849609375
-0.0194091796875
-0.0186767578125
-0.0098876953125
-0.005126953125
-0.000732421875
-0.006591796875
-0.0091552734375
0.0
-0.0106201171875
0.0076904296875
-0.0106201171875
0.0032958984375
0.0076904296875
-0.0157470703125
0.0216064453125
-0.0172119140625
0.010986328125
-0.0113525390625
0.002197265625
-0.00146484375
-0.0146484375
0.008056640625
-0.0098876953125
0.006591796875
-0.01318359375
0.009521484375
0.0025634765625
0.0040283203125
0.0062255859375
-0.003662109375
-0.005126953125
-0.01025390625
-0.0062255859375
0.003662109375
-0.0040283203125
0.00439453125
0.0091552734375
-0.0120849609375
0.0003662109375
-0.0076904296875
-0.0032958984375
-0.0128173828125
0.0208740234375
-0.0062255859375
0.0106201171875
0.00439453125
-0.0194091796875
0.0010986328125
-0.0098876953125
-0.0025634765625
-0.0062255859375
-0.0003662109375
-0.016845703125
0.0062255859375
-0.010986328125
0.0106201171875
-0.01318359375
0.013916015625
0.0062255859375
0.0025634765625
0.02197265625
-0.00732421875
0.013916015625
-0.00439453125
0.005126953125
0.0018310546875
-0.003662109375
0.002197265625
0.00146484375
0.0054931640625
-0.0062255859375
0.0087890625
-0.0018310546875
0.009521484375
-0.0069580078125
0.010986328125
0.0032958984375
-0.0040283203125
0.0018310546875
0.0029296875
-0.005859375
-0.0018310546875
0.006591796875
-0.0172119140625
-0.01611328125
0.0062255859375
-0.0322265625
0.0150146484375
0.0018310546875
0.0172119140625
0.0179443359375
0.0025634765625
-0.0054931640625
-0.012451171875
0.0076904296875
-0.00732421875
0.0054931640625
-0.005859375
-0.0047607421875
-0.00146484375
-0.002197265625
-0.000732421875
-0.0047607421875
-0.0032958984375
0.0201416015625
-0.0054931640625
0.0230712890625
-0.00146484375
0.0201416015625
-0.000732421875
0.0106201171875
-0.002197265625
0.0040283203125
0.00146484375
0.00146484375
0.006591796875
-0.005126953125
0.0069580078125
0.0069580078125
-0.002197265625
-0.0025634765625
-0.0113525390625
0.005859375
-0.0091552734375
-0.0003662109375
0.010986328125
0.003662109375
0.0113525390625
0.006591796875
0.0
-0.0106201171875
0.002197265625
-0.018310546875
0.00439453125
0.0106201171875
0.02783203125
0.02490234375
-0.0003662109375
-0.0076904296875
-0.022705078125
0.0018310546875
-0.0010986328125
-0.009521484375
-0.0069580078125
-0.0208740234375
-0.0018310546875
-0.0201416015625
0.0029296875
-0.0234375
-0.0029296875
0.0062255859375
-0.0062255859375
0.0142822265625
-0.0029296875
0.0157470703125
-0.0029296875
0.00439453125
-0.005126953125
-0.0018310546875
-0.00439453125
0.0054931640625
0.0040283203125
-0.00146484375
0.005126953125
-0.0003662109375
0.0
-0.009521484375
0.0003662109375
-0.003662109375
-0.0029296875
-0.0054931640625
0.00732421875
0.0032958984375
0.0047607421875
0.009521484375
-0.0084228515625
0.0
0.003662109375
-0.01171875
0.0062255859375
-0.00146484375
0.0186767578125
0.0087890625
0.005859375
-0.0150146484375
-0.0150146484375
-0.00732421875
0.00146484375
-0.0146484375
0.003662109375
-0.016845703125
0.0040283203125
-0.015380859375
0.005859375
-0.016845703125
0.0018310546875
0.0025634765625
-0.0054931640625
0.01025390625
-0.0040283203125
0.029296875
-0.0025634765625
0.0194091796875
-0.003662109375
-0.0047607421875
0.0
-0.010986328125
0.0018310546875
0.0003662109375
0.0010986328125
0.0076904296875
0.0040283203125
-0.000732421875
0.00439453125
0.0091552734375
0.00146484375
0.003662109375
0.013916015625
0.015380859375
0.01025390625
0.02783203125
-0.008056640625
0.019775390625
-0.005126953125
-0.01025390625
-0.0003662109375
-0.0091552734375
0.0186767578125
-0.00146484375
0.005859375
-0.0179443359375
-0.0186767578125
0.0018310546875
-0.0084228515625
-0.0164794921875
0.005126953125
-0.0076904296875
-0.0010986328125
-0.0032958984375
-0.0084228515625
-0.0238037109375
0.005126953125
-0.009521484375
-0.0003662109375
0.0010986328125
-0.00146484375
0.0047607421875
0.0069580078125
-0.0106201171875
0.000732421875
0.01318359375
-0.0084228515625
0.022705078125
-0.0113525390625
0.00732421875
-0.0069580078125
-0.0069580078125
0.002197265625
-0.019775390625
0.0003662109375
-0.0025634765625
-0.0128173828125
0.000732421875
-0.0029296875
0.01611328125
-0.002197265625
0.01171875
-0.016845703125
0.0098876953125
-0.0128173828125
-0.0054931640625
-0.0076904296875
0.0205078125
0.0084228515625
0.003662109375
0.008056640625
-0.03955078125
-0.00439453125
-0.0025634765625
-0.0047607421875
0.00439453125
-0.01171875
0.010986328125
-0.008056640625
-0.01025390625
0.005126953125
-0.0091552734375
0.0062255859375
0.0
0.00146484375
0.0010986328125
-0.00146484375
0.0084228515625
-0.0032958984375
-0.00732421875
-0.000732421875
-0.000732421875
0.0003662109375
-0.003662109375
0.0003662109375
0.0025634765625
0.00146484375
0.0054931640625
-0.00146484375
-0.0018310546875
-0.0069580078125
0.0029296875
-0.008056640625
0.0069580078125
-0.0069580078125
0.0106201171875
-0.0025634765625
-0.003662109375
0.0003662109375
-0.00146484375
-0.00146484375
-0.029296875
0.02197265625
0.01171875
0.0150146484375
0.0281982421875
-0.0245361328125
-0.01611328125
-0.016845703125
0.003662109375
-0.0029296875
-0.0032958984375
0.00146484375
-0.0040283203125
0.008056640625
-0.009521484375
0.005859375
0.0018310546875
-0.002197265625
0.01904296875
-0.012451171875
0.0157470703125
-0.0076904296875
-0.00146484375
0.002197265625
-0.0128173828125
0.002197265625
-0.0025634765625
0.000732421875
-0.009521484375
0.0018310546875
0.0069580078125
0.006591796875
0.00439453125
0.0054931640625
0.0
-0.0018310546875
-0.0062255859375
0.02197265625
-0.0120849609375
0.0281982421875
0.0047607421875
0.005126953125
0.000732421875
0.000732421875
-0.006591796875
-0.0054931640625
0.000732421875
0.017578125
0.01025390625
0.0091552734375
-0.005126953125
-0.017578125
-0.00146484375
-0.005859375
-0.0029296875
0.0
-0.012451171875
0.0032958984375
-0.010986328125
0.0062255859375
-0.0150146484375
0.0120849609375
0.010986328125
-0.0025634765625
0.0208740234375
-0.01318359375
0.018310546875
-0.003662109375
0.008056640625
0.0
-0.003662109375
-0.0018310546875
-0.00732421875
0.00439453125
-0.0201416015625
0.008056640625
0.0010986328125
-0.00439453125
-0.003662109375
-0.009521484375
-0.0040283203125
0.0
0.0062255859375
0.0062255859375
0.01171875
0.003662109375
0.009521484375
-0.00146484375
0.000732421875
-0.0128173828125
-0.021240234375
0.0113525390625
0.003662109375
0.016845703125
0.0355224609375
-0.0135498046875
0.005126953125
-0.010986328125
0.021240234375
-0.00439453125
0.016845703125
-0.0062255859375
-0.0032958984375
-0.0003662109375
-0.0150146484375
0.0106201171875
-0.018310546875
0.00146484375
0.0146484375
-0.013916015625
0.018310546875
-0.01171875
0.0120849609375
-0.0029296875
0.000732421875
0.002197265625
-0.0128173828125
0.00732421875
-0.0146484375
0.0091552734375
-0.012451171875
0.0032958984375
-0.00439453125
-0.002197265625
-0.0150146484375
-0.0040283203125
-0.0032958984375
0.00732421875
-0.0003662109375
0.015380859375
0.012451171875
-0.0018310546875
0.008056640625
-0.008056640625
-0.0062255859375
-0.0179443359375
0.0062255859375
0.0054931640625
0.0
0.002197265625
0.0032958984375
-0.0252685546875
0.0040283203125
-0.01318359375
0.01318359375
-0.0113525390625
0.0076904296875
-0.0069580078125
0.0
-0.0032958984375
-0.00439453125
0.002197265625
0.0025634765625
-0.000732421875
0.0267333984375
-0.01171875
0.01171875
-0.01611328125
0.0018310546875
-0.0087890625
-0.0069580078125
0.00439453125
-0.0018310546875
0.0062255859375
0.0040283203125
-0.000732421875
0.00146484375
-0.0040283203125
0.0040283203125
-0.01025390625
-0.0087890625
-0.006591796875
-0.0003662109375
0.003662109375
0.0003662109375
0.002197265625
0.0062255859375
-0.0047607421875
0.000732421875
-0.00732421875
-0.019775390625
0.0150146484375
0.010986328125
0.0311279296875
0.01171875
-0.013916015625
-0.013916015625
-0.0238037109375
-0.016845703125
0.0047607421875
-0.009521484375
0.0076904296875
-0.0208740234375
0.0113525390625
-0.012451171875
0.0054931640625
-0.0010986328125
0.0003662109375
0.0087890625
-0.0032958984375
0.0205078125
-0.0047607421875
0.002197265625
-0.0032958984375
0.015380859375
0.0003662109375
0.0146484375
0.0032958984375
0.01611328125
-0.002197265625
0.009521484375
0.0010986328125
0.0054931640625
0.0025634765625
-0.0029296875
0.0010986328125
-0.0106201171875
0.0
0.002197265625
0.0047607421875
-0.0087890625
0.01171875
0.00146484375
0.0003662109375
-0.00146484375
-0.0054931640625
-0.0230712890625
0.0179443359375
0.0098876953125
0.0260009765625
0.0281982421875
-0.015380859375
-0.0010986328125
-0.0216064453125
-0.0164794921875
0.0076904296875
-0.01171875
0.0025634765625
-0.017578125
0.0
-0.0120849609375
0.00732421875
-0.0047607421875
0.00439453125
0.019775390625
-0.009521484375
0.027099609375
-0.010986328125
0.00439453125
0.002197265625
-0.000732421875
0.00439453125
-0.0120849609375
-0.0010986328125
-0.009521484375
0.0040283203125
-0.0062255859375
0.0069580078125
0.0047607421875
0.0032958984375
-0.012451171875
0.005126953125
-0.0208740234375
0.0040283203125
-0.010986328125
0.01318359375
-0.01025390625
0.0098876953125
0.000732421875
-0.000732421875
-0.0010986328125
0.0
-0.00732421875
0.0032958984375
0.031494140625
0.0054931640625
0.0245361328125
0.0
-0.0260009765625
-0.0010986328125
-0.009521484375
-0.0010986328125
0.0010986328125
-0.00439453125
-0.009521484375
-0.0029296875
-0.0106201171875
0.00439453125
-0.0252685546875
0.0120849609375
-0.0029296875
-0.0029296875
0.0194091796875
-0.0157470703125
0.0076904296875
-0.0087890625
0.0
-0.0076904296875
-0.005859375
-0.0032958984375
0.0029296875
0.0018310546875
-0.0029296875
-0.0010986328125
0.0172119140625
-0.010986328125
0.02197265625
-0.015380859375
0.010986328125
-0.010986328125
0.003662109375
0.0040283203125
-0.0032958984375
0.008056640625
-0.0003662109375
-0.0018310546875
-0.0069580078125
0.0
-0.0087890625
-0.0047607421875
0.0091552734375
0.008056640625
0.0113525390625
0.0128173828125
-0.0179443359375
0.0069580078125
-0.003662109375
0.009521484375
0.003662109375
0.0032958984375
-0.0194091796875
0.01171875
-0.02490234375
0.0201416015625
-0.022705078125
0.0135498046875
0.0150146484375
-0.002197265625
0.027099609375
-0.0062255859375
0.009521484375
0.0040283203125
0.00439453125
0.0032958984375
-0.0025634765625
0.0
-0.0047607421875
0.0018310546875
-0.0062255859375
0.000732421875
0.01318359375
-0.01025390625
0.006591796875
-0.008056640625
0.00439453125
-0.00146484375
0.0087890625
0.0018310546875
0.0135498046875
0.0
0.0179443359375
-0.0135498046875
0.012451171875
-0.0172119140625
0.005859375
-0.02197265625
0.0003662109375
0.0087890625
0.01025390625
0.0018310546875
-0.0047607421875
-0.024169921875
-0.005126953125
-0.0018310546875
-0.016845703125
0.0106201171875
-0.0281982421875
0.0150146484375
-0.0194091796875
0.01318359375
-0.02197265625
0.0150146484375
-0.008056640625
0.015380859375
0.0040283203125
0.0091552734375
0.0201416015625
0.0091552734375
0.028564453125
0.0106201171875
0.0355224609375
-0.0032958984375
0.0369873046875
-0.00732421875
0.0340576171875
0.0054931640625
0.0596923828125
-0.005126953125
0.0498046875
-0.0245361328125
0.0087890625
-0.00732421875
-0.019775390625
0.0205078125
0.0113525390625
0.0062255859375
0.057159423828125
-0.0216064453125
0.039215087890625
-0.0263671875
0.0205078125
-0.0355224609375
0.010986328125
-0.0040283203125
0.0252685546875
0.0223388671875
0.0208740234375
-0.00732421875
-0.000732421875
0.0084228515625
-0.03369140625
0.044677734375
-0.071075439453125
0.054931640625
-0.0186767578125
0.010986328125
0.053497314453125
-0.03662109375
0.1014404296875
-0.044677734375
0.101806640625
-0.0450439453125
0.054931640625
-0.027099609375
-0.0179443359375
0.01025390625
-0.0322265625
0.0128173828125
0.008056640625
-0.0260009765625
0.0223388671875
-0.035888671875
0.0025634765625
-0.0157470703125
-0.037353515625
0.0025634765625
-0.0450439453125
-0.01171875
-0.0472412109375
-0.024169921875
-0.0238037109375
-0.0318603515625
-0.027099609375
-0.043212890625
-0.0516357421875
-0.0322265625
-0.062286376953125
-0.0142822265625
-0.070709228515625
0.0135498046875
-0.0260009765625
0.0245361328125
-0.0113525390625
-0.01611328125
-0.0347900390625
-0.0128173828125
-0.0509033203125
0.027099609375
-0.03369140625
0.0172119140625
-0.0355224609375
0.0142822265625
-0.052001953125
0.0263671875
-0.0479736328125
0.0289306640625
-0.0263671875
0.01171875
-0.0069580078125
0.0040283203125
-0.0369873046875
0.0263671875
-0.03369140625
0.03076171875
-0.02197265625
0.01025390625
-0.0135498046875
0.0029296875
-0.012451171875
0.0069580078125
-0.0087890625
0.0069580078125
0.009521484375
-0.01025390625
0.019775390625
-0.0252685546875
0.0230712890625
-0.00732421875
0.003662109375
0.0040283203125
0.00732421875
-0.005126953125
0.0032958984375
-0.018310546875
-0.0091552734375
0.0025634765625
0.041015625
-0.0205078125
0.0531005859375
-0.046142578125
0.028564453125
-0.017578125
0.0340576171875
-0.0142822265625
0.052734375
-0.0318603515625
0.0501708984375
-0.066314697265625
0.046875
-0.078399658203125
0.040283203125
-0.0450439453125
0.0443115234375
0.01611328125
0.0406494140625
0.073638916015625
-0.0018310546875
0.097808837890625
-0.0274658203125
0.099609375
-0.0260009765625
0.085693359375
-0.01611328125
0.07470703125
-0.0450439453125
0.0677490234375
-0.0421142578125
0.0556640625
-0.0263671875
0.02490234375
-0.006591796875
-0.009521484375
0.003662109375
-0.005126953125
-0.0062255859375
0.0032958984375
0.0281982421875
-0.005859375
0.00146484375
-0.017578125
-0.0322265625
-0.0010986328125
0.015380859375
0.000732421875
0.0380859375
-0.0399169921875
0.017578125
-0.03369140625
0.0084228515625
-0.013916015625
-0.01611328125
-0.0164794921875
-0.073974609375
-0.0120849609375
-0.057861328125
-0.01318359375
-0.0252685546875
-0.0252685546875
0.01025390625
-0.022705078125
0.031494140625
-0.0047607421875
0.0260009765625
-0.016845703125
-0.0054931640625
-0.002197265625
-0.0325927734375
0.0146484375
-0.0029296875
-0.00146484375
-0.00732421875
-0.0003662109375
-0.0113525390625
0.013916015625
-0.0289306640625
0.0234375
-0.00439453125
0.008056640625
0.0098876953125
0.008056640625
-0.009521484375
0.0186767578125
-0.01171875
0.0142822265625
-0.02490234375
0.000732421875
-0.01904296875
0.0362548828125
-0.0098876953125
0.030029296875
0.01025390625
-0.0252685546875
-0.0069580078125
-0.0106201171875
-0.02783203125
0.005126953125
-0.0150146484375
-0.0069580078125
-0.0157470703125
-0.00146484375
-0.0040283203125
0.010986328125
0.01904296875
-0.0120849609375
0.0487060546875
-0.021240234375
0.01025390625
0.0054931640625
-0.0164794921875
0.0128173828125
0.0003662109375
-0.002197265625
-0.0069580078125
-0.0003662109375
-0.0040283203125
0.0179443359375
-0.0194091796875
0.02783203125
-0.0054931640625
0.01171875
0.0029296875
-0.0087890625
-0.0029296875
-0.0076904296875
-0.0194091796875
0.010986328125
-0.0179443359375
0.0146484375
0.005859375
-0.0054931640625
0.005126953125
-0.0311279296875
0.017578125
0.008056640625
-0.0106201171875
0.0205078125
0.0087890625
-0.0296630859375
0.01025390625
-0.0157470703125
-0.0205078125
0.0025634765625
-0.02197265625
-0.0010986328125
-0.0205078125
-0.0106201171875
-0.01318359375
-0.006591796875
-0.0146484375
0.0091552734375
0.0260009765625
-0.0128173828125
0.022705078125
-0.0194091796875
0.0087890625
-0.0010986328125
0.009521484375
0.0018310546875
0.0267333984375
-0.0076904296875
0.031494140625
-0.0018310546875
-0.006591796875
0.0076904296875
-0.005126953125
-0.00146484375
0.00146484375
-0.00732421875
0.0
0.0098876953125
0.0128173828125
0.009521484375
0.031494140625
-0.024169921875
0.0040283203125
-0.0040283203125
-0.034423828125
0.0120849609375
0.018310546875
-0.0098876953125
0.013916015625
-0.0032958984375
-0.0040283203125
-0.0076904296875
0.005126953125
-0.0076904296875
0.0146484375
-0.00732421875
0.018310546875
-0.013916015625
-0.0113525390625
-0.00146484375
-0.0186767578125
0.005126953125
-0.00439453125
-0.010986328125
0.019775390625
-0.0135498046875
0.0087890625
0.002197265625
0.0194091796875
0.000732421875
0.0047607421875
0.00439453125
-0.009521484375
0.0010986328125
-0.0369873046875
-0.01025390625
-0.0618896484375
-0.0084228515625
-0.046875
0.003662109375
-0.054931640625
0.0223388671875
-0.01904296875
0.025634765625
-0.0069580078125
0.0054931640625
0.0146484375
-0.00732421875
0.03515625
-0.0010986328125
-0.040679931640625
-0.002197265625
-0.0142822265625
-0.000732421875
0.061920166015625
-0.0062255859375
0.0399169921875
-0.01611328125
-0.0538330078125
-0.0018310546875
-0.046142578125
0.0128173828125
0.0098876953125
0.0091552734375
-0.009521484375
0.0047607421875
-0.027496337890625
0.0098876953125
0.01025390625
-0.01171875
0.074371337890625
-0.016845703125
0.0472412109375
-0.000732421875
0.0260009765625
0.0003662109375
0.0260009765625
-0.003662109375
0.0208740234375
-0.0025634765625
0.01171875
0.005859375
0.015380859375
-0.0142822265625
-0.0047607421875
-0.0186767578125
0.0087890625
-0.017578125
0.0501708984375
-0.009521484375
0.0234375
0.01171875
0.0252685546875
0.0106201171875
0.0556640625
-0.0106201171875
0.0413818359375
-0.0325927734375
0.0494384765625
-0.0260009765625
0.0428466796875
-0.0289306640625
0.0120849609375
-0.0428466796875
0.028228759765625
-0.0574951171875
0.049102783203125
-0.064483642578125
0.029296875
-0.042144775390625
-0.0098876953125
0.000732421875
-0.0194091796875
0.010986328125
-0.029327392578125
0.027496337890625
-0.035552978515625
0.041778564453125
-0.0325927734375
0.0157470703125
-0.0135498046875
0.0146484375
-0.0428466796875
0.064453125
-0.0633544921875
0.085693359375
-0.0377197265625
0.0384521484375
-0.0377197265625
0.0032958984375
-0.03955078125
-0.0018310546875
-0.0179443359375
-0.0018310546875
-0.0040283203125
0.018310546875
-0.0146484375
0.0318603515625
-0.00146484375
0.0128173828125
-0.0040283203125
0.00146484375
-0.0318603515625
0.01318359375
0.0018310546875
0.0450439453125
0.0003662109375
0.0216064453125
-0.02490234375
-0.01171875
0.0010986328125
-0.00439453125
0.0029296875
-0.00439453125
-0.0135498046875
0.0029296875
-0.0216064453125
0.0150146484375
-0.0208740234375
0.016845703125
0.0157470703125
-0.0018310546875
0.0260009765625
-0.01318359375
0.002197265625
-0.0091552734375
-0.0032958984375
-0.0003662109375
-0.00439453125
0.005126953125
0.0098876953125
-0.000732421875
-0.005859375
0.005859375
-0.0062255859375
0.01171875
0.0069580078125
0.0025634765625
0.003662109375
-0.008056640625
-0.0087890625
0.0076904296875
-0.0003662109375
0.0091552734375
0.01904296875
-0.0047607421875
0.0106201171875
0.008056640625
-0.00146484375
0.0098876953125
-0.0054931640625
0.0260009765625
0.0113525390625
-0.0029296875
0.017578125
-0.040283203125
-0.01904296875
-0.0142822265625
-0.0465087890625
-0.003662109375
-0.034423828125
0.0
-0.027099609375
0.0172119140625
-0.0142822265625
0.0076904296875
0.0289306640625
-0.025634765625
0.0406494140625
-0.0274658203125
0.021240234375
-0.00439453125
-0.0029296875
0.006591796875
-0.0106201171875
-0.000732421875
0.01025390625
-0.00732421875
0.00146484375
0.002197265625
-0.008056640625
0.0172119140625
-0.0135498046875
0.0157470703125
0.0084228515625
-0.0135498046875
0.016845703125
-0.0098876953125
-0.0003662109375
0.005126953125
0.0029296875
0.0054931640625
0.005859375
-0.0003662109375
0.0157470703125
-0.0135498046875
-0.01171875
0.0281982421875
0.037353515625
0.0135498046875
0.05419921875
-0.0281982421875
0.008056640625
-0.0208740234375
-0.00439453125
-0.012451171875
-0.0205078125
0.00439453125
-0.0032958984375
0.00439453125
-0.0135498046875
0.013916015625
0.0135498046875
-0.0047607421875
0.027099609375
-0.0245361328125
0.0194091796875
-0.00439453125
0.005126953125
0.0113525390625
-0.0164794921875
0.016845703125
-0.0157470703125
0.0146484375
-0.0146484375
0.0087890625
0.008056640625
0.0003662109375
-0.005126953125
0.009521484375
-0.0062255859375
0.010986328125
-0.010986328125
0.0003662109375
0.0062255859375
-0.0047607421875
0.0355224609375
-0.00732421875
0.0113525390625
-0.003662109375
-0.006591796875
-0.0040283203125
-0.046875
0.0135498046875
0.0106201171875
0.01318359375
0.0362548828125
-0.0164794921875
0.0076904296875
-0.025634765625
0.0150146484375
-0.01318359375
0.0216064453125
-0.0146484375
0.0084228515625
-0.010986328125
-0.0267333984375
-0.0029296875
-0.0128173828125
-0.0120849609375
-0.01025390625
-0.00732421875
0.0186767578125
-0.0106201171875
0.008056640625
-0.016845703125
-0.01171875
-0.0087890625
-0.02197265625
0.0069580078125
-0.025634765625
0.0018310546875
-0.0106201171875
-0.0076904296875
-0.0179443359375
0.0029296875
-0.00732421875
-0.00439453125
-0.01904296875
-0.0135498046875
-0.034423828125
0.0106201171875
-0.0238037109375
0.021240234375
-0.0069580078125
0.0
-0.006591796875
-0.000732421875
-0.0347900390625
0.015380859375
0.017578125
0.0267333984375
0.0238037109375
-0.0084228515625
-0.0054931640625
-0.0238037109375
0.0205078125
-0.006591796875
0.0150146484375
-0.0054931640625
-0.0029296875
0.005126953125
-0.0201416015625
0.0084228515625
-0.02490234375
0.01171875
-0.003662109375
0.005859375
0.0274658203125
0.0
0.0040283203125
0.003662109375
0.0003662109375
0.0054931640625
0.006591796875
-0.0032958984375
0.0010986328125
-0.0054931640625
0.0018310546875
0.0069580078125
-0.0106201171875
0.0150146484375
-0.0054931640625
0.0076904296875
-0.0106201171875
-0.005126953125
-0.0062255859375
0.0018310546875
0.002197265625
0.0054931640625
0.005859375
0.0018310546875
-0.002197265625
0.002197265625
-0.0069580078125
-0.01171875
0.0076904296875
0.0267333984375
0.006591796875
0.0194091796875
0.0106201171875
-0.0208740234375
0.01025390625
-0.0010986328125
0.0062255859375
0.0029296875
-0.015380859375
0.006591796875
-0.0150146484375
0.00732421875
-0.0128173828125
0.0076904296875
-0.0029296875
0.00439453125
0.0201416015625
-0.0032958984375
0.0087890625
-0.0025634765625
0.024169921875
-0.0040283203125
0.017578125
0.0018310546875
0.013916015625
0.0
0.009521484375
-0.0069580078125
-0.0084228515625
0.003662109375
-0.009521484375
0.0062255859375
-0.028564453125
0.0098876953125
-0.0263671875
0.01318359375
-0.005126953125
0.0084228515625
0.0216064453125
0.0010986328125
0.0150146484375
-0.0091552734375
0.0128173828125
-0.0098876953125
-0.019775390625
0.0120849609375
0.008056640625
0.0194091796875
0.022705078125
-0.016845703125
-0.02783203125
-0.0223388671875
0.01318359375
-0.0087890625
0.0142822265625
-0.0054931640625
0.012451171875
-0.002197265625
0.003662109375
-0.00439453125
-0.006591796875
-0.0084228515625
0.0091552734375
-0.0135498046875
0.00439453125
-0.0091552734375
0.005859375
-0.0047607421875
0.0032958984375
-0.00439453125
0.015380859375
-0.005126953125
0.0084228515625
-0.000732421875
0.0010986328125
0.0010986328125
-0.0047607421875
-0.0003662109375
-0.0113525390625
-0.0040283203125
0.0091552734375
-0.01318359375
0.00732421875
0.0054931640625
0.010986328125
0.0142822265625
0.00439453125
0.005126953125
0.0120849609375
-0.0010986328125
-0.0029296875
-0.012451171875
-0.0040283203125
0.0146484375
0.0194091796875
0.0040283203125
-0.0087890625
-0.0208740234375
0.0098876953125
-0.0186767578125
0.017578125
-0.0205078125
0.003662109375
-0.01171875
-0.006591796875
-0.0010986328125
-0.0087890625
0.0054931640625
-0.0076904296875
0.008056640625
-0.006591796875
0.0135498046875
-0.0032958984375
0.0032958984375
-0.01171875
-0.003662109375
0.0047607421875
-0.00146484375
0.0
0.00146484375
0.00439453125
0.0025634765625
0.0091552734375
-0.0018310546875
-0.0047607421875
0.0029296875
-0.019775390625
0.0047607421875
-0.024169921875
0.006591796875
-0.0054931640625
0.012451171875
-0.0018310546875
0.00439453125
0.0113525390625
-0.00439453125
0.0003662109375
-0.013916015625
-0.019775390625
0.01904296875
0.021240234375
0.0157470703125
0.03662109375
-0.022705078125
-0.008056640625
-0.006591796875
-0.0289306640625
0.0084228515625
-0.017578125
0.01171875
-0.021240234375
0.01025390625
0.019775390625
0.0040283203125
0.0340576171875
-0.000732421875
0.0281982421875
-0.0040283203125
0.0479736328125
-0.012451171875
0.0146484375
-0.00732421875
0.0032958984375
-0.0029296875
0.0029296875
-0.00439453125
0.0069580078125
0.0
0.0040283203125
0.00146484375
0.0084228515625
0.0010986328125
-0.0025634765625
0.0025634765625
-0.0157470703125
0.0003662109375
0.0003662109375
0.0076904296875
-0.0106201171875
0.0150146484375
-0.0054931640625
0.003662109375
-0.002197265625
-0.002197265625
-0.0010986328125
-0.006591796875
0.0223388671875
0.0120849609375
0.0179443359375
0.0040283203125
-0.0062255859375
-0.0150146484375
-0.0208740234375
0.0047607421875
-0.0150146484375
0.0084228515625
-0.0146484375
0.0087890625
-0.0146484375
0.0150146484375
-0.013916015625
0.0106201171875
0.006591796875
-0.0087890625
0.031494140625
-0.0245361328125
0.016845703125
-0.015380859375
0.0029296875
-0.0098876953125
-0.005859375
-0.009521484375
-0.000732421875
-0.002197265625
-0.00439453125
0.003662109375
0.012451171875
-0.0029296875
0.012451171875
-0.0106201171875
0.003662109375
-0.00732421875
-0.002197265625
-0.0032958984375
-0.0135498046875
0.0128173828125
-0.0003662109375
0.005859375
-0.0076904296875
-0.000732421875
-0.003662109375
0.00732421875
-0.0106201171875
-0.0062255859375
0.021240234375
-0.0069580078125
0.0106201171875
0.005126953125
-0.0157470703125
-0.0069580078125
-0.0029296875
-0.0069580078125
-0.017578125
0.0076904296875
-0.00439453125
0.006591796875
-0.018310546875
0.0120849609375
-0.012451171875
0.01318359375
0.008056640625
-0.0069580078125
0.0201416015625
-0.0194091796875
0.013916015625
-0.008056640625
0.0003662109375
0.0018310546875
0.0047607421875
0.0069580078125
-0.0040283203125
0.0018310546875
0.0091552734375
-0.009521484375
0.0087890625
-0.009521484375
0.0003662109375
-0.0029296875
0.00146484375
-0.0091552734375
-0.0069580078125
-0.0113525390625
-0.0172119140625
0.0087890625
-0.009521484375
0.000732421875
0.0164794921875
-0.018310546875
0.010986328125
-0.01611328125
-0.0032958984375
-0.00439453125
0.032958984375
0.015380859375
0.0238037109375
-0.006591796875
-0.0205078125
-0.0194091796875
-0.0098876953125
0.0032958984375
-0.00732421875
-0.00146484375
-0.019775390625
-0.0076904296875
-0.016845703125
0.00146484375
-0.0172119140625
0.01171875
0.003662109375
0.00732421875
0.0205078125
-0.000732421875
0.0084228515625
-0.0010986328125
-0.0032958984375
0.000732421875
-0.0128173828125
0.0029296875
-0.0025634765625
0.00146484375
-0.008056640625
-0.002197265625
0.0003662109375
0.00146484375
0.0047607421875
0.0054931640625
0.008056640625
0.0003662109375
0.000732421875
-0.003662109375
-0.0128173828125
0.0172119140625
0.002197265625
0.0186767578125
0.0010986328125
-0.0018310546875
0.005126953125
0.0003662109375
-0.017578125
0.0062255859375
0.0263671875
0.0208740234375
0.0267333984375
-0.005126953125
-0.01318359375
-0.0223388671875
-0.00146484375
0.005126953125
-0.0142822265625
0.00732421875
-0.0142822265625
-0.0010986328125
-0.027099609375
0.003662109375
-0.0069580078125
0.0098876953125
0.0047607421875
0.000732421875
0.0164794921875
-0.005126953125
0.0106201171875
0.0032958984375
0.0
0.003662109375
0.005859375
-0.00732421875
-0.00732421875
-0.005859375
0.0076904296875
-0.0047607421875
0.0062255859375
-0.0076904296875
0.0076904296875
-0.0054931640625
0.0069580078125
0.0032958984375
-0.005859375
0.0069580078125
-0.008056640625
0.0142822265625
-0.008056640625
0.016845703125
0.00146484375
0.005859375
-0.00732421875
0.0032958984375
-0.00439453125
-0.0128173828125
-0.006591796875
0.016845703125
-0.0084228515625
0.02783203125
-0.0084228515625
-0.0018310546875
-0.0113525390625
0.008056640625
0.00146484375
0.0003662109375
-0.003662109375
-0.0069580078125
0.0010986328125
-0.005126953125
-0.00732421875
-0.0029296875
0.0018310546875
-0.00439453125
0.0216064453125
-0.0157470703125
0.015380859375
-0.0106201171875
0.0062255859375
-0.0076904296875
-0.0047607421875
-0.005126953125
-0.0029296875
0.0018310546875
-0.005859375
0.00439453125
0.015380859375
-0.0029296875
0.0106201171875
-0.0087890625
0.0032958984375
-0.00146484375
0.0018310546875
-0.0032958984375
-0.00146484375
-0.0025634765625
0.005859375
0.0018310546875
-0.003662109375
-0.0003662109375
0.005126953125
-0.0029296875
-0.0054931640625
-0.00439453125
-0.016845703125
0.0281982421875
0.0062255859375
0.017578125
0.0146484375
-0.0135498046875
-0.0003662109375
-0.0040283203125
0.0010986328125
-0.00439453125
0.0
0.002197265625
-0.008056640625
0.0003662109375
0.005126953125
-0.0062255859375
0.0120849609375
-0.0157470703125
0.0263671875
-0.022705078125
0.0230712890625
-0.015380859375
0.0029296875
-0.0076904296875
-0.006591796875
0.003662109375
-0.016845703125
0.009521484375
-0.0157470703125
0.005126953125
-0.008056640625
0.000732421875
0.017578125
-0.005126953125
0.009521484375
-0.0069580078125
-0.00146484375
-0.009521484375
-0.002197265625
-0.0054931640625
-0.00439453125
0.0047607421875
0.005126953125
0.0025634765625
0.0029296875
-0.0084228515625
0.0098876953125
-0.015380859375
-0.02490234375
0.0245361328125
-0.009521484375
0.028564453125
0.01025390625
-0.0098876953125
-0.01025390625
-0.003662109375
-0.0040283203125
-0.00146484375
-0.0120849609375
-0.000732421875
-0.005126953125
0.003662109375
-0.01025390625
0.0047607421875
0.0018310546875
-0.0010986328125
0.01318359375
-0.0032958984375
0.0146484375
0.0032958984375
0.0076904296875
0.005126953125
-0.0069580078125
0.0040283203125
-0.0120849609375
0.0
-0.0135498046875
-0.0018310546875
0.00439453125
0.0
-0.0010986328125
0.0062255859375
0.002197265625
0.006591796875
0.0
0.0
-0.0010986328125
-0.005126953125
0.01025390625
0.0084228515625
0.0003662109375
0.0128173828125
0.00439453125
-0.005126953125
0.00146484375
-0.008056640625
-0.01904296875
0.008056640625
0.0208740234375
0.0267333984375
0.0318603515625
-0.01025390625
-0.0135498046875
-0.02490234375
-0.0084228515625
-0.00146484375
-0.0098876953125
-0.0029296875
-0.0157470703125
0.0
-0.0098876953125
0.0029296875
-0.0135498046875
0.008056640625
0.01025390625
-0.0018310546875
0.0186767578125
-0.01025390625
0.009521484375
-0.0098876953125
0.00146484375
-0.0025634765625
-0.0120849609375
0.006591796875
-0.005126953125
0.0047607421875
-0.0113525390625
0.0098876953125
0.005126953125
0.00439453125
0.0054931640625
0.0010986328125
-0.0010986328125
0.0029296875
-0.000732421875
-0.0076904296875
-0.00439453125
0.0003662109375
0.0
0.0084228515625
-0.0076904296875
0.00732421875
0.000732421875
0.0062255859375
-0.0087890625
-0.005859375
0.0032958984375
0.0076904296875
0.0205078125
-0.0018310546875
0.0106201171875
-0.0216064453125
0.002197265625
-0.00732421875
-0.0062255859375
-0.0062255859375
-0.0098876953125
-0.00146484375
-0.016845703125
0.0087890625
-0.0069580078125
0.01025390625
0.0076904296875
-0.00439453125
0.02490234375
-0.0194091796875
0.0120849609375
-0.0091552734375
-0.0069580078125
0.005859375
-0.006591796875
0.0069580078125
-0.00732421875
0.0010986328125
0.008056640625
-0.0032958984375
0.0003662109375
0.003662109375
0.01025390625
-0.0029296875
0.01611328125
-0.0091552734375
0.01611328125
-0.0113525390625
0.013916015625
-0.009521484375
0.0047607421875
0.002197265625
0.021240234375
-0.0135498046875
0.01171875
-0.0234375
0.00732421875
-0.0135498046875
-0.02490234375
0.017578125
0.01611328125
0.027099609375
0.0303955078125
-0.013916015625
-0.01611328125
-0.015380859375
-0.01611328125
0.0029296875
-0.018310546875
-0.0010986328125
-0.0040283203125
-0.0003662109375
-0.0194091796875
0.006591796875
-0.01025390625
0.0113525390625
0.0084228515625
-0.000732421875
0.0179443359375
-0.0087890625
0.0062255859375
-0.00732421875
-0.0029296875
-0.0076904296875
0.0
-0.005859375
-0.0135498046875
-0.0010986328125
-0.00732421875
0.0025634765625
0.000732421875
0.0032958984375
0.016845703125
0.003662109375
0.0047607421875
0.00146484375
-0.0106201171875
-0.00146484375
-0.002197265625
0.00439453125
0.0029296875
0.0025634765625
0.0128173828125
-0.0150146484375
-0.0025634765625
-0.0113525390625
-0.01171875
0.0
0.01904296875
0.01904296875
0.0263671875
0.0054931640625
0.0018310546875
-0.0205078125
-0.000732421875
-0.0054931640625
0.006591796875
-0.0076904296875
-0.0032958984375
-0.0106201171875
-0.005859375
-0.00732421875
0.0
-0.0142822265625
0.02783203125
-0.024169921875
0.0322265625
-0.021240234375
0.0164794921875
-0.0157470703125
0.005126953125
-0.0091552734375
-0.01318359375
0.0018310546875
-0.005859375
-0.0010986328125
-0.00439453125
-0.003662109375
0.0076904296875
-0.003662109375
0.00146484375
-0.000732421875
-0.0025634765625
0.003662109375
-0.0010986328125
-0.00439453125
-0.015380859375
-0.0032958984375
-0.009521484375
0.0150146484375
-0.0025634765625
0.0113525390625
0.0062255859375
0.0
-0.0003662109375
0.002197265625
-0.0205078125
0.009521484375
0.0201416015625
0.0252685546875
0.0260009765625
-0.0025634765625
-0.0245361328125
-0.012451171875
-0.028564453125
0.015380859375
-0.017578125
0.0113525390625
-0.02197265625
0.0098876953125
-0.019775390625
0.01904296875
-0.02783203125
0.018310546875
-0.00732421875
-0.00146484375
0.016845703125
-0.0091552734375
-0.00439453125
0.0062255859375
-0.008056640625
0.006591796875
-0.009521484375
0.00146484375
-0.0084228515625
0.009521484375
-0.0098876953125
0.010986328125
0.008056640625
0.0032958984375
0.0164794921875
-0.0054931640625
0.006591796875
-0.0054931640625
-0.0084228515625
-0.0047607421875
-0.010986328125
-0.01025390625
0.008056640625
-0.0010986328125
-0.0062255859375
0.016845703125
0.0025634765625
0.0106201171875
0.0087890625
-0.0098876953125
-0.0318603515625
0.0186767578125
0.00146484375
0.0296630859375
0.0084228515625
0.0029296875
-0.0318603515625
0.0054931640625
-0.018310546875
0.0047607421875
-0.0084228515625
0.0029296875
-0.013916015625
0.0087890625
-0.01025390625
0.0135498046875
-0.0029296875
0.005859375
0.018310546875
-0.0087890625
0.0296630859375
-0.017578125
0.010986328125
-0.005126953125
0.0003662109375
0.01171875
-0.00732421875
0.010986328125
-0.002197265625
0.0076904296875
-0.010986328125
0.0087890625
-0.00146484375
0.0025634765625
-0.002197265625
-0.00146484375
-0.0040283203125
0.0025634765625
0.0018310546875
-0.005859375
-0.01171875
0.0003662109375
-0.005126953125
0.0106201171875
0.000732421875
0.00146484375
0.0186767578125
-0.00439453125
0.0128173828125
-0.0164794921875
-0.0172119140625
0.0201416015625
0.0106201171875
0.0208740234375
0.0201416015625
-0.0186767578125
-0.0076904296875
-0.0032958984375
-0.0054931640625
-0.0018310546875
0.0029296875
-0.00146484375
-0.01171875
-0.0003662109375
-0.0003662109375
-0.01025390625
0.01171875
-0.0142822265625
0.021240234375
-0.0172119140625
0.0062255859375
-0.0040283203125
-0.0128173828125
0.0113525390625
0.0142822265625
0.0040283203125
0.006591796875
-0.002197265625
0.0084228515625
-0.00146484375
-0.0032958984375
-0.0032958984375
0.0003662109375
-0.0054931640625
-0.0018310546875
0.00732421875
0.0076904296875
-0.012451171875
0.0208740234375
-0.0380859375
-0.0076904296875
0.0018310546875
0.0010986328125
0.0157470703125
0.00146484375
-0.0091552734375
0.009521484375
-0.0076904296875
-0.0091552734375
0.0
0.0172119140625
0.0208740234375
0.0054931640625
0.013916015625
-0.0421142578125
-0.0025634765625
-0.0054931640625
0.0040283203125
-0.008056640625
0.0040283203125
-0.00732421875
0.003662109375
-0.0142822265625
0.0029296875
-0.0245361328125
0.01318359375
-0.0087890625
0.01025390625
-0.0234375
0.037353515625
-0.034423828125
0.0443115234375
0.03076171875
-0.0340576171875
0.062255859375
-0.0545654296875
0.0120849609375
-0.0205078125
0.0018310546875
-0.010986328125
0.0003662109375
-0.0032958984375
0.000732421875
-0.003662109375
0.0040283203125
-0.003662109375
0.0032958984375
-0.008056640625
0.010986328125
-0.01318359375
0.005126953125
0.0032958984375
-0.005859375
0.0135498046875
-0.017578125
0.0047607421875
-0.00146484375
-0.0003662109375
-0.0186767578125
0.0062255859375
0.0205078125
0.022705078125
0.0267333984375
-0.0098876953125
-0.029296875
-0.0260009765625
-0.0003662109375
-0.00146484375
0.00439453125
0.0003662109375
-0.0018310546875
0.0040283203125
-0.01611328125
0.0087890625
-0.02197265625
0.018310546875
-0.0032958984375
0.0113525390625
