-0.179107666015625
0.62371826171875
-0.176910400390625
0.62445068359375
0.005859375
-0.000732421875
0.0076904296875
-0.00732421875
0.0084228515625
-0.015380859375
0.0098876953125
-0.0205078125
0.0084228515625
-0.0179443359375
0.005859375
-0.0025634765625
0.0076904296875
0.017578125
0.00732421875
0.0252685546875
0.0040283203125
0.0172119140625
0.004058837890625
0.0040283203125
0.006256103515625
-0.03369140625
0.0076904296875
-0.06298828125
0.0069580078125
-0.054931640625
0.0069580078125
-0.0443115234375
0.0076904296875
-0.037353515625
0.005859375
-0.0303955078125
0.0047607421875
-0.024169921875
0.0054931640625
-0.019775390625
0.005126953125
-0.0157470703125
0.00439453125
-0.013916015625
0.0047607421875
-0.0098876953125
0.006591796875
-0.0076904296875
0.0062255859375
-0.0047607421875
0.0062255859375
-0.0062255859375
0.003662109375
-0.0069580078125
0.0018310546875
-0.0040283203125
0.017578125
-0.090484619140625
0.0289306640625
0.078369140625
-0.0201416015625
0.126373291015625
-0.03076171875
-0.0538330078125
0.005859375
-0.027099609375
0.0054931640625
-0.0142822265625
0.0040283203125
-0.003662109375
0.0040283203125
-0.0076904296875
0.0062255859375
-0.015045166015625
0.005859375
-0.019073486328125
0.005859375
-0.018310546875
0.005859375
-0.0113525390625
0.0047607421875
0.0113525390625
0.0062255859375
0.030059814453125
0.0029296875
0.028961181640625
-0.00146484375
0.0186767578125
0.0
0.0087890625
0.000732421875
0.0076904296875
0.0010986328125
0.0098876953125
0.002197265625
0.009521484375
0.002197265625
0.0084228515625
0.0010986328125
0.01025390625
0.000732421875
0.01025390625
0.0003662109375
0.010986328125
-0.0018310546875
0.0135498046875
-0.00146484375
0.0128173828125
-0.0025634765625
0.0142822265625
-0.00146484375
0.0091552734375
-0.0025634765625
0.0076904296875
-0.0029296875
0.0091552734375
0.015380859375
-0.0849609375
0.024169921875
0.08935546875
-0.02490234375
0.1446533203125
-0.0333251953125
-0.0435791015625
0.0018310546875
-0.0194091796875
-0.0003662109375
-0.005859375
-0.0010986328125
0.0047607421875
0.000732421875
-0.000732421875
0.002197265625
-0.0084228515625
0.002197265625
-0.015380859375
0.0
-0.0150146484375
-0.000732421875
-0.00146484375
-0.0032958984375
0.022705078125
-0.0029296875
0.0369873046875
-0.002197265625
0.028564453125
-0.003662109375
0.016845703125
-0.0003662109375
0.008056640625
0.000732421875
0.0040283203125
0.0
0.006591796875
-0.0010986328125
0.0087890625
-0.0018310546875
0.00732421875
-0.0010986328125
0.0069580078125
-0.0025634765625
0.0087890625
-0.0025634765625
0.008056640625
0.0
0.0084228515625
0.000732421875
0.006591796875
-0.0010986328125
0.0018310546875
-0.00146484375
0.0025634765625
0.0040283203125
-0.0340576171875
0.0494384765625
-0.0128173828125
-0.017578125
0.08349609375
-0.057861328125
0.054931640625
0.005859375
-0.0234375
0.00146484375
-0.0186767578125
0.0018310546875
-0.0029296875
0.0025634765625
-0.00439453125
0.0032958984375
-0.009521484375
0.0040283203125
-0.018310546875
0.003662109375
-0.02197265625
0.000732421875
-0.0150146484375
-0.0010986328125
0.005859375
0.0003662109375
0.024169921875
0.0
0.0260009765625
-0.0010986328125
0.015380859375
-0.0018310546875
0.005859375
0.000732421875
0.0029296875
0.0003662109375
0.0040283203125
-0.000732421875
0.005859375
0.00146484375
0.006591796875
0.002197265625
0.005126953125
0.0025634765625
0.0029296875
0.0025634765625
0.0032958984375
0.003662109375
0.00439453125
0.0029296875
0.0040283203125
0.002197265625
0.0040283203125
0.0018310546875
0.008056640625
0.0003662109375
0.008056640625
-0.000732421875
0.002197265625
0.0010986328125
0.0010986328125
0.0040283203125
-0.013916015625
0.0498046875
-0.0640869140625
-0.0069580078125
0.064117431640625
-0.0523681640625
0.105865478515625
0.0040283203125
-0.030792236328125
0.0047607421875
-0.027862548828125
0.00439453125
-0.006591796875
0.003662109375
-0.0076904296875
0.0069580078125
-0.013916015625
0.0076904296875
-0.018310546875
0.00439453125
-0.0208740234375
0.0025634765625
-0.016845703125
0.0018310546875
0.0010986328125
0.0040283203125
0.0164794921875
0.0040283203125
0.0194091796875
0.0018310546875
0.0128173828125
0.0025634765625
0.0018310546875
0.0047607421875
-0.0029296875
0.0040283203125
0.000732421875
0.0025634765625
0.00439453125
0.002197265625
0.00732421875
0.00146484375
0.0076904296875
0.002197265625
0.008056640625
0.0018310546875
0.009552001953125
0.0018310546875
0.005889892578125
0.0029296875
0.0047607421875
0.0047607421875
0.0076904296875
0.0047607421875
0.00732421875
0.0018310546875
0.0029296875
0.0010986328125
0.00439453125
0.0018310546875
-0.0047607421875
0.043212890625
-0.079498291015625
-0.0076904296875
0.027099609375
-0.049072265625
0.097442626953125
0.0018310546875
-0.0003662109375
0.0029296875
-0.0003662109375
0.002197265625
0.0003662109375
0.0
0.0003662109375
0.000732421875
-0.0018310546875
0.0018310546875
-0.0106201171875
0.00146484375
-0.01904296875
0.0010986328125
-0.0135498046875
0.00146484375
0.0047607421875
0.0029296875
0.0238037109375
0.002197265625
0.01611328125
-0.0003662109375
0.0003662109375
-0.0018310546875
0.0
-0.0010986328125
0.0
-0.0010986328125
0.0
-0.0003662109375
0.0
0.0
-0.0003662109375
-0.0025634765625
0.0
-0.000732421875
0.0003662109375
0.0003662109375
-0.0003662109375
-0.0018310546875
0.0
-0.002197265625
0.0
-0.00146484375
0.0
-0.00146484375
0.0
-0.0010986328125
0.0
-0.0032958984375
0.0003662109375
-0.0029296875
0.0
0.0164794921875
-0.046173095703125
-0.000732421875
-0.0003662109375
-0.027099609375
0.046173095703125
-0.01025390625
0.0003662109375
0.0003662109375
-0.0003662109375
-0.0003662109375
-0.0003662109375
-0.0010986328125
0.0003662109375
-0.000732421875
0.0003662109375
0.0
-0.0003662109375
0.000732421875
0.0
0.0
0.0
0.0
0.0
0.0
0.0
-0.000732421875
0.0
-0.002197265625
0.0
-0.003662109375
0.0
-0.002197265625
0.0003662109375
-0.0010986328125
-0.0003662109375
-0.00146484375
0.0
-0.0018310546875
0.0
0.000732421875
0.0
0.00146484375
0.0003662109375
0.0003662109375
0.0
0.00146484375
0.0
0.0003662109375
0.0
0.0003662109375
0.0
0.00146484375
0.0
-0.0003662109375
0.0
-0.0025634765625
0.0
-0.0025634765625
-0.0003662109375
0.03662109375
-0.0003662109375
-0.010986328125
0.0
-0.0494384765625
0.0003662109375
0.0
0.0
0.002197265625
-0.0003662109375
0.00146484375
0.0003662109375
0.00146484375
0.0
0.00146484375
0.0
0.0018310546875
0.0003662109375
0.0047607421875
-0.0003662109375
0.005126953125
-0.0003662109375
0.0018310546875
0.0
0.0003662109375
0.0
0.000732421875
0.0
0.000732421875
0.0003662109375
0.00146484375
0.0003662109375
0.0003662109375
0.0
-0.0003662109375
0.0
-0.00146484375
0.0
-0.0025634765625
-0.0003662109375
-0.0029296875
0.0
-0.002197265625
0.0
-0.0025634765625
0.0
-0.0029296875
0.0003662109375
0.0054931640625
0.0
0.053466796875
-0.0003662109375
-0.0164794921875
-0.0003662109375
-0.059326171875
0.0
0.005126953125
0.0
0.002197265625
0.0
0.002197265625
0.0003662109375
0.0032958984375
0.0003662109375
0.005126953125
0.0
0.0054931640625
0.0
0.0054931640625
0.0
0.0029296875
-0.0003662109375
0.0010986328125
0.0
0.002197265625
0.0003662109375
0.00146484375
0.0
0.00146484375
0.0
0.0047607421875
-0.0003662109375
0.005126953125
-0.0003662109375
0.00439453125
0.0003662109375
0.0040283203125
0.0003662109375
0.0032958984375
-0.0003662109375
0.002197265625
-0.0003662109375
0.0018310546875
0.0
0.0018310546875
0.0003662109375
0.0003662109375
0.0
0.000732421875
-0.0003662109375
0.0018310546875
0.0
0.0032958984375
0.0003662109375
0.002197265625
0.0
-0.0003662109375
0.0
-0.0003662109375
0.0
0.0
0.0
0.0003662109375
0.0003662109375
0.0
0.0
0.0010986328125
0.0
0.0
0.0
-0.000732421875
-0.0003662109375
0.0179443359375
0.0
0.0029296875
0.0003662109375
-0.0289306640625
-0.0003662109375
-0.013916015625
0.0
0.0025634765625
0.0003662109375
0.0029296875
0.0
0.0025634765625
-0.0003662109375
0.0032958984375
-0.0003662109375
0.003662109375
0.0003662109375
0.0040283203125
0.0003662109375
0.0029296875
0.0
0.0010986328125
0.0
0.0003662109375
-0.0003662109375
0.00146484375
0.0
0.0010986328125
0.0003662109375
-0.00146484375
-0.0003662109375
-0.002197265625
0.0
-0.0010986328125
0.0
-0.0010986328125
0.0
-0.0018310546875
0.0003662109375
0.0
0.0
-0.0003662109375
-0.0003662109375
-0.00146484375
0.0
0.0003662109375
0.0
0.000732421875
0.0
-0.000732421875
0.0
-0.0003662109375
0.0
-0.0003662109375
0.0003662109375
-0.000732421875
0.0
-0.000732421875
0.0
-0.000732421875
-0.0003662109375
0.0164794921875
0.0
0.0205078125
0.0003662109375
-0.0238037109375
0.0
-0.0267333984375
0.0
0.0025634765625
0.0
0.002197265625
0.0
0.0010986328125
0.0
0.0032958984375
-0.0003662109375
0.005859375
-0.0003662109375
0.005126953125
0.0003662109375
0.003662109375
0.0003662109375
0.0018310546875
0.0
0.0
0.0
0.0010986328125
0.0
0.002197265625
-0.0003662109375
0.0003662109375
0.0
-0.0010986328125
0.0
0.0
0.0
0.000732421875
0.0003662109375
0.0
-0.0003662109375
-0.000732421875
0.0
0.0003662109375
0.0003662109375
-0.0003662109375
-0.0003662109375
-0.0025634765625
0.0
-0.00146484375
0.0003662109375
0.000732421875
0.0
0.0340576171875
-0.0003662109375
-0.0062255859375
0.0
-0.0406494140625
0.0003662109375
0.0
-0.0003662109375
0.0025634765625
0.0
0.00146484375
0.0
0.0003662109375
0.0
0.0003662109375
0.0003662109375
0.0025634765625
-0.0003662109375
0.0025634765625
-0.0003662109375
-0.0003662109375
0.0003662109375
-0.000732421875
0.0
-0.00146484375
0.0
-0.002197265625
0.0003662109375
-0.0029296875
-0.0003662109375
-0.0029296875
0.0
-0.00146484375
0.0003662109375
-0.0018310546875
-0.0003662109375
-0.0018310546875
-0.0003662109375
-0.0003662109375
0.0
-0.0003662109375
0.0003662109375
-0.0025634765625
0.0003662109375
-0.0018310546875
-0.0003662109375
-0.0010986328125
-0.0003662109375
-0.0018310546875
0.0003662109375
-0.000732421875
0.0003662109375
-0.0025634765625
0.0
-0.003662109375
-0.0003662109375
-0.0029296875
-0.0003662109375
-0.002197265625
0.0003662109375
-0.00146484375
0.0003662109375
-0.000732421875
0.0
-0.0010986328125
0.0
0.0
-0.0003662109375
0.000732421875
0.0
-0.0018310546875
0.0003662109375
-0.000732421875
-0.0003662109375
0.0025634765625
-0.0003662109375
0.052001953125
0.0
-0.0128173828125
0.0003662109375
-0.05712890625
0.0
0.0069580078125
0.0
0.0029296875
0.0
0.0018310546875
0.0
0.0025634765625
0.0003662109375
0.0040283203125
0.0
0.002197265625
-0.0003662109375
0.002197265625
-0.0003662109375
0.002197265625
0.0
0.000732421875
0.0003662109375
0.000732421875
0.0003662109375
0.000732421875
0.0
-0.0018310546875
-0.0003662109375
-0.0032958984375
-0.0003662109375
-0.002197265625
0.0003662109375
-0.0025634765625
0.0003662109375
-0.0029296875
0.0
-0.003662109375
0.0
-0.0018310546875
-0.0003662109375
0.0003662109375
0.0
0.0010986328125
0.0003662109375
0.0025634765625
0.0
0.0029296875
0.0
-0.0003662109375
0.0
-0.0003662109375
0.0
0.0120849609375
0.0
0.0516357421875
0.0
-0.016845703125
-0.0003662109375
-0.05419921875
0.0
0.0054931640625
0.0003662109375
0.0029296875
-0.0003662109375
0.0018310546875
0.0
0.0025634765625
0.0003662109375
0.003662109375
0.0
0.0040283203125
-0.0003662109375
0.005126953125
0.0
0.0029296875
0.0003662109375
0.000732421875
-0.0003662109375
0.00146484375
-0.0003662109375
0.000732421875
0.0003662109375
0.0
0.0
0.00146484375
-0.0003662109375
0.002197265625
0.0003662109375
0.002197265625
0.0003662109375
0.003662109375
-0.0003662109375
0.0029296875
-0.0003662109375
0.002197265625
0.0003662109375
0.00146484375
0.0
0.0
0.0
-0.0010986328125
0.0
0.0018310546875
0.0
0.005126953125
0.0003662109375
0.0040283203125
0.0
0.0003662109375
0.0
-0.0025634765625
0.0
0.0113525390625
-0.0003662109375
0.03076171875
0.0
-0.024169921875
0.0003662109375
-0.0413818359375
0.0
0.0025634765625
0.0
0.002197265625
0.0
0.000732421875
-0.0003662109375
0.0010986328125
-0.0003662109375
0.005126953125
0.0003662109375
0.0084228515625
0.0003662109375
0.003662109375
0.0
-0.0010986328125
0.0
-0.0003662109375
-0.0003662109375
0.0010986328125
0.0
0.0010986328125
0.0
-0.0018310546875
-0.0003662109375
-0.0025634765625
0.0003662109375
-0.0025634765625
0.0003662109375
-0.0029296875
0.0
0.0003662109375
0.0
0.0010986328125
0.0
-0.00146484375
0.0
-0.0010986328125
0.0
-0.0003662109375
0.0
-0.0018310546875
0.0
-0.0003662109375
-0.0003662109375
0.0
0.0
-0.002197265625
0.0003662109375
0.0029296875
0.0
0.00439453125
0.0
-0.002197265625
-0.0003662109375
-0.003662109375
0.0
-0.000732421875
0.0003662109375
-0.0003662109375
-0.0003662109375
-0.00146484375
0.0
-0.0032958984375
0.0003662109375
-0.002197265625
-0.0003662109375
0.0303955078125
0.0
-0.009521484375
0.0003662109375
-0.0380859375
0.0
0.00146484375
0.0
0.000732421875
0.0
-0.0025634765625
-0.0003662109375
-0.009521484375
-0.0003662109375
-0.0106201171875
0.0
-0.0029296875
0.0003662109375
0.00439453125
0.0
0.00146484375
-0.0003662109375
-0.0076904296875
0.0003662109375
-0.0113525390625
0.0
-0.0032958984375
0.0
-0.0040283203125
0.0
-0.0164794921875
-0.0003662109375
-0.0201416015625
-0.0003662109375
-0.015380859375
-0.133331298828125
-0.0076904296875
-0.304718017578125
0.015380859375
-0.391876220703125
0.063720703125
-0.51202392578125
0.1259765625
-0.46990966796875
0.123046875
-0.39044189453125
0.081298828125
-0.398101806640625
0.0670166015625
-0.291534423828125
0.0311279296875
-0.105865478515625
-0.0908203125
0.0
-0.13330078125
0.0
-0.0025634765625
0.015380859375
0.199615478515625
0.073638916015625
0.240997314453125
0.134063720703125
0.19189453125
0.0955810546875
0.282379150390625
-0.0274658203125
0.152008056640625
0.132568359375
0.0054931640625
0.272491455078125
0.046142578125
0.127105712890625
0.041748046875
0.078369140625
0.0263671875
0.094482421875
0.01025390625
0.1138916015625
-0.009521484375
0.138824462890625
-0.0223388671875
0.179473876953125
-0.0245361328125
0.176513671875
-0.03515625
0.129669189453125
-0.0428466796875
0.106597900390625
-0.0472412109375
0.090087890625
-0.0556640625
0.076171875
-0.0574951171875
0.0574951171875
-0.073272705078125
0.03369140625
-0.097442626953125
0.012451171875
-0.14794921875
-0.0029296875
-0.1798095703125
-0.0106201171875
-0.314239501953125
-0.052734375
-0.48382568359375
-0.233673095703125
-0.38604736328125
-0.49224853515625
-0.214630126953125
-0.811614990234375
-0.1307373046875
-0.50726318359375
-0.0999755859375
0.0
-0.018310546875
0.0
-0.050537109375
0.0
-0.1351318359375
0.0
0.0457763671875
0.0
0.07470703125
0.0
-0.0245361328125
0.0
0.01318359375
0.0
-0.108428955078125
0.0
-0.122344970703125
0.0
0.0
0.0
0.0
0.0
0.0
0.0
0.0
0.0
0.0
0.0
0.0
0.217559814453125
0.0
0.46405029296875
0.0
0.378326416015625
0.0
0.252349853515625
0.0
0.33770751953125
0.0
0.339508056640625
0.0
0.1875
0.0
0.162994384765625
0.0
0.214630126953125
0.0
0.197021484375
0.153106689453125
0.147979736328125
0.33331298828125
0.083160400390625
0.281280517578125
0.015380859375
0.17431640625
0.0
0.1318359375
0.0003662109375
0.0867919921875
0.0003662109375
0.080596923828125
-0.0003662109375
0.104766845703125
0.0
0.0966796875
0.0003662109375
0.081298828125
0.0
0.065185546875
0.0
0.05419921875
0.0
0.0516357421875
0.0
0.0538330078125
0.0
0.090850830078125
0.0
0.022003173828125
0.0
-0.0303955078125
0.0
0.0146484375
0.0
0.00732421875
0.0
0.005859375
0.0
0.002197265625
0.0
-0.005859375
0.0
-0.045074462890625
0.0
-0.076202392578125
0.0
-0.0618896484375
0.0
-0.04541015625
0.0
-0.038818359375
0.0
-0.052734375
0.0
-0.49224853515625
-0.0003662109375
-0.60504150390625
-0.0003662109375
-0.2314453125
-0.0003662109375
-0.134796142578125
0.0
-0.060821533203125
0.0003662109375
-0.010986328125
-0.0003662109375
0.0
0.0
0.0150146484375
0.0
0.027099609375
0.0
0.028228759765625
0.0003662109375
0.051300048828125
-0.0003662109375
0.07470703125
-0.0003662109375
0.059326171875
0.0003662109375
0.0428466796875
0.0003662109375
0.0560302734375
0.0
0.05859375
0.0
0.0919189453125
0.0
0.08642578125
0.0
0.056427001953125
0.0
0.089019775390625
0.0
0.1259765625
0.0
0.10986328125
0.0
0.052734375
0.0
0.02783203125
0.0
0.017578125
0.0
0.012451171875
0.0
0.0029296875
0.0
0.0040283203125
0.0
0.010986328125
0.0003662109375
0.002197265625
0.0
-0.002197265625
-0.0003662109375
0.0040283203125
0.0
0.0047607421875
0.0
0.0047607421875
0.0003662109375
0.0003662109375
0.0
0.0216064453125
0.0
0.058258056640625
0.0
0.059356689453125
-0.0003662109375
0.0303955078125
0.0003662109375
-0.00732421875
0.0003662109375
-0.02783203125
-0.0003662109375
-0.0263671875
-0.0003662109375
-0.023468017578125
0.0
-0.026031494140625
0.0
-0.02490234375
0.0003662109375
-0.0179443359375
0.0
0.00146484375
-0.0003662109375
0.00439453125
0.0
0.000732421875
0.0
-0.0076904296875
0.0
-0.0135498046875
0.0
-0.019775390625
0.0
-0.019775390625
0.0
-0.0047607421875
0.0
0.0106201171875
0.0
0.0164794921875
0.0003662109375
0.0029296875
0.0
-0.00439453125
-0.0003662109375
0.0
0.0003662109375
0.0054931640625
0.0
0.017578125
0.0
0.0146484375
0.0
0.003662109375
0.0
0.0084228515625
0.0
0.0025634765625
-0.0003662109375
-0.0025634765625
0.0
-0.0032958984375
0.0003662109375
-0.0025634765625
0.0
0.000732421875
0.0
-0.0025634765625
0.0
-0.003662109375
0.0
-0.0003662109375
0.0
0.0010986328125
-0.0003662109375
-0.0018310546875
0.0003662109375
-0.0032958984375
0.0
-0.0010986328125
-0.0003662109375
0.059722900390625
0.0
0.0201416015625
0.0
-0.048736572265625
0.0
-0.01904296875
0.0
-0.0128173828125
0.0
-0.0040283203125
0.0
-0.005126953125
0.0003662109375
-0.0003662109375
0.0003662109375
-0.0010986328125
-0.0003662109375
-0.00732421875
-0.0003662109375
-0.006591796875
0.0003662109375
-0.0054931640625
0.0
-0.00439453125
0.0
-0.0029296875
0.0
-0.005126953125
-0.0003662109375
-0.006591796875
0.0
-0.0010986328125
0.0
-0.0010986328125
0.0
-0.003662109375
0.0
-0.01318359375
0.0
-0.0267333984375
0.0
-0.02197265625
0.0
-0.0032958984375
0.0
0.0076904296875
0.0
0.0069580078125
0.0
0.008056640625
0.0
0.00732421875
0.0
-0.0040283203125
0.0
0.0
0.0
0.013916015625
0.0
0.05126953125
0.0003662109375
0.0263671875
0.0
-0.0322265625
-0.0003662109375
-0.0201416015625
0.0003662109375
-0.006591796875
0.0
0.00146484375
-0.0003662109375
0.0087890625
0.0003662109375
0.0062255859375
0.0
0.0010986328125
-0.0003662109375
0.0
0.0003662109375
-0.0010986328125
0.0
0.0010986328125
-0.0003662109375
0.012451171875
0.0003662109375
0.0120849609375
0.0
0.003662109375
-0.0003662109375
0.0032958984375
0.0
0.0010986328125
0.0
0.0025634765625
0.0
0.0025634765625
0.0003662109375
-0.00146484375
0.0003662109375
0.0029296875
-0.0003662109375
0.0047607421875
-0.0003662109375
0.00146484375
0.0
0.0010986328125
0.0
0.002197265625
0.0
0.067047119140625
0.0003662109375
0.0274658203125
0.0
-0.052764892578125
-0.0003662109375
-0.0252685546875
0.0
-0.0146484375
0.0
-0.008056640625
0.0003662109375
-0.0069580078125
0.0
-0.0054931640625
-0.0003662109375
-0.0040283203125
0.0
-0.003662109375
0.0
-0.0047607421875
0.0
0.0018310546875
0.0003662109375
0.0098876953125
0.0003662109375
0.012451171875
-0.0003662109375
0.009521484375
-0.0003662109375
0.00146484375
0.0
-0.00146484375
0.0003662109375
0.0018310546875
0.0
0.0054931640625
-0.0003662109375
0.0025634765625
0.0
0.0029296875
-0.0054931640625
0.0032958984375
-0.01025390625
-0.0333251953125
-0.0076904296875
-0.0791015625
0.000732421875
-0.0765380859375
0.01025390625
-0.0347900390625
0.009521484375
-0.0150146484375
0.0029296875
-0.0135498046875
-0.000732421875
0.0966796875
-0.0069580078125
0.238067626953125
-0.0216064453125
0.249786376953125
-0.0142822265625
0.208404541015625
0.0062255859375
0.109893798828125
-0.002197265625
-0.0029296875
-0.0091552734375
-0.019073486328125
-0.0106201171875
0.0303955078125
-0.097808837890625
0.059722900390625
0.034423828125
0.0384521484375
0.050537109375
0.03076171875
-0.243927001953125
0.0626220703125
-0.57391357421875
0.0538330078125
-1.0
0.46990966796875
-0.852630615234375
0.423736572265625
-0.0032958984375
-0.56402587890625
0.0
-0.985931396484375
0.0
-0.9302978515625
0.0
-0.47100830078125
0.0
0.0
0.0
0.0
0.0
0.075469970703125
0.0
0.280914306640625
0.0
0.347198486328125
0.064483642578125
0.271392822265625
0.38677978515625
0.282379150390625
0.394805908203125
0.249053955078125
0.2109375
0.1658935546875
0.265899658203125
0.127105712890625
0.253082275390625
0.114654541015625
0.214996337890625
0.0985107421875
0.198150634765625
0.0966796875
0.197021484375
0.12158203125
0.244659423828125
0.104400634765625
0.264434814453125
0.058990478515625
0.206207275390625
0.0318603515625
0.098175048828125
0.0029296875
0.0
0.0406494140625
-0.0003662109375
0.0142822265625
-0.0003662109375
-0.0604248046875
0.0
-0.048736572265625
0.0
-0.029327392578125
0.0
-0.013916015625
0.0
-0.0443115234375
0.0
-0.0523681640625
0.0
-0.0274658203125
0.0
-0.0311279296875
0.0
-0.01904296875
0.0
-0.0479736328125
0.0003662109375
-0.0787353515625
0.0
-0.0662841796875
-0.0003662109375
-0.054931640625
0.0003662109375
-0.0560302734375
0.0
-0.060455322265625
-0.0003662109375
-0.045074462890625
0.0
-0.0457763671875
0.0
-0.035888671875
0.0
-0.046142578125
0.0
-0.0618896484375
0.0
-0.064453125
0.0
-0.05126953125
0.0
-0.002197265625
0.0
0.0205078125
0.0
0.0135498046875
0.0
0.050537109375
0.0
0.072509765625
0.0
0.0194091796875
0.0
-0.0054931640625
0.0
0.008056640625
0.0
0.00732421875
0.0
0.034423828125
-0.0003662109375
0.062255859375
0.0
0.037353515625
0.0003662109375
-0.025634765625
0.0
-0.0501708984375
0.0
-0.0120849609375
-0.0003662109375
-0.0479736328125
0.0
-0.085693359375
0.0003662109375
-0.0545654296875
-0.0003662109375
-0.031494140625
-0.0003662109375
-0.03369140625
0.0003662109375
-0.04541015625
0.0
-0.027099609375
0.0
-0.0194091796875
0.0
-0.0380859375
-0.0003662109375
-0.034423828125
0.0
-0.027130126953125
0.0
-0.019073486328125
0.0003662109375
0.0
-0.038482666015625
0.012115478515625
-0.223052978515625
-0.018310546875
-0.405792236328125
-0.042510986328125
-0.40399169921875
-0.02783203125
-0.298858642578125
-0.019775390625
-0.198486328125
-0.009521484375
-0.078369140625
-0.009521484375
-0.017578125
0.061920166015625
0.062255859375
0.03076171875
0.167724609375
-0.081695556640625
0.154937744140625
-0.0589599609375
0.106964111328125
-0.0223388671875
0.0926513671875
-0.0091552734375
0.0966796875
-0.00732421875
0.09521484375
-0.0047607421875
0.076904296875
0.0084228515625
0.02783203125
0.012451171875
0.0142822265625
0.002197265625
0.01171875
-0.0010986328125
0.0252685546875
0.0069580078125
0.056396484375
0.0091552734375
0.060089111328125
0.0179443359375
0.049835205078125
0.021240234375
0.044677734375
0.005126953125
0.035888671875
-0.00732421875
0.032958984375
-0.0087890625
0.035888671875
0.00439453125
0.027099609375
-0.0025634765625
0.01611328125
-0.006591796875
0.018310546875
-0.0032958984375
0.0172119140625
0.0084228515625
0.0120849609375
0.0238037109375
0.012451171875
0.0135498046875
0.0084228515625
0.0025634765625
0.0025634765625
-0.00146484375
0.0010986328125
0.00732421875
-0.0728759765625
0.0333251953125
0.0633544921875
0.02490234375
0.1083984375
-0.02197265625
-0.038818359375
-0.0164794921875
-0.019775390625
0.0062255859375
-0.01025390625
0.0069580078125
-0.005126953125
0.00732421875
-0.0084228515625
0.006591796875
-0.01318359375
0.012451171875
-0.0172119140625
0.01318359375
-0.0113525390625
0.008056640625
-0.0054931640625
0.008056640625
0.00732421875
0.013946533203125
0.0157470703125
0.017974853515625
0.008056640625
0.0113525390625
0.002197265625
0.0062255859375
-0.002197265625
0.003662109375
-0.00732421875
0.0032958984375
-0.009521484375
0.0040283203125
-0.0062255859375
-0.0010986328125
-0.005859375
0.0091552734375
0.0018310546875
0.0142822265625
0.01025390625
0.0047607421875
-0.0032958984375
0.0172119140625
-0.019775390625
0.031494140625
-0.0281982421875
0.0303955078125
-0.0347900390625
0.01611328125
-0.0303955078125
0.0047607421875
-0.02197265625
0.0150146484375
-0.102203369140625
0.02490234375
0.0289306640625
0.0040283203125
0.094512939453125
-0.0274658203125
-0.054931640625
-0.0281982421875
-0.05126953125
-0.0091552734375
-0.0523681640625
0.008056640625
-0.055694580078125
0.0062255859375
-0.068145751953125
-0.0010986328125
-0.0673828125
-0.0091552734375
-0.034423828125
-0.0087890625
-0.02783203125
-0.0025634765625
-0.0186767578125
-0.0032958984375
0.02197265625
-0.0003662109375
0.0369873046875
-0.0025634765625
0.025634765625
0.0025634765625
0.0263671875
0.006591796875
-0.005859375
0.003662109375
-0.017578125
0.002197265625
0.0010986328125
0.000732421875
-0.00146484375
0.0172119140625
-0.0772705078125
0.0157470703125
0.0618896484375
-0.01025390625
0.149444580078125
-0.024169921875
0.015777587890625
-0.02197265625
-0.006622314453125
-0.0098876953125
-0.018341064453125
-0.0062255859375
-0.0084228515625
-0.0018310546875
-0.01318359375
0.0029296875
-0.015380859375
0.0025634765625
-0.005859375
0.0032958984375
-0.0032958984375
0.0029296875
0.00732421875
0.0062255859375
0.018310546875
0.0084228515625
0.012451171875
0.0054931640625
0.0076904296875
0.008056640625
0.002197265625
-0.0018310546875
0.0025634765625
-0.0098876953125
0.008087158203125
-0.0047607421875
0.007354736328125
-0.008056640625
0.00732421875
-0.009521484375
0.0087890625
-0.0091552734375
0.01171875
-0.0106201171875
0.016845703125
-0.010986328125
0.0128173828125
-0.01171875
0.015380859375
-0.005126953125
0.01025390625
-0.0029296875
0.0032958984375
-0.003662109375
0.005126953125
0.000732421875
0.00439453125
0.0003662109375
0.00732421875
-0.003662109375
0.0010986328125
-0.0003662109375
-0.000732421875
0.0025634765625
-0.0003662109375
-0.000732421875
-0.0029296875
0.000732421875
-0.0003662109375
0.00146484375
-0.024169921875
0.0567626953125
-0.040283203125
0.009521484375
0.04833984375
-0.06005859375
0.08349609375
-0.01904296875
0.0047607421875
-0.008056640625
-0.0194091796875
0.0025634765625
-0.0128173828125
0.0062255859375
-0.010986328125
0.0047607421875
-0.0084228515625
-0.0018310546875
-0.0172119140625
-0.0032958984375
-0.027099609375
0.003662109375
-0.0252685546875
-0.005126953125
-0.0106201171875
-0.0025634765625
0.0091552734375
0.0010986328125
0.0205078125
-0.0010986328125
0.01025390625
0.002197265625
-0.0025634765625
-0.002197265625
-0.002197265625
-0.0040283203125
0.003662109375
-0.005126953125
0.0047607421875
-0.0040283203125
0.005126953125
0.000732421875
0.006591796875
-0.000732421875
0.005859375
-0.00146484375
0.0018310546875
0.00146484375
0.00146484375
0.003662109375
0.0032958984375
0.0032958984375
0.0025634765625
0.0128173828125
0.0018310546875
0.0322265625
0.003662109375
0.0509033203125
0.00439453125
0.0216064453125
-0.002197265625
-0.0164794921875
0.000732421875
-0.01318359375
0.0032958984375
-0.012451171875
-0.069610595703125
0.005126953125
0.0531005859375
-0.005126953125
0.102569580078125
-0.0303955078125
-0.0289306640625
-0.01318359375
-0.0194091796875
-0.005126953125
-0.010986328125
-0.00439453125
0.0
0.002197265625
-0.0025634765625
-0.0025634765625
-0.0120849609375
-0.0032958984375
-0.018310546875
-0.0047607421875
-0.0186767578125
-0.005859375
-0.0216064453125
-0.0025634765625
-0.003662109375
-0.00146484375
0.0172119140625
-0.0018310546875
0.0157470703125
-0.0087890625
0.009521484375
-0.01171875
0.005859375
-0.0047607421875
0.0018310546875
-0.000732421875
-0.0018310546875
-0.0032958984375
-0.002197265625
-0.0032958984375
-0.003662109375
0.000732421875
-0.0032958984375
0.0
-0.006591796875
-0.00146484375
-0.0032958984375
-0.0018310546875
0.0025634765625
-0.002197265625
0.0029296875
-0.000732421875
-0.0040283203125
-0.005126953125
-0.0054931640625
-0.00146484375
-0.0010986328125
0.00732421875
-0.071441650390625
0.03662109375
0.03369140625
0.005859375
0.098907470703125
-0.042144775390625
0.00146484375
-0.0142822265625
-0.0047607421875
0.002227783203125
-0.0106201171875
0.0032958984375
-0.0054931640625
0.00439453125
-0.01025390625
0.002197265625
-0.0135498046875
0.0040283203125
-0.01904296875
0.0029296875
-0.016845703125
0.0003662109375
-0.0120849609375
0.005859375
0.0029296875
0.009521484375
0.016845703125
0.002197265625
0.012451171875
-0.0029296875
0.0029296875
-0.0032958984375
-0.000732421875
-0.002197265625
0.00146484375
0.0025634765625
-0.002197265625
-0.0040283203125
-0.003662109375
-0.0069580078125
0.0
-0.0010986328125
0.0003662109375
-0.0003662109375
-0.0010986328125
-0.0018310546875
0.0003662109375
-0.0047607421875
0.0010986328125
0.0010986328125
-0.000732421875
0.0018310546875
0.0
-0.0047607421875
-0.0047607421875
-0.0010986328125
-0.006591796875
-0.003662109375
-0.030029296875
0.0479736328125
-0.074371337890625
0.00732421875
0.0377197265625
-0.056793212890625
0.105499267578125
-0.016510009765625
0.0003662109375
-0.0047607421875
-0.0230712890625
-0.00146484375
-0.005126953125
-0.0010986328125
-0.009521484375
-0.0029296875
-0.0150146484375
0.0018310546875
-0.02197265625
0.0054931640625
-0.0238037109375
0.0
-0.0186767578125
0.0018310546875
-0.0029296875
0.003662109375
0.0135498046875
0.000732421875
0.012451171875
-0.002197265625
0.00439453125
0.0
-0.01171875
0.003662109375
-0.021270751953125
0.000732421875
-0.013946533203125
-0.000732421875
-0.0098876953125
0.0032958984375
-0.008056640625
0.003662109375
-0.0062255859375
0.0010986328125
-0.0069580078125
0.003326416015625
-0.0062255859375
0.005889892578125
-0.0029296875
0.0025634765625
0.008056640625
-0.0029296875
0.009521484375
-0.0040283203125
0.000732421875
0.0
-0.0040283203125
0.0142822265625
-0.0823974609375
0.0029296875
0.064849853515625
-0.01318359375
0.115753173828125
-0.008453369140625
-0.048736572265625
-0.003692626953125
-0.023468017578125
0.000732421875
-0.0029296875
0.001129150390625
-0.0040283203125
0.000732421875
-0.01025390625
0.0032958984375
-0.01171875
0.004058837890625
-0.013916015625
0.002197265625
-0.0150146484375
0.0040283203125
-0.0025634765625
0.0010986328125
0.0164794921875
0.002197265625
0.024169921875
0.003662109375
0.016845703125
0.0
0.009552001953125
0.0010986328125
0.004425048828125
0.00146484375
0.002197265625
0.0003662109375
0.003662109375
0.0
0.000732421875
-0.0010986328125
-0.0032958984375
0.0018310546875
0.0
0.002197265625
0.003662109375
0.003662109375
0.0029296875
0.003662109375
-0.0047607421875
0.0029296875
-0.013580322265625
-0.0003662109375
-0.007354736328125
-0.0025634765625
-0.00146484375
0.0054931640625
-0.0648193359375
0.0322265625
0.045074462890625
0.000732421875
0.090484619140625
-0.0333251953125
-0.016845703125
-0.009521484375
-0.0113525390625
-0.000732421875
-0.0157470703125
0.0062255859375
-0.0069580078125
0.000732421875
-0.009185791015625
-0.0047607421875
-0.013214111328125
0.000732421875
-0.016845703125
-0.00146484375
-0.018310546875
-0.000732421875
-0.01171875
0.005126953125
0.0062255859375
0.005126953125
0.016845703125
0.002197265625
0.0128173828125
0.00146484375
0.003662109375
0.0010986328125
-0.0010986328125
-0.002197265625
0.0
0.0
-0.0010986328125
0.0025634765625
-0.0003662109375
-0.0029296875
0.0010986328125
0.0047607421875
-0.0010986328125
0.010986328125
-0.000732421875
0.0054931640625
0.0
0.0032958984375
0.0018310546875
0.0010986328125
0.005126953125
-0.0003662109375
0.00146484375
-0.0003662109375
-0.0047607421875
-0.0018310546875
-0.00146484375
-0.0018310546875
-0.01025390625
0.0399169921875
-0.085693359375
0.0098876953125
0.037750244140625
-0.041015625
0.128204345703125
-0.016845703125
-0.005126953125
-0.0032958984375
-0.029296875
0.000732421875
-0.012481689453125
0.002197265625
-0.011749267578125
0.0087890625
-0.013916015625
0.0128173828125
-0.0230712890625
0.0128173828125
-0.0325927734375
0.0069580078125
-0.0208740234375
0.005126953125
-0.0025634765625
0.0054931640625
0.0216064453125
0.0040283203125
0.041748046875
-0.0010986328125
0.043243408203125
-0.0062255859375
0.042144775390625
-0.0076904296875
0.038818359375
-0.01171875
0.030029296875
-0.0069580078125
0.0157470703125
0.01611328125
-0.085723876953125
0.003662109375
0.024169921875
-0.01611328125
0.078765869140625
-0.017578125
-0.08349609375
0.849700927734375
-1.0
0.864349365234375
-1.0
-1.0
1.0
-1.0
1.0
-0.163726806640625
0.2197265625
0.0399169921875
-0.0179443359375
0.0487060546875
-0.05859375
0.094146728515625
-0.1146240234375
0.123443603515625
-0.270660400390625
0.076904296875
-0.45745849609375
0.03515625
-0.59588623046875
0.03515625
-0.80169677734375
0.035888671875
-0.52740478515625
-0.0849609375
-0.058624267578125
-0.1248779296875
0.0
-0.0743408203125
0.0
-0.36700439453125
0.0
-0.32049560546875
0.0
-0.000732421875
0.0
0.0
0.0
0.0
0.0
0.0
0.0
0.0
0.0
0.034454345703125
0.0
0.0003662109375
0.0
-0.034454345703125
0.0
-0.0003662109375
0.0
0.123077392578125
0.0
0.191925048828125
0.0
0.0908203125
0.0
0.05712890625
0.0
0.191925048828125
0.0
0.277618408203125
0.0
0.085693359375
0.0
0.0040283203125
0.086456298828125
0.071044921875
0.230743408203125
0.0384521484375
0.68304443359375
0.015380859375
0.59844970703125
0.086456298828125
0.242828369140625
0.083526611328125
0.210235595703125
-0.0347900390625
0.012451171875
-0.059356689453125
0.11279296875
-0.028228759765625
0.283477783203125
0.039215087890625
0.275054931640625
0.063385009765625
0.191192626953125
0.0384521484375
0.071807861328125
-0.01318359375
0.0
-0.0501708984375
0.0
-0.0172119140625
0.0
-0.091217041015625
0.0
-0.098541259765625
0.0
-0.021240234375
0.0003662109375
-0.0205078125
-0.0003662109375
0.0003662109375
0.0
0.022705078125
0.0
0.0216064453125
-0.0003662109375
0.0076904296875
0.0
0.0311279296875
0.0
0.006591796875
0.0
-0.0435791015625
0.0
-0.015380859375
0.0
0.00146484375
0.0
-0.01904296875
0.0
-0.043212890625
0.0
0.0457763671875
0.0
0.03662109375
0.0
-0.08642578125
0.0
-0.02197265625
0.0
-0.01025390625
0.0
-0.059326171875
0.0
-0.0457763671875
0.0
-0.040283203125
0.0
-0.0263671875
0.0003662109375
-0.028564453125
0.0
0.00146484375
-0.0003662109375
0.0380859375
0.0
0.057861328125
0.0003662109375
0.05126953125
0.0
0.028564453125
-0.0003662109375
0.04248046875
0.0003662109375
0.01318359375
0.0
-0.0234375
-0.0003662109375
-0.00439453125
0.0
0.005859375
0.0003662109375
0.0113525390625
0.0
0.0091552734375
-0.0003662109375
0.0069580078125
0.0
-0.0318603515625
0.0
-0.0318603515625
0.0
0.0098876953125
0.0
-0.0003662109375
0.0
0.0010986328125
0.0
0.0545654296875
0.0
0.06884765625
0.0
-0.0084228515625
0.0
-0.052734375
0.0
-0.0263671875
0.0003662109375
0.003662109375
0.0
0.01318359375
-0.0003662109375
0.0054931640625
0.0
0.002197265625
0.0
0.0062255859375
0.0
0.0029296875
0.0
0.00439453125
0.0
0.0208740234375
0.0003662109375
0.028564453125
0.0
0.0347900390625
0.0
0.117218017578125
0.0003662109375
0.010986328125
-0.0003662109375
-0.131134033203125
-0.0003662109375
-0.05712890625
0.0
0.0146484375
-0.022705078125
0.04248046875
-0.073272705078125
0.024169921875
-0.090118408203125
0.0106201171875
-0.1109619140625
0.0347900390625
-0.1322021484375
0.0172119140625
-0.1307373046875
-0.0384521484375
-0.168853759765625
-0.0120849609375
-0.234771728515625
0.017578125
-0.257110595703125
0.0142822265625
-0.341339111328125
0.114288330078125
-0.457794189453125
0.100738525390625
-0.36407470703125
-0.035888671875
-0.182769775390625
0.05419921875
-0.243927001953125
0.10693359375
-0.187530517578125
0.1431884765625
0.0
0.228179931640625
0.0
0.176544189453125
0.0
0.0498046875
0.0
-0.10693359375
0.0
-0.224517822265625
0.0
-0.314605712890625
0.0
-0.205810546875
0.0
-0.056427001953125
0.0
-0.016876220703125
0.0
0.130035400390625
0.0
0.138824462890625
0.0
0.05126953125
0.0
0.0289306640625
0.0
-0.0670166015625
0.0
-0.10400390625
0.0
0.035888671875
0.0
-0.00439453125
0.0
-0.1124267578125
0.082061767578125
-0.083160400390625
0.283111572265625
-0.026031494140625
0.332916259765625
0.094146728515625
0.300689697265625
0.100738525390625
0.316802978515625
0.085693359375
0.198516845703125
0.1494140625
0.216461181640625
0.029296875
0.303619384765625
-0.078369140625
0.2080078125
-0.0234375
0.204376220703125
-0.146484375
0.34283447265625
-0.184967041015625
0.209136962890625
-0.024200439453125
0.0
-0.044677734375
-0.0003662109375
-0.106201171875
0.0003662109375
-0.0750732421875
0.0
-0.040283203125
-0.0003662109375
0.0216064453125
0.0
0.0164794921875
0.0
-0.0274658203125
0.0
0.0010986328125
0.0
0.0234375
0.0
0.06005859375
0.0
0.123046875
0.0
0.136260986328125
0.0
0.080230712890625
0.0003662109375
0.0040283203125
0.0
-0.0003662109375
-0.0003662109375
0.0
0.0003662109375
-0.029296875
0.0
-0.0494384765625
-0.0003662109375
0.0098876953125
0.0
-0.620452880859375
-0.0003662109375
-0.651214599609375
0.0
0.0
0.0003662109375
-0.0003662109375
-0.0003662109375
0.0
0.0
0.0
0.0003662109375
0.0
0.0
0.0
-0.0003662109375
0.0
-0.0003662109375
0.0
0.0003662109375
0.0
0.0
0.0245361328125
0.0
0.085723876953125
0.0003662109375
0.104034423828125
-0.0003662109375
0.104736328125
0.0
0.0538330078125
0.0003662109375
-0.0087890625
0.0
0.0010986328125
0.0
-0.0032958984375
0.0
-0.010986328125
0.0
0.016845703125
-0.0003662109375
0.0205078125
0.0
0.0040283203125
0.0003662109375
0.018310546875
0.0
0.0194091796875
0.0
0.0289306640625
0.0
0.0384521484375
0.0
0.028564453125
0.0
0.0303955078125
0.0
0.0234375
0.0
0.078765869140625
0.0
0.165557861328125
0.0
-0.0003662109375
0.0
-0.1292724609375
0.0
-0.0340576171875
0.0
0.0135498046875
0.0
0.01318359375
0.0
0.017578125
0.0
0.0106201171875
0.0
0.0010986328125
0.0
0.0106201171875
0.0
0.0216064453125
0.0
0.0380859375
0.0
0.0406494140625
0.0
0.0289306640625
0.0003662109375
0.006591796875
0.0
0.0003662109375
-0.0003662109375
0.0040283203125
0.0
0.008056640625
0.0
0.01904296875
0.0003662109375
0.010986328125
0.0
0.0172119140625
-0.0003662109375
0.0135498046875
0.0
-0.00146484375
0.0
0.0062255859375
0.0
0.0069580078125
0.0
0.01611328125
0.0
0.0289306640625
0.0
0.01318359375
0.0
0.012451171875
0.0
0.008056640625
0.0
0.0010986328125
0.0
0.016845703125
0.0
0.01025390625
0.0
0.005859375
0.0
-0.028564453125
0.0
0.101104736328125
0.0
0.144317626953125
0.0
-0.080230712890625
0.0003662109375
-0.109161376953125
0.0
-0.019775390625
-0.0003662109375
0.009521484375
0.0
0.00732421875
0.0
-0.01611328125
0.0003662109375
-0.010986328125
0.0
-0.0128173828125
-0.0003662109375
-0.0047607421875
0.0
0.01318359375
0.0
0.0223388671875
0.0
0.02783203125
0.0
0.00732421875
0.0
-0.005126953125
0.0
-0.0164794921875
0.0
-0.0069580078125
0.0003662109375
0.0091552734375
0.0
0.009521484375
-0.0003662109375
0.006591796875
0.0
0.0054931640625
0.0003662109375
0.0076904296875
0.0
0.0025634765625
0.0
-0.01171875
0.0
-0.015380859375
-0.0003662109375
0.0
0.0
0.010986328125
0.0
0.012451171875
0.0
0.010986328125
0.0
0.0087890625
0.0003662109375
0.010986328125
0.0
0.0186767578125
0.0
0.107696533203125
0.0003662109375
0.023101806640625
-0.0003662109375
-0.117950439453125
-0.0003662109375
-0.032989501953125
0.0
0.0010986328125
0.0
-0.003662109375
0.0
0.0281982421875
0.0
0.00439453125
0.0
-0.0238037109375
0.0003662109375
-0.005126953125
0.0
-0.005859375
0.0
0.008056640625
0.0
0.039947509765625
-0.0003662109375
0.0150146484375
0.0003662109375
-0.021270751953125
0.0
-0.0164794921875
-0.003662109375
-0.0018310546875
-0.012451171875
-0.0087890625
-0.018310546875
0.018310546875
-0.021240234375
0.0274658203125
-0.023834228515625
0.046905517578125
-0.027496337890625
0.078765869140625
-0.028564453125
0.0574951171875
-0.02783203125
0.018310546875
-0.035888671875
-0.012451171875
-0.038818359375
-0.003662109375
-0.044677734375
0.08203125
-0.1241455078125
0.0941162109375
-0.04541015625
-0.053466796875
0.093017578125
-0.0992431640625
0.0135498046875
-0.038818359375
-0.041748046875
0.00146484375
-0.0296630859375
-0.00439453125
-0.03076171875
-0.013916015625
-0.0333251953125
-0.012451171875
-0.0355224609375
-0.009521484375
-0.03662109375
0.0
-0.03662109375
0.005859375
-0.0260009765625
0.0120849609375
-0.0113525390625
0.0135498046875
-0.0032958984375
0.0029296875
-0.003662109375
-0.0098876953125
-0.002197265625
-0.000732421875
-0.004425048828125
0.0128173828125
-0.008819580078125
-0.0150146484375
-0.0029296875
-0.0692138671875
0.003662109375
-0.0589599609375
0.011383056640625
-0.0091552734375
0.010650634765625
0.00732421875
0.0084228515625
-0.000732421875
0.0142822265625
-0.0054931640625
0.0157470703125
-0.0029296875
0.01025390625
-0.000732421875
0.0025634765625
0.0054931640625
0.0003662109375
0.00146484375
0.005126953125
0.0025634765625
0.0106201171875
0.005859375
0.010986328125
0.0047607421875
0.053466796875
0.000732421875
0.104736328125
-0.00439453125
0.095947265625
-0.002197265625
0.053466796875
0.0018310546875
0.041748046875
-0.0062255859375
0.035888671875
0.0684814453125
-0.0897216796875
0.09521484375
-0.0091552734375
-0.04541015625
0.148712158203125
-0.109893798828125
0.0384521484375
-0.055328369140625
-0.032989501953125
-0.0098876953125
-0.0223388671875
-0.00439453125
-0.0245361328125
-0.0128173828125
-0.03076171875
-0.0120849609375
-0.0347900390625
-0.012451171875
-0.030029296875
-0.00732421875
-0.0274658203125
-0.0010986328125
-0.0245361328125
0.0084228515625
-0.0146484375
0.0205078125
-0.0076904296875
0.0076904296875
-0.01025390625
-0.0054931640625
-0.013916015625
-0.0087890625
-0.0120849609375
-0.0069580078125
-0.0128173828125
-0.003662109375
-0.0164794921875
-0.0018310546875
-0.0172119140625
-0.0076904296875
-0.01318359375
-0.005126953125
-0.0128173828125
0.005126953125
-0.015380859375
0.0003662109375
-0.0106201171875
-0.0010986328125
-0.006591796875
0.0040283203125
-0.0087890625
0.0018310546875
-0.0113525390625
0.002197265625
-0.009521484375
0.0062255859375
-0.0029296875
-0.0062255859375
-0.0084228515625
-0.008056640625
-0.0142822265625
-0.0076904296875
-0.008056640625
-0.0164794921875
-0.022705078125
0.095245361328125
-0.0501708984375
0.106597900390625
0.009521484375
-0.065582275390625
0.072509765625
-0.098907470703125
0.01611328125
-0.0260009765625
-0.0245361328125
-0.0029296875
-0.0142822265625
-0.0142822265625
-0.0150146484375
-0.003662109375
-0.0172119140625
0.0003662109375
-0.0205078125
-0.0076904296875
-0.0260009765625
-0.000732421875
-0.025665283203125
0.0091552734375
-0.013580322265625
0.01171875
0.0029296875
0.013916015625
0.0087890625
0.015380859375
0.006256103515625
0.0029296875
0.002960205078125
-0.0018310546875
-0.002960205078125
-0.0003662109375
-0.007354736328125
-0.002197265625
-0.0047607421875
0.0032958984375
-0.0032958984375
0.0003662109375
0.0
-0.0010986328125
0.003662109375
0.005859375
0.0025634765625
0.0054931640625
0.0029296875
-0.000732421875
0.0010986328125
-0.0018310546875
-0.0032958984375
0.0032958984375
-0.01171875
0.0076904296875
-0.0128173828125
0.005859375
-0.010986328125
-0.0135498046875
-0.0531005859375
0.063751220703125
-0.0106201171875
0.092315673828125
0.0465087890625
-0.053131103515625
0.0157470703125
-0.071441650390625
-0.0113525390625
-0.0106201171875
-0.0234375
-0.0084228515625
-0.016845703125
-0.002197265625
-0.016845703125
-0.0029296875
-0.0164794921875
-0.006591796875
-0.0205078125
-0.0032958984375
-0.0223388671875
-0.0076904296875
-0.0106201171875
0.0054931640625
0.006591796875
0.030029296875
0.01171875
0.0106201171875
0.0087890625
-0.000732421875
0.002197265625
0.002197265625
-0.002197265625
-0.0047607421875
-0.003662109375
-0.0018310546875
-0.0054931640625
0.0025634765625
-0.00439453125
0.0087890625
-0.00146484375
0.005126953125
-0.003662109375
-0.0018310546875
-0.006591796875
0.0029296875
-0.005859375
0.0029296875
-0.0069580078125
0.000732421875
-0.006591796875
0.003662109375
-0.0069580078125
0.000732421875
-0.005859375
0.008453369140625
-0.01025390625
0.0032958984375
-0.0113525390625
-0.003692626953125
-0.0120849609375
0.052764892578125
-0.1087646484375
0.102935791015625
-0.0230712890625
-0.0076904296875
0.1373291015625
-0.101806640625
0.0413818359375
-0.045074462890625
-0.0281982421875
-0.004791259765625
-0.01318359375
-0.0047607421875
-0.0098876953125
-0.0113525390625
-0.0146484375
-0.006591796875
-0.01904296875
-0.010986328125
-0.019775390625
-0.0128173828125
-0.0186767578125
0.0018310546875
-0.0087890625
0.0216064453125
0.00439453125
0.02197265625
0.0076904296875
0.0054931640625
0.0025634765625
0.006988525390625
0.0025634765625
0.000762939453125
0.0018310546875
-0.005889892578125
-0.002197265625
-0.007720947265625
0.0003662109375
0.0
-0.00146484375
0.0054931640625
-0.002197265625
0.012115478515625
0.0
0.005889892578125
-0.0003662109375
-0.000732421875
0.0
0.00146484375
0.0010986328125
-0.005126953125
0.00732421875
0.0087890625
0.0084228515625
0.006591796875
0.008056640625
0.000732421875
-0.000732421875
0.0047607421875
-0.0054931640625
0.0054931640625
-0.005859375
0.02783203125
-0.084228515625
0.088623046875
-0.0084228515625
0.01611328125
0.1146240234375
-0.0875244140625
0.0263671875
-0.0435791015625
-0.0238037109375
-0.01318359375
-0.00732421875
-0.01611328125
-0.00732421875
-0.011016845703125
-0.0098876953125
-0.006622314453125
-0.01318359375
-0.0062255859375
-0.015380859375
-0.0084228515625
-0.0098876953125
-0.0003662109375
0.0018310546875
0.01318359375
0.0135498046875
0.029327392578125
0.0128173828125
0.080596923828125
-0.010986328125
0.0589599609375
-0.0318603515625
0.260040283203125
-0.04833984375
0.338043212890625
-0.07763671875
0.100341796875
-0.121978759765625
0.0582275390625
-0.183135986328125
0.0450439453125
-0.351959228515625
0.0186767578125
-0.57464599609375
0.0758056640625
-0.48382568359375
0.125274658203125
-0.153472900390625
0.041412353515625
0.0
-0.291534423828125
0.0
-0.37872314453125
0.0
0.006591796875
0.0
0.168121337890625
0.0
0.0743408203125
0.0
-0.114288330078125
0.0
-0.0816650390625
0.0
0.026397705078125
0.0
-0.158599853515625
0.0
-0.188995361328125
0.0
-0.0706787109375
0.0
-0.01171875
0.0
0.07470703125
0.0
0.164794921875
0.0
0.120147705078125
0.0
-0.1080322265625
0.0
-0.31939697265625
0.0
-0.316802978515625
0.0
-0.024169921875
0.0
0.167022705078125
0.0
-0.0018310546875
0.0
-0.139923095703125
0.0
-0.1160888671875
0.0
-0.02783203125
0.0
0.0377197265625
0.0
0.0567626953125
0.0
0.0692138671875
0.0
0.0516357421875
0.0
-0.0391845703125
0.0
-0.0208740234375
0.0
-0.0369873046875
0.0
-0.1124267578125
0.0
-0.0849609375
0.0
-0.0941162109375
0.0
-0.0322265625
0.0
-0.016510009765625
0.0
-0.081695556640625
0.0
0.208770751953125
0.0
0.272857666015625
0.0
-0.0208740234375
0.0
0.01611328125
0.0
0.052734375
0.0
-0.0238037109375
0.0
0.0032958984375
0.0
-0.0216064453125
0.0
-0.0582275390625
0.0
-0.047607421875
0.0
-0.0194091796875
0.0040283203125
0.028564453125
0.177276611328125
0.01318359375
0.32598876953125
-0.0245361328125
0.45892333984375
-0.041015625
0.482696533203125
-0.0413818359375
0.306549072265625
0.009521484375
0.238800048828125
0.0919189453125
0.2032470703125
0.059326171875
0.163360595703125
-0.0076904296875
0.145416259765625
0.0205078125
0.144287109375
-0.0029296875
0.087158203125
-0.0146484375
0.040283203125
-0.01318359375
0.0556640625
-0.0904541015625
0.0648193359375
-0.0966796875
0.064483642578125
-0.115386962890625
0.034820556640625
-0.145050048828125
0.0003662109375
-0.1051025390625
0.0
-0.2138671875
-0.00732421875
-0.211334228515625
-0.49261474609375
-0.040313720703125
-1.0
-0.0029296875
-1.0
0.0
-0.290069580078125
0.0
0.0
0.178009033203125
0.0
0.34283447265625
0.0
0.360382080078125
0.0
0.271026611328125
0.0
0.135894775390625
0.0
0.1541748046875
0.0
0.1988525390625
0.0
0.265533447265625
0.0
0.273590087890625
0.0
0.383087158203125
0.0
0.089752197265625
0.0
-0.1490478515625
0.0
-0.0531005859375
0.0
0.002197265625
0.0
-0.35015869140625
0.0
-0.48052978515625
0.0
-0.006591796875
0.0
0.119415283203125
0.0
0.143218994140625
0.0
0.053466796875
0.0
0.1439208984375
0.0
0.0589599609375
0.0
-0.138427734375
0.0
0.0040283203125
0.0
0.0333251953125
0.0
0.00732421875
0.0
0.0135498046875
0.0
-0.076171875
0.0
-0.07763671875
0.0
0.0040283203125
0.0
0.0208740234375
0.0
0.04248046875
0.0
0.0263671875
0.0
0.01611328125
0.0
0.021240234375
0.0
0.0135498046875
0.0
-0.0025634765625
0.0
-0.05419921875
0.0
-0.052734375
0.0
-0.0428466796875
0.0
-0.0150146484375
0.0
0.028564453125
0.0
0.064453125
0.0
0.041748046875
0.0
-0.0018310546875
0.0
-0.0098876953125
0.0
-0.00146484375
0.0
-0.0047607421875
0.0
-0.0347900390625
0.0
-0.07177734375
0.0
-0.0633544921875
0.0
0.00146484375
0.0
-0.019073486328125
0.0
-0.02197265625
0.0
0.00439453125
0.0
-0.046905517578125
0.0
0.122344970703125
0.0
0.117950439453125
0.0
-0.135162353515625
0.0
-0.101837158203125
0.0
0.00439453125
0.0
-0.0032958984375
0.0
-0.0040283203125
0.0
0.0120849609375
0.0
-0.0142822265625
0.0
0.0040283203125
0.0
0.0128173828125
0.0
-0.0018310546875
0.0
0.01025390625
0.0
0.023101806640625
0.0
-0.02783203125
0.0
-0.020172119140625
0.0
-0.0003662109375
0.0
-0.034423828125
0.0
-0.0157470703125
0.0
-0.0054931640625
0.012451171875
-0.0406494140625
0.098541259765625
-0.0516357421875
0.157501220703125
-0.012451171875
0.1259765625
-0.017578125
0.09814453125
-0.03369140625
0.08056640625
-0.00439453125
0.071807861328125
0.0494384765625
0.061553955078125
0.0721435546875
0.0494384765625
0.0274658203125
0.0406494140625
-0.0245361328125
0.0355224609375
-0.0303955078125
0.0091552734375
0.128570556640625
-0.0615234375
0.175811767578125
0.0413818359375
-0.083526611328125
0.1534423828125
-0.108428955078125
0.0560302734375
0.024169921875
0.003662109375
-0.0032958984375
0.0135498046875
-0.0146484375
0.0113525390625
0.0018310546875
0.01171875
-0.0377197265625
0.01171875
-0.0142822265625
0.005859375
0.0025634765625
0.00732421875
0.00146484375
0.0164794921875
0.019775390625
0.0201416015625
-0.01318359375
0.0172119140625
0.01171875
0.0120849609375
-0.0084228515625
0.008056640625
0.031158447265625
0.0069580078125
0.071441650390625
0.005126953125
0.010986328125
0.0040283203125
0.0311279296875
-0.00146484375
0.08935546875
-0.008056640625
0.091552734375
-0.0098876953125
0.1142578125
-0.002197265625
0.200347900390625
0.0032958984375
0.162994384765625
-0.027099609375
0.192626953125
-0.060791015625
0.134033203125
0.0205078125
-0.1739501953125
0.085357666015625
-0.1475830078125
0.0186767578125
-0.059326171875
-0.011749267578125
-0.131500244140625
0.000732421875
-0.050201416015625
-0.0029296875
-0.0238037109375
-0.0040283203125
0.065216064453125
-0.0040283203125
0.098175048828125
-0.003662109375
-0.030792236328125
0.00439453125
0.0091552734375
0.017578125
0.086822509765625
0.023101806640625
-0.0135498046875
0.021270751953125
0.0054931640625
0.018310546875
-0.018310546875
0.009521484375
-0.0208740234375
0.0054931640625
0.0260009765625
0.01025390625
-0.0322265625
0.0084228515625
-0.102935791015625
0.0054931640625
-0.118316650390625
0.0106201171875
-0.0150146484375
0.0106201171875
-0.068115234375
0.008056640625
-0.0611572265625
0.00439453125
-0.0146484375
0.002197265625
-0.0263671875
0.0032958984375
-0.034423828125
0.0029296875
-0.0267333984375
0.0084228515625
-0.03369140625
0.0128173828125
-0.201080322265625
0.0142822265625
-0.171783447265625
0.0216064453125
-0.176177978515625
0.02197265625
-0.240264892578125
0.024169921875
-0.1483154296875
0.040283203125
-0.0904541015625
-0.136993408203125
0.078369140625
-0.245758056640625
0.191925048828125
-0.345001220703125
-0.046875
-0.283843994140625
-0.34393310546875
0.152008056640625
-0.230377197265625
0.142486572265625
-0.1636962890625
-0.40179443359375
-0.251617431640625
-0.36920166015625
-0.124542236328125
0.0
0.0
0.0
0.0
0.0
0.0
0.0
0.0
0.0
0.0
0.53619384765625
0.0
1.0
0.0
0.739837646484375
0.254180908203125
-0.321929931640625
0.32965087890625
-0.57977294921875
0.104766845703125
-0.53546142578125
0.05126953125
-0.47943115234375
0.041015625
-0.405792236328125
0.0472412109375
-0.216827392578125
0.059326171875
-0.043975830078125
0.0955810546875
0.0
0.05859375
0.0
0.0439453125
0.0
0.0538330078125
0.0
-0.052734375
0.0
-0.0501708984375
0.0
0.03515625
0.0
0.0736083984375
0.0
0.027099609375
0.0
-0.065185546875
0.0
0.156768798828125
0.0
0.261138916015625
0.0
-0.0040283203125
0.0
-0.088623046875
0.0
-0.0362548828125
0.0
-0.0260009765625
0.0
-0.0146484375
0.0
-0.00732421875
0.0
0.000732421875
0.0
0.0230712890625
0.0
-0.015380859375
0.0
-0.0472412109375
0.0
-0.0289306640625
0.0
-0.053863525390625
0.0
-0.061920166015625
0.0
-0.00146484375
0.0
-0.01025390625
0.0
-0.0443115234375
0.0
-0.075439453125
0.0
-0.0692138671875
0.0
-0.043212890625
0.0
-0.018310546875
0.0
0.030029296875
0.0
0.037353515625
0.0
-0.0113525390625
0.0
0.130035400390625
0.0
0.177276611328125
0.0
-0.082427978515625
0.0
-0.127838134765625
0.0
-0.008056640625
0.0
0.00732421875
0.0
0.024169921875
0.0
0.037353515625
0.0
-0.0699462890625
0.0
-0.0494384765625
0.0
-0.00146484375
0.0
-0.0267333984375
0.0
0.0450439453125
0.0
0.07470703125
0.0
-0.0128173828125
0.0
0.01904296875
0.0
0.040283203125
0.0
-0.046875
0.0
-0.008056640625
0.0
0.0355224609375
0.0
0.0194091796875
0.0
-0.0003662109375
0.0
0.015380859375
0.0
0.0205078125
0.0
-0.005859375
0.013916015625
0.033721923828125
0.029296875
0.006591796875
0.027862548828125
-0.013214111328125
0.027130126953125
0.047271728515625
0.0289306640625
0.035552978515625
0.0263671875
-0.0135498046875
0.0260009765625
-0.0150146484375
0.0263671875
0.00732421875
0.0238037109375
0.0076904296875
0.025634765625
0.032958984375
0.0208740234375
0.0230712890625
0.0179443359375
0.0025634765625
0.01904296875
-0.0494384765625
-0.0531005859375
0.1351318359375
0.003662109375
0.08935546875
0.132568359375
-0.125244140625
0.0648193359375
-0.0216064453125
0.0142822265625
-0.000732421875
0.0318603515625
0.0201416015625
0.024169921875
-0.005859375
0.016845703125
-0.01904296875
0.0164794921875
0.0003662109375
0.015380859375
-0.0157470703125
0.012451171875
-0.00732421875
0.0146484375
-0.003662109375
0.017578125
0.0076904296875
0.020538330078125
0.035888671875
0.017974853515625
0.002197265625
0.017578125
-0.032958984375
0.0208740234375
0.0135498046875
0.0179443359375
0.003662109375
0.0164794921875
-0.0047607421875
0.01611328125
0.0201416015625
0.01611328125
0.0047607421875
0.0157470703125
-0.0025634765625
0.0157470703125
-0.0098876953125
0.016845703125
0.024169921875
0.015380859375
0.002197265625
0.01611328125
-0.028564453125
0.016845703125
-0.0025634765625
0.017578125
-0.016845703125
0.0128173828125
0.000732421875
0.0135498046875
0.01025390625
0.0091552734375
0.0347900390625
-0.0926513671875
0.1812744140625
-0.0208740234375
0.0289306640625
0.146484375
-0.150146484375
0.0732421875
-0.0523681640625
0.003662109375
0.0032958984375
0.0135498046875
0.00732421875
0.0135498046875
0.01611328125
0.0091552734375
-0.021240234375
0.00439453125
-0.06591796875
0.003662109375
-0.03369140625
0.0113525390625
0.0234375
0.0238037109375
0.264801025390625
0.028564453125
0.358184814453125
0.03369140625
-0.199981689453125
0.029296875
0.45965576171875
0.027130126953125
0.791473388671875
0.015045166015625
-0.0003662109375
-0.053497314453125
-0.156402587890625
-0.56585693359375
0.0
-0.56842041015625
0.156402587890625
-0.053497314453125
0.0
0.0
0.0003662109375
0.0
0.0
0.0
-0.0003662109375
0.0
0.0
0.0
0.0
0.0
0.0
0.0
-0.44720458984375
0.0
-0.57208251953125
0.38531494140625
-0.0472412109375
1.0
0.1702880859375
1.0
0.066650390625
0.0003662109375
0.117218017578125
-0.098907470703125
0.136260986328125
-0.35198974609375
0.0479736328125
-0.205078125
0.087890625
0.148345947265625
-0.0106201171875
0.0538330078125
-0.0545654296875
-0.0908203125
-0.0457763671875
-0.076202392578125
-0.0494384765625
-0.094146728515625
-0.013916015625
-0.138427734375
-0.046539306640625
-0.1453857421875
-0.055694580078125
-0.1219482421875
-0.049072265625
-0.098541259765625
-0.0274658203125
-0.113922119140625
-0.0135498046875
-0.1307373046875
-0.03662109375
-0.1256103515625
0.008056640625
-0.1168212890625
-0.0157470703125
-0.108795166015625
-0.0333251953125
-0.104034423828125
-0.041015625
-0.0919189453125
-0.0498046875
-0.0853271484375
-0.0369873046875
-0.076904296875
-0.0552978515625
-0.064453125
-0.0369873046875
-0.054931640625
-0.00146484375
-0.0413818359375
-0.0084228515625
-0.038482666015625
-0.069976806640625
-0.042510986328125
-0.054962158203125
-0.0406494140625
-0.0076904296875
-0.038818359375
-0.0274658203125
-0.038818359375
0.026031494140625
-0.1160888671875
0.112457275390625
-0.05419921875
-0.015411376953125
0.0882568359375
-0.078399658203125
0.02783203125
0.0098876953125
-0.02783203125
-0.016845703125
-0.018310546875
-0.0113525390625
-0.01904296875
0.0208740234375
-0.01318359375
-0.0234375
-0.0087890625
-0.0150146484375
-0.008056640625
-0.0662841796875
-0.00732421875
-0.128173828125
-0.00732421875
-0.336212158203125
-0.00439453125
-0.301055908203125
-0.0029296875
-0.167755126953125
0.0018310546875
-0.42303466796875
0.0157470703125
-0.283477783203125
0.02197265625
-0.016845703125
0.0157470703125
0.0
0.012451171875
0.0
0.013916015625
1.0
0.0230712890625
0.9969482421875
0.02783203125
-0.0963134765625
0.0281982421875
0.243194580078125
0.0380859375
0.49627685546875
0.0150146484375
0.254180908203125
-0.01611328125
0.0252685546875
-0.032958984375
0.0
-0.0772705078125
-0.0003662109375
-0.094482421875
0.0
-0.0384521484375
0.0
-0.049072265625
0.0
-0.126007080078125
0.0
-0.074005126953125
0.0
0.0
0.0
0.0
0.0
0.0
0.0
0.0
0.0
0.0
0.0
0.0
0.0
0.0
0.0
0.0
0.0
0.0
0.0
0.0
-0.0003662109375
0.0
-0.044708251953125
0.0
-0.096343994140625
0.0
-0.072509765625
0.0
-0.060791015625
0.0
-0.08349609375
0.0
-0.114990234375
0.0
-0.120513916015625
0.0
-0.107696533203125
0.0
-0.06591796875
0.0
-0.04833984375
0.0
-0.060791015625
0.0
-0.0457763671875
0.006591796875
-0.0498046875
0.0333251953125
-0.04541015625
0.093048095703125
-0.0062255859375
0.110626220703125
-0.0413818359375
0.0908203125
-0.053466796875
0.0743408203125
-0.0010986328125
0.0589599609375
-0.03076171875
0.0523681640625
-0.0252685546875
-0.0472412109375
0.113525390625
0.0062255859375
0.012451171875
0.165557861328125
-0.125244140625
0.098907470703125
-0.037750244140625
0.0164794921875
-0.024932861328125
0.0238037109375
-0.0146484375
0.0289306640625
-0.0318603515625
0.0252685546875
-0.04541015625
0.0179443359375
0.0157470703125
0.0087890625
0.00146484375
0.005859375
-0.03955078125
0.0087890625
0.0
0.01171875
0.003662109375
0.0106201171875
-0.025634765625
0.0091552734375
-0.015380859375
0.0087890625
-0.0025634765625
0.0087890625
-0.0029296875
0.01171875
0.0263671875
0.010986328125
0.0362548828125
0.0054931640625
-0.16552734375
-0.0047607421875
-0.1973876953125
-0.006591796875
-0.0318603515625
-0.0025634765625
0.0574951171875
0.000732421875
0.1204833984375
0.00439453125
0.064453125
0.0054931640625
0.035888671875
0.008056640625
0.0428466796875
0.0098876953125
-0.0238037109375
0.0084228515625
-0.100341796875
0.009521484375
-0.0743408203125
0.0128173828125
-0.05126953125
-0.03955078125
0.1494140625
-0.041015625
0.08056640625
0.05419921875
-0.125244140625
0.064453125
-0.015380859375
0.0146484375
0.0201416015625
-0.00146484375
-0.013916015625
0.002197265625
-0.1058349609375
0.00439453125
-0.116485595703125
-0.00146484375
-0.042510986328125
-0.0029296875
0.021270751953125
-0.005126953125
0.113555908203125
-0.006591796875
0.24169921875
0.00146484375
0.235137939453125
0.00439453125
0.136627197265625
0.041015625
0.098876953125
0.073974609375
0.064453125
0.058624267578125
0.0977783203125
0.039215087890625
0.278350830078125
0.0205078125
0.324859619140625
0.0120849609375
0.038818359375
0.012451171875
-0.2545166015625
0.009521484375
-0.0355224609375
0.005859375
0.1988525390625
0.0029296875
0.135894775390625
0.0029296875
0.097076416015625
0.0018310546875
0.0267333984375
0.000732421875
-0.150177001953125
0.00439453125
-0.263336181640625
-0.003662109375
-0.169219970703125
-0.012451171875
-0.0509033203125
-0.0494384765625
-0.0556640625
-0.144317626953125
-0.074371337890625
-0.091949462890625
-0.0831298828125
0.0596923828125
-0.1629638671875
0.0457763671875
-0.173248291015625
-0.022705078125
-0.110260009765625
-0.0311279296875
-0.063720703125
-0.02197265625
-0.0699462890625
-0.016845703125
-0.0355224609375
-0.0234375
-0.019775390625
0.0
-0.0457763671875
0.03369140625
-0.046875
0.028564453125
-0.006591796875
0.019775390625
0.018310546875
0.016845703125
-0.01025390625
0.018310546875
-0.0223388671875
0.02490234375
0.0010986328125
0.045440673828125
-0.0047607421875
0.049835205078125
-0.0164794921875
0.0369873046875
-0.0010986328125
0.0347900390625
0.0032958984375
0.0296630859375
-0.0106201171875
0.0267333984375
-0.016845703125
0.0289306640625
-0.0230712890625
0.0380859375
-0.01611328125
0.0406494140625
-0.0062255859375
0.0369873046875
-0.0040283203125
0.032958984375
0.0113525390625
0.0230712890625
0.0062255859375
0.0098876953125
0.0003662109375
0.005859375
0.00439453125
0.0040283203125
0.0318603515625
-0.073974609375
0.054931640625
-0.0267333984375
-0.0003662109375
0.1094970703125
-0.0509033203125
0.052734375
-0.03955078125
-0.00732421875
-0.0087890625
0.0
0.0003662109375
-0.0010986328125
0.0025634765625
0.002197265625
0.0069580078125
0.0076904296875
0.03076171875
0.0069580078125
0.064453125
-0.00146484375
0.06298828125
-0.00439453125
0.0692138671875
0.000732421875
0.0853271484375
-0.0010986328125
0.0780029296875
-0.0091552734375
0.0465087890625
0.0010986328125
0.046173095703125
0.008056640625
0.122711181640625
0.0029296875
0.1761474609375
-0.002197265625
0.1270751953125
-0.0029296875
0.0677490234375
-0.00732421875
0.048004150390625
-0.01171875
0.026397705078125
-0.008056640625
0.0025634765625
-0.005126953125
-0.008087158203125
-0.005859375
-0.021270751953125
-0.003662109375
-0.03369140625
-0.00439453125
-0.046142578125
-0.0146484375
-0.0684814453125
-0.0260009765625
-0.07763671875
-0.018310546875
-0.0706787109375
-0.0098876953125
-0.0662841796875
-0.0765380859375
-0.07177734375
-0.0428466796875
-0.118682861328125
0.0904541015625
-0.137725830078125
0.05712890625
-0.08056640625
-0.0142822265625
-0.03369140625
-0.0172119140625
-0.024169921875
-0.0179443359375
-0.03515625
-0.013916015625
-0.0322265625
-0.0164794921875
-0.02783203125
-0.0179443359375
-0.01904296875
-0.01611328125
-0.00732421875
-0.0179443359375
-0.0029296875
-0.0128173828125
0.0098876953125
-0.008056640625
0.005859375
0.0047607421875
-0.005859375
0.0146484375
0.0391845703125
0.01025390625
0.0531005859375
0.0076904296875
0.00732421875
0.0040283203125
-0.0084228515625
0.00146484375
-0.02490234375
0.0032958984375
-0.032958984375
0.0032958984375
-0.017578125
0.0
-0.016845703125
0.0018310546875
-0.029296875
0.0025634765625
-0.027099609375
-0.00146484375
-0.0087890625
0.0146484375
0.0084228515625
0.03515625
-0.002197265625
0.0281982421875
-0.0194091796875
0.0142822265625
-0.0157470703125
0.008056640625
-0.0281982421875
-0.0029296875
0.08203125
-0.1190185546875
0.047607421875
-0.0391845703125
-0.0985107421875
0.146484375
-0.072540283203125
0.0611572265625
-0.046905517578125
-0.0113525390625
-0.01904296875
-0.0018310546875
-0.009521484375
-0.0029296875
-0.010986328125
-0.0025634765625
-0.050537109375
-0.0054931640625
-0.0750732421875
-0.0106201171875
-0.064453125
-0.0128173828125
-0.0911865234375
-0.0062255859375
-0.0926513671875
-0.00732421875
-0.025634765625
-0.013916015625
0.0406494140625
-0.010986328125
0.024169921875
-0.0076904296875
0.0054931640625
-0.0084228515625
0.01171875
-0.0047607421875
0.005126953125
-0.003662109375
0.0263671875
-0.009521484375
0.0333251953125
-0.01171875
0.0238037109375
-0.010986328125
0.0263671875
-0.0098876953125
0.0325927734375
-0.005126953125
0.029296875
-0.00146484375
0.024169921875
-0.0047607421875
0.0582275390625
-0.0032958984375
0.031494140625
0.005859375
0.0179443359375
0.003662109375
0.013916015625
-0.002197265625
-0.0406494140625
-0.01611328125
0.060821533203125
-0.0303955078125
0.057861328125
0.00146484375
-0.093414306640625
0.049072265625
-0.0648193359375
0.0263671875
0.032958984375
-0.0106201171875
0.043212890625
-0.003662109375
0.0238037109375
-0.0018310546875
0.0260009765625
-0.005859375
0.00146484375
-0.0087890625
0.0
-0.0084228515625
0.032989501953125
-0.005126953125
0.036285400390625
0.0040283203125
0.0135498046875
0.006591796875
0.009521484375
0.002197265625
0.0186767578125
0.0054931640625
0.000732421875
0.0047607421875
-0.01171875
0.0047607421875
-0.022705078125
0.0054931640625
-0.01318359375
0.00146484375
-0.00146484375
0.0018310546875
-0.0069580078125
0.002197265625
-0.01904296875
0.0025634765625
-0.0172119140625
0.002197265625
-0.008819580078125
0.0003662109375
0.054931640625
0.0010986328125
0.042877197265625
0.003662109375
-0.0439453125
0.002197265625
0.0062255859375
-0.0010986328125
0.0714111328125
0.0003662109375
0.0025634765625
-0.005126953125
0.0498046875
-0.032958984375
0.1483154296875
-0.006591796875
-0.0406494140625
0.0626220703125
-0.148681640625
0.0340576171875
-0.03515625
-0.0062255859375
0.03369140625
0.0003662109375
-0.0120849609375
-0.002197265625
-0.0347900390625
-0.0010986328125
0.0205078125
-0.0054931640625
0.0421142578125
-0.0076904296875
-0.0040283203125
-0.0076904296875
-0.0054931640625
-0.005126953125
0.064453125
-0.0018310546875
0.0809326171875
-0.0040283203125
0.0443115234375
0.0010986328125
0.0263671875
0.0040283203125
0.0172119140625
0.003662109375
-0.003662109375
0.0003662109375
-0.0029296875
-0.002197265625
0.0347900390625
0.002197265625
0.030029296875
0.002197265625
-0.0501708984375
0.0010986328125
-0.0333251953125
0.002197265625
-0.006591796875
0.0040283203125
0.0421142578125
0.003662109375
0.032958984375
0.0025634765625
-0.038818359375
-0.00146484375
0.0087890625
-0.000732421875
0.04833984375
0.0018310546875
-0.01904296875
-0.012451171875
0.073638916015625
-0.0479736328125
0.245025634765625
-0.005126953125
0.10400390625
0.085693359375
-0.087158203125
0.046875
-0.0567626953125
-0.005859375
0.06591796875
0.008056640625
-0.0120849609375
0.012451171875
-0.095947265625
0.0245361328125
-0.0340576171875
0.0267333984375
-0.036285400390625
0.021240234375
-0.059722900390625
0.01611328125
-0.0413818359375
0.01171875
-0.0040283203125
0.00732421875
0.0311279296875
0.0018310546875
0.013916015625
0.003662109375
-0.0054931640625
0.0084228515625
0.073272705078125
0.0157470703125
0.121246337890625
0.006591796875
0.106201171875
0.002197265625
0.154541015625
0.0091552734375
0.1318359375
0.014312744140625
0.060089111328125
0.010284423828125
0.029327392578125
-0.0054931640625
-0.012451171875
-0.0047607421875
-0.0208740234375
-0.005157470703125
0.0479736328125
-0.010284423828125
0.0823974609375
-0.010986328125
-0.116851806640625
-0.0106201171875
-0.236602783203125
-0.01025390625
-0.1376953125
-0.0406494140625
0.0
-0.0633544921875
-0.0238037109375
0.0179443359375
-0.11572265625
0.0692138671875
-0.0545654296875
0.013916015625
-0.028594970703125
-0.0098876953125
-0.045806884765625
-0.010986328125
-0.030029296875
-0.01904296875
-0.0040283203125
-0.018310546875
-0.0205078125
-0.01318359375
-0.065185546875
-0.01025390625
-0.0263671875
-0.0164794921875
0.0516357421875
-0.018310546875
0.0340576171875
-0.0238037109375
-0.000732421875
-0.0274658203125
0.0106201171875
-0.0252685546875
0.018310546875
-0.0435791015625
-0.056396484375
-0.0498046875
-0.075439453125
-0.015380859375
-0.0260009765625
-0.00146484375
-0.0087890625
-0.01904296875
-0.0230712890625
-0.017578125
-0.0205078125
-0.012451171875
-0.078369140625
-0.0106201171875
-0.12451171875
-0.002197265625
0.075439453125
0.0076904296875
0.103271484375
0.01025390625
-0.065185546875
0.0054931640625
-0.0758056640625
0.01171875
-0.04248046875
0.0120849609375
-0.257110595703125
-0.064453125
-0.145050048828125
-0.015380859375
-0.028564453125
0.13037109375
-0.1483154296875
0.08642578125
-0.0303955078125
0.017578125
-0.01171875
0.019775390625
0.040283203125
0.0142822265625
0.0823974609375
0.01025390625
0.0758056640625
0.0025634765625
0.043212890625
-0.0029296875
0.002197265625
0.0003662109375
0.0355224609375
0.0040283203125
0.1036376953125
0.0062255859375
0.1025390625
0.0047607421875
0.056427001953125
0.006591796875
0.070709228515625
0.006591796875
0.009521484375
0.0054931640625
-0.019775390625
0.0076904296875
0.0355224609375
0.0029296875
0.05859375
-0.0003662109375
0.056396484375
0.000732421875
0.006591796875
0.0025634765625
0.00732421875
0.0025634765625
-0.00732421875
0.0
-0.0399169921875
0.0040283203125
-0.04833984375
0.0084228515625
-0.0076904296875
0.0025634765625
0.1351318359375
0.0018310546875
0.1234130859375
0.0029296875
0.0465087890625
-0.0501708984375
0.192291259765625
-0.03515625
0.168487548828125
0.05859375
-0.0106201171875
0.046875
-0.139190673828125
-0.0032958984375
-0.191558837890625
-0.0106201171875
-0.044677734375
-0.0054931640625
0.030029296875
-0.002197265625
0.0040283203125
-0.0069580078125
0.037353515625
-0.01171875
0.0245361328125
-0.0098876953125
0.015380859375
-0.006591796875
0.01025390625
0.0029296875
-0.0238037109375
0.005126953125
-0.0091552734375
0.002197265625
-0.0380859375
0.0040283203125
-0.02197265625
0.0003662109375
0.0260009765625
-0.0029296875
0.0186767578125
-0.0032958984375
-0.01318359375
-0.0003662109375
0.018310546875
0.0018310546875
0.013916015625
0.00439453125
-0.022705078125
0.0003662109375
-0.0091552734375
-0.002197265625
-0.0150146484375
-0.0047607421875
-0.01904296875
-0.005126953125
-0.041748046875
-0.0032958984375
-0.044677734375
-0.1051025390625
0.053466796875
-0.04541015625
-0.017578125
0.1292724609375
-0.1402587890625
0.0673828125
-0.050537109375
-0.00732421875
-0.01318359375
-0.0029296875
-0.0208740234375
-0.00439453125
0.0128173828125
-0.0025634765625
0.00439453125
-0.0062255859375
-0.0179443359375
-0.0106201171875
-0.0186767578125
-0.006591796875
0.016845703125
-0.00146484375
0.04248046875
0.000732421875
0.0128173828125
-0.0029296875
-0.006591796875
0.00146484375
-0.0238037109375
0.0047607421875
0.01025390625
0.0003662109375
-0.03076171875
0.0025634765625
-0.03955078125
0.00146484375
-0.0098876953125
-0.000732421875
-0.0054931640625
-0.0025634765625
0.0208740234375
-0.000732421875
-0.0098876953125
-0.00146484375
-0.002197265625
-0.0029296875
-0.028564453125
0.000732421875
-0.02490234375
0.002197265625
-0.017578125
0.0047607421875
-0.003662109375
0.000732421875
0.052734375
0.0018310546875
0.0743408203125
0.0025634765625
0.1387939453125
-0.01171875
0.1292724609375
-0.0465087890625
0.0567626953125
-0.008056640625
-0.103271484375
0.0673828125
-0.1131591796875
0.02783203125
-0.0201416015625
-0.01025390625
-0.0186767578125
0.0025634765625
0.0120849609375
0.0
-0.0128173828125
-0.002197265625
-0.0523681640625
-0.0047607421875
-0.119415283203125
-0.0106201171875
-0.082794189453125
-0.0091552734375
-0.01611328125
0.0025634765625
-0.0146484375
0.0029296875
-0.0479736328125
-0.0003662109375
-0.0615234375
0.0040283203125
-0.0340576171875
0.008056640625
-0.0208740234375
0.005126953125
0.01318359375
0.000732421875
0.002197265625
0.000732421875
0.0194091796875
0.0003662109375
0.032958984375
0.003662109375
0.0289306640625
0.002197265625
0.03076171875
0.0
0.02490234375
-0.0018310546875
0.02197265625
0.0003662109375
-0.0135498046875
0.0003662109375
0.01171875
0.0062255859375
0.005859375
0.0040283203125
0.053131103515625
-0.0640869140625
0.113189697265625
-0.0230712890625
-0.047271728515625
0.09228515625
-0.096710205078125
0.04833984375
-0.0106201171875
-0.0076904296875
-0.0054931640625
0.0003662109375
0.0003662109375
-0.0003662109375
0.012451171875
-0.0029296875
-0.017578125
-0.0047607421875
-0.0223388671875
-0.0084228515625
-0.10986328125
-0.0084228515625
-0.0908203125
0.0
0.0098876953125
0.0
-0.034423828125
-0.0040283203125
-0.0047607421875
0.0003662109375
0.032958984375
0.00146484375
0.044677734375
-0.000732421875
0.0054931640625
-0.002197265625
0.00732421875
-0.0062255859375
0.0281982421875
-0.0062255859375
0.0084228515625
-0.0029296875
-0.0032958984375
-0.000732421875
-0.01171875
0.000732421875
0.0318603515625
-0.0010986328125
0.0223388671875
-0.0010986328125
0.000732421875
-0.00732421875
0.01611328125
-0.0062255859375
0.038818359375
-0.0010986328125
-0.0113525390625
-0.0684814453125
0.118316650390625
-0.040283203125
0.0465087890625
0.084228515625
-0.165191650390625
0.06005859375
-0.0391845703125
-0.0029296875
-0.0194091796875
-0.0062255859375
0.0
-0.0032958984375
0.012451171875
-0.0040283203125
-0.0216064453125
-0.006591796875
0.0230712890625
-0.005859375
0.006591796875
-0.005859375
0.0040283203125
-0.0069580078125
0.0245361328125
-0.003662109375
0.051666259765625
-0.003662109375
0.040283203125
0.0
0.0047607421875
0.0040283203125
-0.002197265625
0.006591796875
-0.072174072265625
0.0084228515625
-0.0626220703125
0.0018310546875
-0.0025634765625
-0.002197265625
0.028564453125
-0.0010986328125
0.0340576171875
-0.000732421875
0.0311279296875
-0.0025634765625
0.0157470703125
-0.0062255859375
0.0003662109375
-0.0047607421875
0.00439453125
0.00146484375
-0.0421142578125
-0.0311279296875
0.114654541015625
-0.0406494140625
0.113922119140625
0.025634765625
-0.0853271484375
0.0633544921875
-0.0615234375
0.0260009765625
-0.0084228515625
-0.00439453125
0.0010986328125
-0.0003662109375
0.010986328125
0.0010986328125
0.0245361328125
0.0
0.019775390625
-0.005859375
0.044677734375
-0.0084228515625
0.027099609375
-0.006591796875
0.050537109375
-0.005126953125
0.043212890625
-0.0029296875
0.024169921875
-0.0029296875
0.0538330078125
-0.002197265625
0.0384521484375
0.000732421875
0.0325927734375
0.0018310546875
0.0135498046875
0.00146484375
0.0135498046875
-0.0010986328125
0.0303955078125
-0.000732421875
0.0384521484375
0.00146484375
0.0428466796875
0.0
0.120513916015625
-0.003662109375
0.093048095703125
-0.0003662109375
-0.0611572265625
0.0
-0.089019775390625
-0.054931640625
0.0948486328125
-0.046875
0.086090087890625
0.0556640625
-0.129669189453125
0.0677490234375
-0.099639892578125
0.01025390625
-0.0443115234375
-0.009521484375
-0.0523681640625
-0.0047607421875
-0.016845703125
-0.003662109375
-0.005126953125
-0.0054931640625
-0.029296875
-0.0113525390625
-0.0032958984375
-0.010986328125
0.035888671875
-0.006591796875
-0.003662109375
0.0
-0.0003662109375
0.0
0.005126953125
-0.000732421875
-0.0380859375
0.003662109375
-0.030029296875
0.003662109375
-0.0164794921875
-0.0010986328125
0.0230712890625
-0.0069580078125
0.041748046875
-0.0069580078125
0.0421142578125
-0.0062255859375
0.069580078125
-0.002197265625
0.03955078125
-0.00146484375
0.032257080078125
-0.002197265625
0.050933837890625
0.000732421875
0.0523681640625
-0.000732421875
0.0538330078125
-0.0003662109375
0.06591796875
-0.0003662109375
0.0552978515625
-0.0003662109375
0.052001953125
0.00146484375
0.072509765625
0.0047607421875
0.0523681640625
0.0029296875
0.0347900390625
0.0029296875
0.0135498046875
0.003662109375
-0.0172119140625
-0.0157470703125
0.100738525390625
-0.0164794921875
0.201812744140625
0.0179443359375
0.085693359375
0.0479736328125
0.0472412109375
0.0201416015625
0.000732421875
-0.0076904296875
-0.1512451171875
0.0018310546875
-0.196319580078125
0.000732421875
-0.182769775390625
-0.00439453125
-0.098876953125
-0.0098876953125
-0.0728759765625
-0.0091552734375
-0.075439453125
-0.010986328125
-0.0296630859375
-0.006591796875
-0.041015625
-0.0010986328125
-0.038818359375
-0.000732421875
-0.067779541015625
0.000732421875
-0.101837158203125
-0.0032958984375
-0.128173828125
-0.002197265625
-0.0692138671875
-0.005859375
-0.034423828125
-0.010986328125
0.0186767578125
-0.0062255859375
0.0487060546875
-0.0029296875
-0.0465087890625
-0.000732421875
-0.012451171875
-0.0003662109375
-0.021240234375
-0.00146484375
-0.0615234375
-0.0003662109375
-0.010986328125
0.0
0.312408447265625
0.0003662109375
0.284210205078125
-0.00146484375
-0.002197265625
-0.0018310546875
0.0362548828125
0.0
-0.0325927734375
-0.0556640625
0.0391845703125
-0.0245361328125
0.0047607421875
0.072509765625
-0.049072265625
0.04541015625
0.120849609375
0.00146484375
0.0596923828125
-0.0029296875
-0.078369140625
-0.0003662109375
-0.0516357421875
-0.00146484375
-0.0205078125
-0.003662109375
-0.018310546875
-0.005859375
0.016845703125
-0.005859375
-0.024169921875
-0.005126953125
-0.013916015625
-0.0010986328125
-0.0047607421875
-0.0025634765625
-0.0274658203125
-0.0047607421875
-0.0238037109375
0.0010986328125
-0.067413330078125
0.0
-0.075836181640625
-0.002197265625
-0.0867919921875
-0.0032958984375
-0.0531005859375
-0.0029296875
-0.027099609375
-0.0010986328125
0.0087890625
-0.00439453125
0.003662109375
-0.0062255859375
-0.035888671875
-0.000732421875
-0.0047607421875
0.000732421875
-0.046142578125
-0.010986328125
0.053466796875
-0.0758056640625
0.0589599609375
-0.0252685546875
-0.0999755859375
0.0999755859375
-0.0677490234375
0.0523681640625
0.0142822265625
-0.008056640625
-0.00146484375
-0.00146484375
-0.0234375
-0.000732421875
-0.0498046875
0.0
-0.05859375
-0.0029296875
-0.01904296875
-0.008056640625
-0.048004150390625
-0.0084228515625
0.0018310546875
-0.0040283203125
0.016143798828125
-0.0025634765625
-0.0106201171875
-0.0040283203125
0.0029296875
-0.000732421875
-0.02490234375
0.0003662109375
-0.0076904296875
-0.0029296875
-0.015777587890625
-0.0010986328125
0.1787109375
-0.0025634765625
-0.0025634765625
-0.0032958984375
-0.169189453125
-0.0054931640625
0.005126953125
-0.0076904296875
-0.010986328125
-0.0047607421875
0.019805908203125
-0.0025634765625
-0.027130126953125
0.0025634765625
-0.008056640625
0.0003662109375
0.139556884765625
-0.003662109375
0.1322021484375
-0.002197265625
-0.032958984375
-0.000732421875
-0.0604248046875
-0.002197265625
0.0098876953125
-0.0010986328125
-0.0054931640625
0.002197265625
-0.0966796875
0.00439453125
-0.05859375
0.0
0.145751953125
-0.00146484375
0.0904541015625
-0.0018310546875
-0.015380859375
-0.0780029296875
0.1640625
-0.030029296875
0.06005859375
0.1007080078125
-0.09814453125
0.04833984375
0.013916015625
-0.0062255859375
-0.030029296875
0.002197265625
-0.052001953125
-0.000732421875
0.050537109375
-0.0025634765625
0.060791015625
-0.00439453125
0.0498046875
-0.0098876953125
-0.017578125
-0.0106201171875
-0.1072998046875
-0.009521484375
-0.0853271484375
-0.0047607421875
-0.025634765625
0.0010986328125
0.01611328125
0.0025634765625
0.00146484375
0.003662109375
0.01318359375
0.0029296875
0.0523681640625
0.00439453125
0.0340576171875
0.0010986328125
0.0054931640625
-0.0029296875
0.00732421875
-0.00146484375
0.0216064453125
0.0029296875
0.01025390625
0.0029296875
0.03515625
-0.00146484375
0.0084228515625
0.0010986328125
0.013916015625
0.00146484375
0.0076904296875
0.0003662109375
-0.0029296875
-0.0040283203125
0.047607421875
-0.0029296875
0.0216064453125
-0.0018310546875
-0.010986328125
-0.0615234375
0.101837158203125
-0.0201416015625
0.062286376953125
0.0787353515625
-0.112823486328125
0.03662109375
-0.043609619140625
-0.0054931640625
0.0054931640625
0.0010986328125
-0.03369140625
0.0032958984375
0.000732421875
0.0029296875
0.016845703125
-0.0029296875
-0.022705078125
-0.0025634765625
-0.049072265625
0.005126953125
-0.0113525390625
0.002197265625
0.010986328125
0.0003662109375
0.003662109375
0.0018310546875
-0.0128173828125
-0.0003662109375
-0.046142578125
0.0018310546875
-0.003662109375
0.0047607421875
-0.00146484375
0.0040283203125
-0.0120849609375
0.0010986328125
-0.0267333984375
0.00146484375
-0.006591796875
-0.0018310546875
0.00732421875
-0.00146484375
-0.0303955078125
-0.002197265625
-0.0032958984375
-0.0029296875
0.0098876953125
-0.0029296875
0.0113525390625
-0.0831298828125
0.1153564453125
-0.0428466796875
0.025634765625
0.1043701171875
-0.1402587890625
0.0633544921875
-0.0633544921875
-0.0069580078125
-0.005859375
0.0
0.0311279296875
-0.0010986328125
0.032958984375
-0.0054931640625
-0.019775390625
-0.005859375
0.013916015625
-0.005126953125
0.0523681640625
-0.005126953125
0.0523681640625
-0.0054931640625
0.041015625
-0.0025634765625
0.0552978515625
-0.003662109375
0.062286376953125
-0.000732421875
0.026397705078125
0.0054931640625
0.02783203125
0.0025634765625
0.0260009765625
0.0032958984375
0.050537109375
0.0010986328125
0.01025390625
-0.002197265625
-0.0084228515625
0.0018310546875
0.005859375
-0.000732421875
-0.01904296875
-0.00146484375
0.021240234375
0.0029296875
-0.021240234375
0.0029296875
-0.041748046875
0.0003662109375
0.00732421875
-0.000732421875
-0.0157470703125
-0.0032958984375
-0.048736572265625
-0.0032958984375
-0.034820556640625
-0.000732421875
-0.002197265625
0.0025634765625
0.187896728515625
0.000732421875
-0.0054931640625
-0.006591796875
-0.206573486328125
-0.00146484375
-0.008056640625
0.0010986328125
-0.0552978515625
-0.0479736328125
0.075469970703125
-0.0384521484375
0.056396484375
0.0516357421875
-0.130035400390625
0.0589599609375
-0.0545654296875
0.01171875
-0.0098876953125
-0.00732421875
-0.00439453125
-0.005126953125
-0.0113525390625
-0.00439453125
0.00439453125
-0.005126953125
-0.00146484375
-0.0087890625
0.0113525390625
-0.009521484375
0.040283203125
-0.0076904296875
0.032958984375
-0.005126953125
0.065582275390625
-0.002197265625
0.043243408203125
-0.00146484375
0.030029296875
0.0047607421875
-0.007720947265625
0.0029296875
0.0
-0.002197265625
0.017974853515625
-0.002197265625
0.016845703125
-0.0025634765625
0.0322265625
-0.002197265625
-0.01904296875
-0.0029296875
-0.0150146484375
-0.003662109375
-0.044342041015625
0.00146484375
-0.044708251953125
0.0069580078125
-0.0003662109375
0.0069580078125
0.00732421875
-0.000732421875
0.00439453125
-0.0032958984375
0.007354736328125
-0.000732421875
-0.04541015625
-0.01904296875
0.0380859375
-0.0150146484375
0.069610595703125
0.0146484375
-0.101470947265625
0.0281982421875
-0.053863525390625
0.0120849609375
-0.013916015625
-0.0054931640625
-0.0230712890625
-0.003662109375
0.0047607421875
0.000732421875
-0.053466796875
0.0010986328125
-0.0443115234375
-0.003662109375
-0.0208740234375
-0.005859375
-0.015380859375
-0.00732421875
-0.03369140625
0.0040283203125
-0.0201416015625
0.0054931640625
-0.0076904296875
0.0032958984375
-0.01904296875
0.0054931640625
-0.0216064453125
0.0032958984375
-0.0428466796875
0.002197265625
-0.0029296875
-0.0003662109375
-0.034423828125
0.002197265625
-0.02197265625
0.0018310546875
0.008056640625
0.0025634765625
0.005859375
0.000732421875
0.0179443359375
-0.0010986328125
0.01611328125
-0.0003662109375
-0.019775390625
-0.01025390625
0.060791015625
-0.0472412109375
0.1029052734375
-0.01611328125
-0.0791015625
0.076171875
-0.049072265625
0.0472412109375
0.0234375
-0.0098876953125
0.005859375
-0.005859375
0.0252685546875
-0.0040283203125
0.0076904296875
-0.0054931640625
0.0029296875
-0.009521484375
-0.00732421875
-0.010986328125
0.0106201171875
-0.0069580078125
0.0076904296875
-0.0018310546875
0.0465087890625
-0.0040283203125
0.0560302734375
-0.0047607421875
0.0062255859375
-0.000732421875
0.0263671875
-0.000732421875
0.0106201171875
-0.0018310546875
0.0106201171875
-0.0047607421875
-0.003662109375
-0.0062255859375
0.0054931640625
-0.0029296875
0.0263671875
-0.00146484375
0.0274658203125
-0.0025634765625
-0.0054931640625
-0.005859375
-0.0296630859375
-0.009521484375
-0.0296630859375
-0.005859375
-0.0791015625
-0.0054931640625
-0.041015625
-0.00146484375
-0.0010986328125
0.0054931640625
0.0369873046875
-0.0003662109375
0.05419921875
0.0003662109375
0.04248046875
-0.00146484375
0.0640869140625
-0.0069580078125
0.0062255859375
-0.010986328125
-0.0205078125
-0.0084228515625
-0.0032958984375
0.000732421875
-0.0098876953125
-0.0289306640625
0.108795166015625
-0.0369873046875
0.116485595703125
0.0201416015625
-0.067413330078125
0.052001953125
-0.03955078125
0.01171875
0.022705078125
-0.0142822265625
-0.013214111328125
-0.0040283203125
0.022003173828125
-0.0032958984375
0.019073486328125
-0.002197265625
0.0322265625
-0.01025390625
0.0172119140625
-0.0135498046875
0.0032958984375
-0.0128173828125
0.0216064453125
-0.0084228515625
0.0054931640625
-0.002197265625
0.01611328125
-0.00146484375
0.005126953125
0.0010986328125
0.038818359375
0.0010986328125
0.043212890625
0.0032958984375
0.0406494140625
0.01171875
0.02783203125
0.01025390625
0.0322265625
0.0018310546875
0.07763671875
0.0010986328125
0.0465087890625
0.002197265625
0.0487060546875
0.0025634765625
0.044677734375
0.002197265625
0.0205078125
0.0029296875
-0.0003662109375
0.0018310546875
-0.018310546875
0.0
-0.0662841796875
-0.0029296875
-0.030029296875
-0.101806640625
0.0615234375
-0.0322265625
-0.1051025390625
0.12890625
-0.1358642578125
0.052001953125
-0.0428466796875
-0.0120849609375
-0.0618896484375
-0.0003662109375
-0.057861328125
0.00146484375
-0.0439453125
0.0003662109375
-0.060821533203125
-0.0025634765625
-0.064117431640625
-0.010986328125
-0.0062255859375
-0.0087890625
-0.0347900390625
-0.00146484375
-0.0322265625
-0.0029296875
-0.022705078125
-0.0018310546875
-0.0142822265625
0.000732421875
-0.0146484375
0.0
-0.0428466796875
0.0
-0.0205078125
0.0
-0.03662109375
-0.0018310546875
-0.0311279296875
-0.0032958984375
-0.0146484375
-0.0018310546875
0.003662109375
0.0018310546875
-0.015380859375
0.0029296875
-0.0172119140625
0.0029296875
0.002197265625
-0.0010986328125
0.0047607421875
-0.00146484375
0.0322265625
-0.0010986328125
-0.0201416015625
-0.029296875
0.1376953125
-0.021240234375
0.1234130859375
0.03076171875
-0.06591796875
0.04541015625
-0.0457763671875
0.0179443359375
-0.003662109375
-0.002197265625
0.034423828125
-0.0010986328125
0.034423828125
-0.000732421875
0.041015625
-0.002197265625
0.013916015625
-0.009521484375
0.024169921875
-0.0135498046875
0.01171875
-0.0120849609375
-0.0216064453125
-0.008056640625
-0.01904296875
-0.0062255859375
0.0076904296875
-0.0062255859375
0.0245361328125
0.0010986328125
0.0
0.006591796875
-0.0029296875
0.0032958984375
-0.0069580078125
0.0010986328125
0.0062255859375
-0.00146484375
-0.0245361328125
-0.002197265625
-0.00732421875
0.0
0.01025390625
0.0040283203125
-0.012451171875
0.00146484375
0.040283203125
-0.0003662109375
0.03369140625
0.0
0.037750244140625
-0.002197265625
0.018341064453125
0.002197265625
0.00439453125
0.0040283203125
-0.011016845703125
0.0040283203125
-0.0146484375
0.002197265625
0.005157470703125
0.00146484375
-0.0076904296875
-0.0029296875
0.016845703125
-0.0032958984375
-0.033355712890625
-0.000732421875
-0.038848876953125
-0.07763671875
0.084625244140625
-0.0421142578125
-0.0032958984375
0.10107421875
-0.127105712890625
0.0648193359375
-0.0421142578125
-0.0040283203125
0.0029296875
0.0003662109375
0.0025634765625
0.0010986328125
0.0032958984375
-0.0029296875
-0.0252685546875
-0.005126953125
-0.0201416015625
-0.0062255859375
-0.0347900390625
-0.017578125
-0.0040283203125
-0.01904296875
0.0340576171875
-0.0076904296875
0.000732421875
-0.0069580078125
0.01611328125
-0.006591796875
0.0054931640625
-0.0003662109375
-0.008056640625
0.00146484375
-0.029296875
-0.000732421875
-0.01318359375
-0.0003662109375
-0.0032958984375
-0.0018310546875
-0.0003662109375
-0.005126953125
-0.010986328125
0.00146484375
-0.030029296875
0.005859375
-0.000732421875
0.0025634765625
-0.0260009765625
0.0010986328125
-0.00732421875
-0.00146484375
-0.027099609375
-0.0003662109375
-0.02197265625
-0.002197265625
0.010986328125
0.0
-0.0025634765625
-0.0003662109375
-0.0355224609375
-0.0245361328125
0.0556640625
-0.03076171875
0.09814453125
0.01611328125
-0.0985107421875
0.05419921875
-0.0970458984375
0.0172119140625
-0.041015625
-0.0113525390625
-0.019775390625
0.0003662109375
0.010986328125
-0.002197265625
-0.02490234375
-0.005859375
-0.0047607421875
-0.0076904296875
-0.0087890625
-0.0054931640625
-0.0087890625
-0.00146484375
-0.000732421875
0.00146484375
0.04248046875
0.0003662109375
0.04248046875
-0.00146484375
0.0252685546875
0.000732421875
0.0531005859375
0.0047607421875
0.0205078125
0.0018310546875
0.0223388671875
-0.0003662109375
0.0135498046875
0.0018310546875
0.016845703125
0.0003662109375
0.0311279296875
0.003662109375
0.03369140625
0.0047607421875
0.025634765625
0.00146484375
0.0205078125
-0.0010986328125
0.005859375
-0.002197265625
-0.008056640625
-0.0025634765625
-0.0186767578125
-0.0263671875
0.095611572265625
-0.01904296875
0.101837158203125
0.029296875
-0.086090087890625
0.0413818359375
-0.054962158203125
0.01611328125
0.002197265625
-0.00146484375
-0.005859375
0.0047607421875
0.003662109375
0.00146484375
-0.0413818359375
-0.00732421875
-0.017578125
-0.0091552734375
-0.01025390625
-0.005126953125
-0.002197265625
-0.0003662109375
0.0194091796875
0.0032958984375
0.027099609375
0.0025634765625
0.0087890625
0.0003662109375
-0.02490234375
0.002197265625
0.0106201171875
0.002197265625
-0.025634765625
0.0029296875
-0.0029296875
0.0003662109375
0.0179443359375
-0.002197265625
0.0179443359375
-0.0003662109375
0.0303955078125
0.003662109375
0.00732421875
-0.0018310546875
0.0047607421875
-0.0069580078125
-0.0040283203125
-0.0029296875
0.038818359375
-0.0018310546875
0.0029296875
-0.000732421875
0.039581298828125
0.0
0.0406494140625
-0.000732421875
-0.0186767578125
-0.0010986328125
0.006256103515625
-0.0003662109375
-0.023101806640625
-0.003662109375
0.0106201171875
-0.0029296875
-0.0113525390625
-0.000732421875
-0.056793212890625
-0.0377197265625
0.104034423828125
-0.0340576171875
0.085723876953125
0.037353515625
-0.131134033203125
0.05419921875
-0.082061767578125
0.01318359375
-0.0234375
-0.003662109375
-0.04833984375
0.0018310546875
0.01171875
-0.000732421875
-0.0128173828125
-0.00439453125
-0.002197265625
-0.0098876953125
-0.003662109375
-0.008056640625
-0.0230712890625
-0.0032958984375
-0.0091552734375
-0.0003662109375
-0.015380859375
0.0
0.0194091796875
-0.000732421875
-0.0494384765625
0.0003662109375
-0.031494140625
0.0018310546875
-0.01025390625
0.0069580078125
-0.0010986328125
0.005859375
0.0040283203125
0.0003662109375
-0.0142822265625
-0.0029296875
-0.0172119140625
-0.0047607421875
-0.032958984375
-0.0040283203125
0.0091552734375
-0.00146484375
0.008056640625
-0.000732421875
0.006591796875
-0.0010986328125
0.0032958984375
0.0010986328125
0.0281982421875
0.00146484375
-0.002197265625
-0.0040283203125
-0.0186767578125
-0.0032958984375
0.024169921875
0.00146484375
-0.04248046875
-0.0113525390625
0.06298828125
-0.103271484375
0.1171875
-0.0281982421875
-0.04833984375
0.1292724609375
-0.0955810546875
0.0556640625
-0.0340576171875
-0.0113525390625
-0.010986328125
-0.00146484375
-0.0234375
-0.0003662109375
-0.0084228515625
-0.00439453125
-0.021240234375
-0.0076904296875
-0.006591796875
-0.0087890625
-0.013916015625
-0.0087890625
0.0040283203125
-0.0032958984375
0.0106201171875
-0.00146484375
-0.0157470703125
-0.0029296875
0.0025634765625
-0.000732421875
-0.0150146484375
0.003662109375
-0.002197265625
0.005859375
-0.0018310546875
-0.0010986328125
0.000732421875
-0.0047607421875
0.002197265625
-0.0018310546875
0.0120849609375
-0.0003662109375
0.01318359375
-0.002197265625
-0.0146484375
-0.0018310546875
0.0186767578125
-0.0032958984375
0.01611328125
-0.0032958984375
0.02197265625
-0.000732421875
-0.0029296875
-0.07177734375
0.126708984375
-0.0322265625
0.054931640625
0.08935546875
-0.103271484375
0.0523681640625
0.005859375
0.002197265625
0.018310546875
0.00146484375
0.0509033203125
-0.0003662109375
0.05859375
-0.0032958984375
0.0677490234375
-0.0062255859375
0.0303955078125
-0.008056640625
0.017578125
-0.005859375
0.049468994140625
-0.00439453125
0.033721923828125
-0.002197265625
0.0706787109375
0.0010986328125
0.06884765625
-0.0032958984375
0.0494384765625
-0.00146484375
0.0260009765625
0.0025634765625
0.0450439453125
-0.000732421875
0.041015625
-0.00146484375
0.0457763671875
-0.0029296875
0.0750732421875
-0.002197265625
0.080596923828125
0.0
0.120880126953125
-0.00146484375
0.0904541015625
0.000732421875
0.0618896484375
0.005126953125
0.057861328125
0.003662109375
0.050537109375
0.0
0.0091552734375
0.0032958984375
0.005859375
0.0047607421875
0.0113525390625
0.0032958984375
0.006591796875
0.002197265625
0.027099609375
-0.0010986328125
-0.0179443359375
0.0
-0.015380859375
0.0025634765625
-0.035888671875
-0.0029296875
-0.065185546875
-0.0025634765625
-0.07177734375
0.0091552734375
-0.1036376953125
0.0084228515625
0.02490234375
-0.03515625
0.0267333984375
-0.0047607421875
-0.153472900390625
0.078369140625
-0.173614501953125
0.0406494140625
-0.093017578125
-0.00732421875
-0.1036376953125
-0.005859375
-0.0714111328125
-0.0054931640625
-0.031494140625
-0.0032958984375
-0.0596923828125
-0.0069580078125
-0.034820556640625
-0.0098876953125
-0.041046142578125
-0.01025390625
-0.0303955078125
-0.0018310546875
-0.0362548828125
0.00732421875
-0.0325927734375
0.0091552734375
-0.0347900390625
0.00732421875
-0.0216064453125
0.0025634765625
0.0076904296875
0.002197265625
0.0113525390625
-0.0010986328125
0.0274658203125
0.0003662109375
-0.0135498046875
0.005126953125
-0.0142822265625
0.002197265625
-0.00439453125
0.0018310546875
0.0040283203125
0.000732421875
0.0142822265625
-0.000732421875
-0.0062255859375
-0.0018310546875
-0.0054931640625
-0.0003662109375
0.0040283203125
-0.0010986328125
0.0263671875
-0.003662109375
0.0003662109375
-0.0040283203125
0.003662109375
-0.0047607421875
0.002197265625
-0.00439453125
-0.013916015625
-0.0369873046875
0.165557861328125
-0.0380859375
0.095245361328125
0.034423828125
-0.0791015625
0.06005859375
-0.052764892578125
0.01611328125
-0.020172119140625
-0.009521484375
0.003662109375
-0.005126953125
0.016510009765625
-0.0047607421875
0.0194091796875
-0.0062255859375
0.019775390625
-0.01025390625
0.016143798828125
-0.01025390625
0.0120849609375
-0.0029296875
0.041015625
0.002197265625
-0.00732421875
0.00146484375
0.0223388671875
-0.0040283203125
0.0355224609375
-0.00439453125
-0.00146484375
0.0
-0.0025634765625
0.00146484375
-0.016845703125
-0.0025634765625
-0.01611328125
-0.0025634765625
-0.0245361328125
-0.002197265625
-0.017578125
-0.0029296875
-0.031494140625
-0.0062255859375
-0.03076171875
-0.0047607421875
-0.057891845703125
-0.0003662109375
-0.091949462890625
-0.0238037109375
0.069610595703125
-0.0380859375
0.0340576171875
0.0150146484375
-0.122711181640625
0.063720703125
-0.093017578125
0.0245361328125
-0.044677734375
-0.0113525390625
-0.027099609375
-0.0040283203125
-0.01025390625
-0.0062255859375
0.0098876953125
-0.009521484375
-0.041015625
-0.0098876953125
-0.0560302734375
-0.0087890625
-0.0428466796875
-0.005126953125
0.0025634765625
-0.000732421875
0.0018310546875
0.0
-0.00732421875
-0.002197265625
0.022705078125
0.0
0.03076171875
0.0025634765625
-0.002197265625
0.0018310546875
-0.037353515625
-0.0003662109375
0.00732421875
-0.002197265625
0.002197265625
-0.0025634765625
0.052001953125
-0.0029296875
0.090087890625
-0.0032958984375
0.0523681640625
-0.0025634765625
-0.0025634765625
-0.0003662109375
-0.0296630859375
-0.0010986328125
-0.013916015625
-0.00146484375
-0.022705078125
0.0
-0.0025634765625
0.0010986328125
-0.031494140625
0.0
0.0040283203125
0.0
0.003662109375
0.0025634765625
0.015380859375
-0.0010986328125
0.0333251953125
0.00146484375
-0.0164794921875
0.0040283203125
0.0135498046875
-0.003662109375
0.0640869140625
-0.0025634765625
0.063720703125
0.00146484375
-0.0362548828125
-0.0362548828125
0.144317626953125
-0.0216064453125
0.091552734375
0.0472412109375
-0.0322265625
0.0439453125
0.056793212890625
0.0091552734375
-0.02197265625
-0.0003662109375
0.0289306640625
0.0010986328125
0.09228515625
0.0003662109375
0.1248779296875
-0.00146484375
0.17431640625
-0.003662109375
0.358917236328125
-0.0047607421875
0.115753173828125
-0.005126953125
0.065582275390625
-0.0047607421875
0.211700439453125
-0.0025634765625
0.006591796875
0.0010986328125
-0.0003662109375
0.0025634765625
0.0
0.0018310546875
0.0003662109375
0.00146484375
0.0003662109375
0.000732421875
0.0
-0.00146484375
-0.0128173828125
-0.00439453125
-0.036651611328125
-0.0029296875
-0.040313720703125
0.000732421875
-0.0146484375
0.0003662109375
-0.0296630859375
0.000732421875
-0.0992431640625
0.0010986328125
-0.02197265625
-0.0003662109375
0.0589599609375
0.00146484375
0.0311279296875
0.0
-0.0010986328125
-0.002197265625
-0.0421142578125
-0.0047607421875
0.034423828125
-0.00146484375
0.107330322265625
-0.00146484375
0.0234375
-0.107666015625
-0.016845703125
-0.0428466796875
-0.0435791015625
0.1318359375
-0.179840087890625
0.0640869140625
-0.1549072265625
-0.010986328125
-0.06884765625
-0.00439453125
-0.07763671875
-0.0029296875
0.003662109375
-0.0032958984375
0.0157470703125
-0.0062255859375
0.0194091796875
-0.0106201171875
0.216064453125
-0.0084228515625
0.245758056640625
-0.00439453125
0.0194091796875
-0.0018310546875
-0.0032958984375
-0.00146484375
0.046905517578125
-0.0018310546875
-0.0216064453125
0.000732421875
-0.0069580078125
0.000732421875
-0.041412353515625
0.0
-0.071807861328125
-0.000732421875
-0.0545654296875
-0.0025634765625
-0.0421142578125
-0.0029296875
-0.0087890625
-0.000732421875
-0.0032958984375
-0.0010986328125
0.0234375
-0.0029296875
-0.0029296875
-0.0018310546875
-0.0010986328125
-0.0010986328125
-0.037353515625
0.00146484375
-0.0699462890625
0.00146484375
-0.0498046875
0.0
-0.0721435546875
0.002197265625
-0.047607421875
0.00439453125
-0.052734375
0.003662109375
-0.050933837890625
-0.00732421875
0.0340576171875
-0.101806640625
0.074371337890625
-0.01611328125
-0.094879150390625
0.13916015625
-0.106597900390625
0.05859375
-0.012451171875
-0.002197265625
-0.028564453125
0.0003662109375
-0.00146484375
-0.0003662109375
-0.0208740234375
-0.00146484375
-0.021240234375
-0.0047607421875
-0.0545654296875
-0.00732421875
-0.040283203125
0.0087890625
-0.0194091796875
0.0201416015625
-0.0194091796875
0.010986328125
0.0113525390625
0.0047607421875
-0.035888671875
0.002197265625
-0.0062255859375
0.00439453125
-0.0194091796875
0.0025634765625
-0.038818359375
-0.000732421875
-0.041748046875
0.0003662109375
-0.0003662109375
-0.0018310546875
-0.0062255859375
-0.0018310546875
-0.0567626953125
-0.002197265625
0.00439453125
-0.0018310546875
-0.0216064453125
-0.0018310546875
-0.0098876953125
-0.0040283203125
-0.020538330078125
-0.00439453125
-0.043975830078125
-0.00732421875
-0.0146484375
-0.0084228515625
0.0025634765625
-0.0113525390625
-0.0325927734375
-0.0084228515625
-0.05419921875
-0.0087890625
0.03369140625
-0.1029052734375
0.059326171875
-0.035888671875
-0.0029296875
0.12451171875
-0.0677490234375
0.05419921875
-0.0311279296875
-0.0157470703125
-0.0069580078125
-0.005126953125
0.0234375
0.0010986328125
0.0648193359375
-0.0010986328125
0.0106201171875
-0.00732421875
-0.0084228515625
-0.010986328125
0.026763916015625
-0.01025390625
0.040679931640625
-0.0047607421875
-0.012481689453125
0.000732421875
-0.0098876953125
-0.0010986328125
0.018707275390625
-0.00146484375
-0.010650634765625
-0.002197265625
0.0234375
-0.0032958984375
0.000732421875
-0.0018310546875
-0.0018310546875
-0.0018310546875
0.027130126953125
-0.0010986328125
0.01611328125
-0.002197265625
0.00732421875
-0.000732421875
0.050537109375
-0.0018310546875
0.05712890625
-0.002197265625
0.0018310546875
0.0003662109375
0.03369140625
-0.0018310546875
-0.0164794921875
-0.0010986328125
-0.00732421875
0.0
-0.021240234375
-0.0010986328125
-0.03369140625
0.0
0.0087890625
-0.0018310546875
-0.02197265625
-0.002197265625
-0.040283203125
-0.0091552734375
0.029296875
-0.098876953125
0.0904541015625
-0.0267333984375
-0.075439453125
0.1263427734375
-0.090087890625
0.05126953125
-0.031890869140625
-0.0113525390625
-0.0234375
-0.003662109375
0.034820556640625
-0.0040283203125
0.00439453125
-0.000732421875
0.0120849609375
0.005126953125
-0.0084228515625
-0.005859375
0.024169921875
-0.01611328125
0.0531005859375
-0.008056640625
0.078369140625
-0.0062255859375
0.0706787109375
-0.0032958984375
0.0186767578125
-0.0010986328125
0.0618896484375
0.002197265625
0.040283203125
0.000732421875
0.0128173828125
-0.0018310546875
-0.0146484375
-0.0029296875
0.0164794921875
-0.0054931640625
0.015380859375
-0.006591796875
0.0289306640625
-0.005126953125
0.02783203125
-0.0003662109375
-0.0296630859375
0.0010986328125
0.0113525390625
0.000732421875
0.006591796875
-0.0003662109375
-0.01611328125
-0.0018310546875
-0.0186767578125
0.00146484375
0.021240234375
0.002197265625
0.012451171875
0.0003662109375
-0.012451171875
-0.0010986328125
-0.0179443359375
-0.01318359375
0.0267333984375
-0.09375
0.0626220703125
-0.0164794921875
-0.10400390625
0.1219482421875
-0.1014404296875
0.04541015625
-0.0142822265625
-0.0098876953125
-0.0186767578125
0.0
-0.0274658203125
-0.005859375
-0.052001953125
-0.009521484375
-0.0780029296875
-0.009521484375
-0.157135009765625
-0.010986328125
-0.112091064453125
-0.0087890625
-0.0816650390625
-0.0029296875
-0.0692138671875
0.0
-0.0479736328125
-0.0029296875
-0.04541015625
-0.0032958984375
-0.0146484375
0.0029296875
-0.038818359375
0.0003662109375
-0.030029296875
-0.0029296875
-0.0289306640625
0.0
-0.010986328125
-0.0003662109375
-0.0084228515625
0.0010986328125
0.0322265625
0.0003662109375
0.041015625
0.0003662109375
0.0029296875
-0.0025634765625
0.0234375
0.00146484375
-0.0142822265625
0.000732421875
0.0
-0.016845703125
0.0596923828125
-0.1007080078125
0.107666015625
-0.0230712890625
-0.0391845703125
0.1212158203125
-0.078369140625
0.0443115234375
0.00732421875
-0.01171875
-0.03515625
0.0
-0.0164794921875
-0.0003662109375
-0.03662109375
-0.00439453125
-0.005859375
-0.0076904296875
-0.0194091796875
-0.0054931640625
-0.0172119140625
-0.0047607421875
0.0032958984375
-0.0029296875
-0.0054931640625
-0.0010986328125
0.0142822265625
0.0
-0.0150146484375
0.00439453125
0.0369873046875
0.005126953125
0.0465087890625
0.003662109375
0.0556640625
0.00146484375
0.06884765625
-0.0010986328125
0.0897216796875
-0.00146484375
0.081298828125
0.0
0.0706787109375
-0.00146484375
0.127471923828125
-0.0025634765625
0.090118408203125
0.0
0.0926513671875
0.000732421875
0.0908203125
-0.0010986328125
0.117919921875
-0.000732421875
0.09814453125
0.00146484375
0.067779541015625
0.0018310546875
0.065216064453125
0.000732421875
0.0135498046875
-0.000732421875
0.0084228515625
0.0018310546875
-0.0091552734375
0.0047607421875
0.0318603515625
0.005859375
-0.0084228515625
-0.0010986328125
-0.010986328125
-0.005126953125
-0.006591796875
-0.002197265625
-0.101470947265625
-0.0560302734375
0.0516357421875
-0.0333251953125
0.019805908203125
0.0721435546875
-0.174346923828125
0.0589599609375
-0.159332275390625
0.005859375
-0.00439453125
-0.002197265625
-0.038818359375
0.000732421875
-0.07177734375
-0.0025634765625
-0.005126953125
-0.005126953125
-0.059326171875
-0.0069580078125
-0.00439453125
-0.0106201171875
-0.0106201171875
-0.0091552734375
-0.0267333984375
-0.0025634765625
-0.068511962890625
0.0003662109375
-0.0487060546875
-0.002197265625
0.41937255859375
-0.000732421875
0.546417236328125
0.0032958984375
0.193756103515625
0.005859375
0.051300048828125
0.0040283203125
0.0
-0.0010986328125
-0.045806884765625
0.005126953125
-0.239898681640625
0.005126953125
-0.288970947265625
-0.0029296875
-0.155303955078125
-0.0010986328125
-0.147216796875
0.00146484375
-0.1080322265625
0.0018310546875
-0.05859375
0.0040283203125
-0.046875
0.0018310546875
-0.0322265625
-0.0029296875
-0.04248046875
-0.003662109375
-0.075469970703125
-0.003662109375
-0.136993408203125
0.00146484375
-0.275054931640625
-0.0106201171875
-0.197418212890625
-0.0889892578125
0.0230712890625
-0.019775390625
-0.008056640625
0.1124267578125
-0.065185546875
0.0443115234375
-0.0062255859375
-0.012451171875
0.0303955078125
-0.00146484375
0.018310546875
-0.003662109375
-0.041015625
-0.00439453125
-0.021240234375
-0.0091552734375
0.0230712890625
-0.0113525390625
-0.0322265625
-0.0087890625
0.027099609375
-0.0062255859375
0.0322265625
-0.0018310546875
-0.006591796875
-0.000732421875
-0.0662841796875
0.0
-0.03955078125
0.000732421875
0.02197265625
0.003662109375
0.0032958984375
0.002197265625
0.03955078125
0.000732421875
0.0728759765625
0.000732421875
0.054931640625
0.000732421875
-0.032958984375
-0.0029296875
0.016143798828125
-0.005126953125
0.00146484375
0.0025634765625
-0.0091552734375
-0.0106201171875
0.101837158203125
-0.053466796875
0.076904296875
-0.0062255859375
-0.01171875
0.0736083984375
-0.0274658203125
0.0322265625
0.0615234375
-0.005126953125
0.0699462890625
0.0018310546875
0.0699462890625
-0.00439453125
0.0531005859375
-0.0047607421875
0.0897216796875
-0.005859375
0.165557861328125
-0.0091552734375
0.117218017578125
-0.008056640625
0.0802001953125
-0.00146484375
0.01171875
-0.0003662109375
-0.06884765625
-0.0010986328125
-0.121978759765625
0.0032958984375
-0.081695556640625
0.0003662109375
-0.008056640625
-0.0018310546875
-0.065185546875
-0.00146484375
-0.0552978515625
-0.0025634765625
-0.0498046875
-0.00439453125
-0.095947265625
-0.005126953125
-0.1160888671875
-0.0003662109375
-0.0692138671875
-0.0003662109375
-0.0172119140625
0.0
0.0054931640625
0.0
0.0054931640625
-0.003662109375
0.0054931640625
-0.003662109375
0.0457763671875
-0.0032958984375
0.0113525390625
-0.0018310546875
0.019775390625
-0.000732421875
0.0164794921875
-0.0003662109375
0.03076171875
-0.0003662109375
0.0556640625
0.0087890625
0.0655517578125
0.0084228515625
0.0611572265625
-0.00439453125
-0.01904296875
-0.005126953125
-0.0216064453125
-0.0032958984375
-0.0684814453125
-0.0377197265625
0.0435791015625
-0.031494140625
0.010986328125
0.03662109375
-0.11572265625
0.0472412109375
-0.018310546875
0.010986328125
-0.04248046875
-0.005126953125
0.022705078125
-0.0018310546875
0.0106201171875
-0.0032958984375
-0.0487060546875
-0.0069580078125
-0.073974609375
-0.0062255859375
-0.0538330078125
-0.0062255859375
-0.026397705078125
-0.0062255859375
-0.0047607421875
-0.00146484375
0.078399658203125
0.0003662109375
0.052734375
0.002197265625
0.0157470703125
0.0032958984375
-0.027099609375
0.0018310546875
-0.0128173828125
0.0032958984375
-0.0142822265625
0.00732421875
0.0355224609375
0.0029296875
0.0809326171875
-0.00146484375
0.0128173828125
-0.0135498046875
0.05419921875
-0.0205078125
0.03515625
-0.0120849609375
0.0084228515625
-0.0084228515625
0.0010986328125
-0.0047607421875
0.0377197265625
-0.0047607421875
0.0692138671875
-0.00439453125
0.0399169921875
-0.0025634765625
0.0369873046875
0.00146484375
-0.0150146484375
-0.0032958984375
0.002197265625
-0.0018310546875
-0.0179443359375
0.0
-0.032958984375
-0.0970458984375
0.0721435546875
-0.040283203125
0.0010986328125
0.1263427734375
-0.10986328125
0.0670166015625
-0.0487060546875
-0.0087890625
0.002197265625
-0.0003662109375
-0.0142822265625
0.00146484375
0.01171875
0.0
-0.0201416015625
-0.002197265625
-0.01318359375
-0.006591796875
-0.053466796875
-0.005859375
-0.0699462890625
-0.002197265625
0.01171875
0.0025634765625
-0.0205078125
0.0025634765625
0.03369140625
0.0010986328125
0.0040283203125
0.0003662109375
-0.0391845703125
0.00146484375
-0.031494140625
0.0032958984375
0.03076171875
0.0010986328125
0.0692138671875
0.0003662109375
0.0673828125
0.00146484375
0.0384521484375
0.002197265625
-0.0589599609375
0.0
0.029296875
0.002197265625
-0.0029296875
0.0018310546875
-0.0087890625
-0.002197265625
-0.0260009765625
0.0018310546875
-0.053466796875
0.000732421875
0.00439453125
0.0018310546875
-0.015380859375
0.002197265625
-0.0186767578125
-0.000732421875
-0.0802001953125
0.0010986328125
-0.057861328125
-0.0113525390625
0.0626220703125
-0.073974609375
0.071044921875
-0.009521484375
-0.076171875
0.103271484375
-0.06884765625
0.03955078125
-0.01025390625
-0.012451171875
-0.0142822265625
-0.0029296875
0.0274658203125
-0.0032958984375
-0.0069580078125
-0.005126953125
0.015380859375
-0.0087890625
0.038818359375
-0.01171875
0.05419921875
-0.009521484375
0.046142578125
-0.003662109375
0.009521484375
-0.0003662109375
0.01318359375
0.00146484375
0.019775390625
0.000732421875
0.063720703125
0.0003662109375
0.0234375
0.0032958984375
0.0589599609375
0.0018310546875
0.035888671875
-0.0018310546875
0.005859375
-0.00146484375
0.0289306640625
0.000732421875
-0.0260009765625
0.0
0.008056640625
-0.0018310546875
-0.0142822265625
-0.0018310546875
0.008056640625
-0.0010986328125
0.03662109375
0.0003662109375
0.0457763671875
0.0003662109375
0.017578125
0.0032958984375
0.041778564453125
0.0003662109375
0.0186767578125
0.0142822265625
-0.0128173828125
0.0274658203125
0.030059814453125
-0.0421142578125
0.10986328125
-0.0135498046875
0.1124267578125
0.0809326171875
-0.03515625
0.0406494140625
0.005126953125
-0.005126953125
0.024169921875
-0.00146484375
0.0216064453125
0.000732421875
0.0472412109375
-0.000732421875
0.06591796875
-0.0018310546875
0.0699462890625
-0.005126953125
0.0443115234375
-0.008056640625
0.090484619140625
-0.006591796875
0.040679931640625
0.000732421875
0.028564453125
0.0
0.041015625
-0.0029296875
-0.02490234375
0.000732421875
0.0626220703125
0.0025634765625
0.0618896484375
0.0010986328125
0.013916015625
-0.0018310546875
-0.01171875
-0.0010986328125
-0.0260009765625
-0.003662109375
-0.07177734375
-0.0029296875
-0.1014404296875
-0.0018310546875
-0.082427978515625
-0.0018310546875
-0.101470947265625
-0.0018310546875
-0.054931640625
-0.002197265625
-0.06884765625
0.00146484375
-0.0391845703125
-0.000732421875
-0.0721435546875
-0.0003662109375
-0.158233642578125
-0.005126953125
-0.144683837890625
-0.0040283203125
-0.10693359375
-0.005126953125
-0.0421142578125
-0.1087646484375
0.079833984375
-0.041015625
0.01171875
0.131103515625
-0.1669921875
0.059326171875
-0.0267333984375
-0.013916015625
-0.034423828125
-0.0032958984375
-0.0596923828125
-0.0040283203125
0.005859375
-0.0047607421875
-0.062255859375
-0.0062255859375
-0.012451171875
-0.0084228515625
-0.0120849609375
-0.00732421875
-0.0054931640625
-0.0062255859375
-0.014312744140625
-0.002197265625
-0.0205078125
-0.0040283203125
-0.0179443359375
-0.003662109375
-0.0003662109375
0.0010986328125
0.0267333984375
0.0010986328125
-0.059356689453125
0.0018310546875
-0.00146484375
0.0010986328125
0.010986328125
-0.00439453125
-0.0216064453125
-0.0062255859375
-0.0234375
-0.003662109375
-0.024169921875
0.0
0.037353515625
0.002197265625
0.0150146484375
-0.000732421875
0.0252685546875
0.0
0.0311279296875
0.00146484375
0.039581298828125
0.00146484375
-0.0091552734375
0.00439453125
0.106201171875
0.0010986328125
0.156036376953125
-0.002197265625
