-0.277984619140625
0.749359130859375
-0.261505126953125
0.749725341796875
0.0230712890625
0.0
0.025634765625
0.0
0.0362548828125
0.0
0.0421142578125
0.0
0.041015625
0.0003662109375
0.02490234375
0.0
0.000732421875
0.0
-0.0179443359375
0.0
0.003662109375
0.0
0.015380859375
-0.0003662109375
0.01025390625
0.0
0.0223388671875
0.0
0.017578125
0.0
0.0029296875
-0.0245361328125
0.023101806640625
-0.035186767578125
0.031524658203125
-0.053497314453125
0.01318359375
-0.068115234375
0.031494140625
-0.0567626953125
0.0311279296875
-0.0567626953125
0.00439453125
-0.0509033203125
0.00439453125
-0.0596923828125
0.018310546875
-0.0633544921875
0.019775390625
-0.0443115234375
0.0087890625
-0.028564453125
0.01171875
-0.0296630859375
0.0010986328125
-0.018310546875
-0.002197265625
-0.0150146484375
0.0091552734375
-0.026397705078125
0.0098876953125
-0.024566650390625
0.018310546875
-0.006591796875
0.0186767578125
0.0047607421875
-0.008056640625
-0.003662109375
0.030029296875
0.044342041015625
0.041015625
-0.005126953125
-0.002197265625
-0.062286376953125
0.01025390625
-0.016845703125
0.0084228515625
-0.01318359375
-0.0062255859375
-0.005126953125
-0.0062255859375
-0.009521484375
0.0069580078125
-0.019775390625
0.018310546875
-0.0135498046875
0.0113525390625
0.006591796875
0.00146484375
0.0076904296875
-0.0069580078125
0.00146484375
-0.0062255859375
-0.0025634765625
0.016845703125
-0.027099609375
0.017578125
-0.0289306640625
0.002197265625
-0.006591796875
0.0032958984375
0.0091552734375
0.0003662109375
0.0113525390625
-0.034423828125
-0.00439453125
0.022705078125
0.0340576171875
0.030029296875
-0.0032958984375
-0.0260009765625
-0.04833984375
0.000732421875
-0.013916015625
-0.0025634765625
-0.009521484375
-0.01025390625
-0.0047607421875
-0.005859375
-0.0146484375
0.00732421875
-0.0223388671875
0.01318359375
-0.0120849609375
0.0010986328125
0.0062255859375
-0.00439453125
0.002197265625
-0.0047607421875
-0.0047607421875
0.0003662109375
-0.0106201171875
0.006591796875
-0.0230712890625
0.006591796875
-0.0260009765625
-0.0029296875
-0.009521484375
-0.0069580078125
0.0084228515625
-0.0047607421875
0.0091552734375
-0.032958984375
-0.0113525390625
0.0311279296875
0.030029296875
0.0289306640625
-0.0025634765625
-0.0303955078125
-0.05419921875
-0.0018310546875
-0.01318359375
-0.003662109375
-0.0120849609375
-0.0091552734375
-0.0091552734375
-0.0084228515625
-0.0164794921875
-0.002197265625
-0.021240234375
0.0003662109375
-0.0040283203125
0.0062255859375
0.005126953125
0.0010986328125
0.0025634765625
-0.0062255859375
-0.000732421875
-0.003662109375
-0.005126953125
0.0054931640625
-0.0194091796875
0.0135498046875
-0.0322265625
0.0
-0.0142822265625
-0.0040283203125
0.0029296875
0.0128173828125
-0.00732421875
0.01611328125
-0.0230712890625
0.008056640625
0.005126953125
0.0234375
-0.0128173828125
0.0113525390625
-0.049102783203125
-0.01318359375
-0.020172119140625
0.000732421875
-0.013916015625
-0.000732421875
-0.0128173828125
-0.00732421875
-0.01318359375
-0.0084228515625
-0.017578125
-0.000732421875
-0.0172119140625
0.0025634765625
-0.002197265625
-0.0076904296875
0.0091552734375
-0.0142822265625
0.0
-0.021240234375
0.000732421875
-0.022705078125
-0.0025634765625
-0.0164794921875
-0.01171875
-0.0120849609375
-0.006591796875
-0.0142822265625
0.0076904296875
-0.003662109375
0.012451171875
0.00732421875
0.0032958984375
-0.018310546875
-0.012451171875
0.032958984375
-0.00146484375
0.0318603515625
-0.003662109375
-0.0172119140625
-0.01611328125
0.005859375
-0.010986328125
0.0062255859375
-0.01171875
0.000732421875
-0.0010986328125
-0.0032958984375
-0.000732421875
0.018310546875
-0.0263671875
0.035888671875
-0.030029296875
0.0267333984375
-0.0135498046875
0.0135498046875
-0.0091552734375
0.0113525390625
-0.0076904296875
0.0091552734375
-0.0106201171875
0.01611328125
-0.0106201171875
0.0208740234375
-0.019775390625
0.0113525390625
-0.013916015625
0.0142822265625
0.0
0.017578125
-0.0069580078125
-0.0157470703125
0.0
0.056793212890625
-0.037353515625
0.048736572265625
-0.029296875
-0.02783203125
0.0106201171875
0.0120849609375
-0.0128173828125
0.0150146484375
-0.013916015625
0.006591796875
-0.0091552734375
0.01025390625
-0.0179443359375
0.0172119140625
-0.02490234375
0.0245361328125
-0.0263671875
0.02490234375
-0.0234375
0.0113525390625
-0.0186767578125
0.003662109375
-0.008056640625
-0.000732421875
0.0032958984375
0.00732421875
-0.01904296875
0.012451171875
-0.0263671875
0.0106201171875
-0.016845703125
0.010986328125
-0.0120849609375
0.013916015625
-0.002197265625
-0.01611328125
-0.0032958984375
0.049072265625
-0.029693603515625
0.046875
-0.032989501953125
-0.030029296875
-0.002197265625
0.00439453125
-0.012451171875
0.009521484375
-0.021240234375
0.0018310546875
-0.00732421875
0.0010986328125
-0.0098876953125
0.0128173828125
-0.0260009765625
0.0205078125
-0.027099609375
0.0164794921875
-0.0120849609375
0.0164794921875
-0.01318359375
0.012451171875
-0.0146484375
0.0029296875
-0.0146484375
0.0010986328125
-0.019775390625
0.00439453125
-0.021240234375
-0.0032958984375
-0.0062255859375
-0.0128173828125
0.015380859375
-0.0157470703125
0.0135498046875
-0.0311279296875
0.005859375
0.003662109375
0.013916015625
-0.000732421875
0.0
-0.0325927734375
-0.0084228515625
-0.016845703125
0.008056640625
-0.0216064453125
0.01171875
-0.0260009765625
0.012451171875
-0.0267333984375
0.0040283203125
-0.0157470703125
0.000732421875
-0.0098876953125
0.019775390625
-0.0146484375
0.030029296875
-0.017578125
0.0201416015625
-0.016845703125
0.013916015625
-0.0146484375
0.0069580078125
-0.0087890625
-0.003662109375
-0.009521484375
0.00439453125
-0.0194091796875
0.0263671875
-0.016845703125
0.02783203125
-0.026031494140625
0.0208740234375
-0.026031494140625
0.057159423828125
0.008056640625
0.014678955078125
0.00439453125
-0.0399169921875
-0.013916015625
-0.0047607421875
-0.012451171875
0.0084228515625
-0.01611328125
0.01025390625
-0.0201416015625
0.0069580078125
-0.0128173828125
-0.0032958984375
-0.00146484375
-0.000732421875
-0.0003662109375
0.0164794921875
-0.0032958984375
0.018310546875
-0.00732421875
0.008056640625
-0.005859375
0.002197265625
-0.0054931640625
-0.0010986328125
-0.0018310546875
-0.006591796875
-0.006591796875
0.0032958984375
-0.008056640625
0.0172119140625
-0.0054931640625
0.0186767578125
-0.030029296875
0.00439453125
0.0120849609375
0.04248046875
0.021240234375
0.0106201171875
-0.0208740234375
-0.0413818359375
-0.010986328125
-0.002197265625
-0.0062255859375
-0.0003662109375
-0.0120849609375
0.005126953125
-0.0135498046875
0.00146484375
-0.0029296875
-0.0091552734375
0.005859375
-0.0032958984375
0.008056640625
0.00732421875
0.000732421875
0.01025390625
-0.0032958984375
0.002197265625
-0.008056640625
0.0032958984375
-0.003662109375
-0.0029296875
0.000732421875
-0.0098876953125
-0.003662109375
-0.000732421875
-0.0003662109375
0.009521484375
-0.0010986328125
0.0146484375
-0.019775390625
0.00439453125
0.0040283203125
0.03515625
0.019775390625
0.00439453125
-0.0076904296875
-0.037353515625
-0.00732421875
-0.00439453125
-0.0032958984375
-0.000732421875
-0.01025390625
0.002197265625
-0.01025390625
-0.003662109375
-0.003662109375
-0.010986328125
0.005859375
-0.006591796875
0.005859375
0.010986328125
-0.0010986328125
0.013916015625
-0.0029296875
0.0029296875
-0.00732421875
0.0054931640625
-0.0003662109375
-0.005126953125
0.0047607421875
-0.0150146484375
0.00146484375
-0.005859375
0.0025634765625
0.009521484375
0.0062255859375
0.0084228515625
-0.025634765625
0.003662109375
0.0340576171875
0.0208740234375
0.0340576171875
-0.005859375
-0.035888671875
-0.0205078125
0.0
-0.003662109375
0.00439453125
-0.009521484375
-0.0025634765625
-0.0010986328125
-0.0084228515625
0.0025634765625
-0.002197265625
-0.0098876953125
0.0164794921875
-0.0150146484375
0.016845703125
0.0
0.005859375
0.009521484375
-0.00146484375
0.0018310546875
0.000732421875
-0.0003662109375
0.0040283203125
0.0
0.0040283203125
-0.0106201171875
0.000732421875
-0.005859375
0.002197265625
0.0157470703125
0.0069580078125
0.0146484375
-0.029296875
0.0216064453125
0.0435791015625
-0.0296630859375
0.03955078125
-0.0238037109375
-0.0384521484375
0.0263671875
-0.0029296875
0.000732421875
-0.000732421875
-0.0025634765625
-0.008056640625
0.0091552734375
-0.010986328125
0.0091552734375
0.0029296875
-0.0113525390625
0.0120849609375
-0.010986328125
0.0135498046875
-0.005859375
0.008056640625
-0.0098876953125
0.00146484375
-0.0025634765625
-0.0018310546875
0.000732421875
0.0018310546875
-0.0047607421875
0.006591796875
-0.008056640625
0.000732421875
0.0010986328125
0.003662109375
0.0098876953125
0.0018310546875
0.0003662109375
-0.0076904296875
-0.0377197265625
0.024169921875
-0.006591796875
0.015380859375
0.0201416015625
-0.013916015625
-0.0040283203125
0.003662109375
-0.0047607421875
0.003662109375
-0.0098876953125
-0.0069580078125
0.0010986328125
-0.0040283203125
-0.002197265625
0.0069580078125
-0.0157470703125
0.0135498046875
-0.010986328125
0.0120849609375
0.0040283203125
0.0069580078125
-0.0029296875
0.0054931640625
-0.01171875
0.005126953125
-0.01171875
0.009521484375
-0.015777587890625
0.0084228515625
-0.013580322265625
0.006591796875
0.007720947265625
0.000732421875
0.013580322265625
-0.02783203125
0.008056640625
0.026031494140625
0.0032958984375
0.0325927734375
-0.021270751953125
-0.017608642578125
-0.022735595703125
-0.002197265625
-0.009521484375
0.0
-0.0087890625
-0.0076904296875
-0.002197265625
-0.0120849609375
-0.0069580078125
-0.006591796875
-0.01025390625
-0.0018310546875
-0.0003662109375
0.0025634765625
0.008056640625
-0.0062255859375
0.0120849609375
-0.01171875
0.0069580078125
-0.0113525390625
0.002197265625
-0.0047607421875
-0.0062255859375
-0.0062255859375
0.000732421875
-0.009521484375
0.0146484375
-0.0032958984375
0.015380859375
-0.01025390625
0.015411376953125
-0.019775390625
0.029693603515625
0.01171875
0.0128173828125
0.015380859375
-0.030059814453125
-0.01171875
-0.0164794921875
-0.0040283203125
0.0003662109375
-0.005126953125
0.0
-0.0142822265625
0.004058837890625
-0.0084228515625
-0.004058837890625
0.0025634765625
-0.005523681640625
0.006591796875
0.007720947265625
0.00146484375
0.014312744140625
-0.00439453125
0.008056640625
-0.0076904296875
0.005859375
-0.0054931640625
-0.0029296875
-0.0003662109375
-0.0106201171875
-0.00732421875
0.00146484375
-0.006591796875
0.0146484375
-0.002197265625
0.01611328125
-0.0146484375
0.005859375
-0.0087890625
0.0355224609375
0.0164794921875
0.005859375
0.006591796875
-0.0380859375
-0.0069580078125
-0.00732421875
-0.0029296875
-0.0003662109375
-0.01171875
0.0047607421875
-0.0120849609375
0.0003662109375
-0.0032958984375
-0.009521484375
0.0032958984375
-0.0040283203125
0.005859375
0.0106201171875
0.002197265625
0.0113525390625
-0.0018310546875
0.0032958984375
-0.006591796875
0.00439453125
-0.0003662109375
-0.0054931640625
0.003662109375
-0.0106201171875
-0.005126953125
0.00146484375
-0.006591796875
0.0135498046875
-0.0003662109375
0.013916015625
-0.00732421875
0.0084228515625
-0.01318359375
0.0274658203125
0.013916015625
0.006591796875
0.0084228515625
-0.027099609375
-0.010986328125
-0.0106201171875
-0.0047607421875
0.0003662109375
-0.0062255859375
0.0
-0.0106201171875
-0.0010986328125
-0.008056640625
-0.0069580078125
0.0047607421875
-0.009521484375
0.005859375
0.0069580078125
0.0029296875
0.012451171875
-0.0025634765625
0.005126953125
-0.005859375
0.0029296875
-0.0029296875
-0.0010986328125
0.0010986328125
-0.01025390625
-0.00146484375
-0.0040283203125
-0.0069580078125
0.0087890625
0.00146484375
0.0084228515625
0.0003662109375
0.01025390625
-0.01611328125
-0.0032958984375
0.0201416015625
0.013916015625
0.013916015625
0.0032958984375
-0.01904296875
-0.018310546875
0.0025634765625
-0.002197265625
0.0025634765625
-0.0047607421875
-0.0040283203125
0.000732421875
-0.003662109375
-0.005859375
0.0010986328125
-0.0120849609375
0.01171875
-0.0025634765625
0.01025390625
0.0091552734375
0.0018310546875
0.003662109375
-0.0018310546875
0.0003662109375
-0.0032958984375
0.00439453125
0.00439453125
-0.005859375
0.00439453125
-0.01025390625
-0.0018310546875
-0.0040283203125
-0.0010986328125
0.0120849609375
0.0047607421875
0.0098876953125
-0.016845703125
0.0157470703125
0.0029296875
-0.0120849609375
0.02490234375
-0.0179443359375
-0.0029296875
0.01171875
-0.002197265625
-0.0040283203125
0.0010986328125
-0.0025634765625
-0.005126953125
0.006591796875
-0.0150146484375
0.0098876953125
-0.0120849609375
0.0003662109375
0.003662109375
-0.01171875
0.0098876953125
-0.0087890625
0.0087890625
0.00146484375
0.0
0.0040283203125
-0.00146484375
-0.00146484375
0.0
-0.0062255859375
0.00146484375
-0.00439453125
-0.0018310546875
-0.0029296875
-0.00439453125
0.000732421875
0.0047607421875
0.005859375
-0.0069580078125
0.013916015625
-0.00146484375
-0.0150146484375
0.0186767578125
-0.005859375
0.005126953125
0.0106201171875
-0.005859375
-0.0142822265625
0.00146484375
-0.0025634765625
0.002197265625
-0.003662109375
-0.0084228515625
0.0
-0.002197265625
-0.0032958984375
0.0113525390625
-0.0135498046875
0.0146484375
-0.009521484375
0.0146484375
-0.0062255859375
0.0091552734375
-0.0054931640625
0.00439453125
-0.008056640625
0.0010986328125
-0.005859375
0.0047607421875
-0.0098876953125
0.00146484375
-0.0069580078125
0.0018310546875
-0.001495361328125
0.005859375
0.0003662109375
-0.009521484375
0.008453369140625
-0.0087890625
0.008056640625
0.01318359375
-0.00439453125
0.000732421875
-0.013214111328125
-0.0172119140625
-0.003692626953125
-0.00732421875
0.00146484375
-0.01025390625
0.001861572265625
-0.01025390625
-0.0025634765625
-0.0032958984375
-0.008087158203125
0.003662109375
-0.0010986328125
0.0106201171875
0.009918212890625
0.0029296875
0.013580322265625
-0.0032958984375
0.0069580078125
-0.00732421875
0.0084228515625
-0.0025634765625
-0.000732421875
0.00146484375
-0.0069580078125
-0.0047607421875
0.0040283203125
-0.0029296875
0.015380859375
0.0003662109375
0.01611328125
-0.0205078125
0.0040283203125
0.0047607421875
0.04833984375
0.021240234375
0.0098876953125
-0.0106201171875
-0.04248046875
-0.006591796875
-0.0040283203125
-0.002197265625
-0.000732421875
-0.0047607421875
0.000732421875
-0.008056640625
-0.002197265625
-0.0032958984375
-0.0076904296875
0.0076904296875
-0.002197265625
0.005126953125
0.0150146484375
0.000732421875
0.0128173828125
-0.003662109375
0.0047607421875
-0.0084228515625
0.0069580078125
0.0
-0.005126953125
0.00439453125
-0.01171875
-0.0010986328125
-0.0010986328125
-0.0003662109375
0.0098876953125
0.003662109375
0.01171875
-0.01611328125
0.0091552734375
-0.0113525390625
0.037353515625
0.016845703125
0.0047607421875
0.0040283203125
-0.0340576171875
-0.0076904296875
-0.0062255859375
-0.00439453125
0.0
-0.005126953125
-0.000732421875
-0.0062255859375
-0.005126953125
-0.0018310546875
-0.010986328125
0.005859375
-0.005859375
0.00732421875
0.0084228515625
0.0029296875
0.009521484375
-0.003662109375
0.003662109375
-0.003662109375
0.0025634765625
-0.0025634765625
-0.0003662109375
0.0029296875
-0.0113525390625
0.0
-0.0025634765625
-0.00439453125
0.01171875
0.0032958984375
0.0087890625
-0.003662109375
0.01171875
-0.0146484375
0.0135498046875
0.0146484375
0.0076904296875
0.01318359375
-0.0157470703125
-0.0135498046875
-0.0142822265625
-0.0010986328125
-0.002197265625
-0.0010986328125
-0.0025634765625
-0.009521484375
0.0
-0.005859375
-0.0084228515625
0.0010986328125
-0.0091552734375
0.006591796875
0.00439453125
0.0047607421875
0.01318359375
0.0010986328125
0.0032958984375
-0.0029296875
0.0010986328125
-0.0010986328125
0.000732421875
0.005859375
-0.0098876953125
0.0003662109375
-0.006591796875
-0.0032958984375
0.0029296875
-0.0003662109375
0.01318359375
0.00146484375
0.01171875
-0.0274658203125
-0.0040283203125
0.03076171875
0.0135498046875
0.030029296875
0.00146484375
-0.030029296875
-0.018310546875
-0.0018310546875
-0.0018310546875
-0.006591796875
0.0010986328125
-0.0098876953125
0.0018310546875
-0.01025390625
-0.00146484375
-0.0025634765625
-0.008056640625
0.0113525390625
-0.006591796875
0.013916015625
0.0029296875
0.0069580078125
0.0032958984375
-0.002197265625
0.0029296875
0.002197265625
-0.000732421875
0.0054931640625
-0.0087890625
0.0040283203125
-0.009521484375
-0.0040283203125
0.00439453125
-0.0029296875
0.0128173828125
0.005126953125
0.0091552734375
-0.013916015625
0.017578125
0.005859375
-0.01904296875
0.0238037109375
-0.0142822265625
0.0003662109375
0.0164794921875
-0.0047607421875
-0.0003662109375
-0.0018310546875
-0.0047607421875
-0.0087890625
0.005126953125
-0.013916015625
0.012451171875
-0.0032958984375
-0.002197265625
0.0087890625
-0.0157470703125
0.015380859375
-0.01025390625
0.0087890625
0.0047607421875
0.0025634765625
0.0025634765625
-0.000732421875
0.00439453125
-0.002197265625
-0.00146484375
0.000732421875
-0.0069580078125
-0.0025634765625
0.0032958984375
0.00146484375
0.0069580078125
0.003662109375
0.006591796875
-0.021240234375
0.0179443359375
0.0194091796875
-0.028564453125
0.0318603515625
-0.019775390625
-0.0128173828125
0.027099609375
-0.0032958984375
-0.0029296875
0.002197265625
-0.01025390625
-0.0029296875
0.0018310546875
-0.00732421875
0.0054931640625
0.002197265625
-0.0076904296875
0.017578125
-0.0260009765625
0.017578125
-0.0157470703125
0.010986328125
-0.0003662109375
0.00732421875
-0.01025390625
0.0
-0.005126953125
0.0025634765625
0.0
0.0047607421875
-0.009521484375
0.002197265625
-0.01171875
0.0069580078125
0.005859375
0.0106201171875
0.0029296875
-0.0194091796875
-0.0201416015625
0.030029296875
-0.0018310546875
0.0289306640625
0.00439453125
-0.0281982421875
-0.005859375
-0.002197265625
-0.00439453125
-0.0062255859375
-0.005859375
-0.0128173828125
-0.0054931640625
-0.0120849609375
-0.007720947265625
-0.0054931640625
-0.011383056640625
0.0040283203125
-0.003662109375
0.00146484375
0.011016845703125
-0.00439453125
0.009918212890625
-0.0091552734375
0.0084228515625
-0.0084228515625
0.0003662109375
-0.003662109375
-0.0054931640625
-0.0062255859375
0.002197265625
-0.005126953125
0.010986328125
-0.00146484375
0.013916015625
-0.009521484375
0.0135498046875
-0.019775390625
0.03515625
0.010986328125
0.0128173828125
0.01318359375
-0.028564453125
-0.0076904296875
-0.0146484375
-0.0003662109375
-0.000732421875
-0.0032958984375
0.0
-0.0076904296875
-0.0025634765625
-0.008056640625
-0.0054931640625
0.0025634765625
-0.003662109375
0.005859375
0.0113525390625
0.0010986328125
0.015380859375
-0.0029296875
0.0062255859375
-0.005126953125
0.00439453125
-0.002197265625
-0.0032958984375
0.0029296875
-0.0091552734375
0.0
-0.000732421875
-0.0040283203125
0.0146484375
0.0010986328125
0.015380859375
-0.0164794921875
0.0069580078125
-0.008056640625
0.0406494140625
0.01904296875
0.005859375
0.00439453125
-0.0384521484375
-0.00439453125
-0.008056640625
-0.0010986328125
-0.002197265625
-0.006591796875
0.00146484375
-0.009521484375
-0.0025634765625
-0.0040283203125
-0.0087890625
0.00146484375
-0.0003662109375
0.0054931640625
0.010986328125
0.0047607421875
0.0087890625
-0.000732421875
0.0029296875
-0.0025634765625
0.002197265625
-0.0003662109375
-0.0040283203125
0.0032958984375
-0.009521484375
-0.0029296875
0.00146484375
-0.0029296875
0.01318359375
0.0018310546875
0.0128173828125
-0.0146484375
0.0091552734375
-0.006591796875
0.0281982421875
0.0172119140625
0.0032958984375
0.005126953125
-0.0281982421875
-0.00732421875
-0.0062255859375
-0.002197265625
-0.002197265625
-0.0062255859375
0.0003662109375
-0.01025390625
-0.000732421875
-0.005859375
-0.006591796875
0.0018310546875
-0.0040283203125
0.0087890625
0.005859375
0.0047607421875
0.01025390625
0.0029296875
0.000732421875
-0.002197265625
0.000732421875
-0.0029296875
0.0
0.005126953125
-0.0098876953125
-0.00146484375
-0.00146484375
-0.0047607421875
0.0087890625
0.00146484375
0.0106201171875
-0.0029296875
0.01318359375
-0.01318359375
0.009521484375
0.0194091796875
0.003662109375
0.012451171875
-0.010986328125
-0.0164794921875
-0.010986328125
-0.000732421875
-0.0018310546875
-0.005126953125
0.0
-0.0091552734375
-0.0003662109375
-0.00732421875
-0.006591796875
0.0018310546875
-0.0091552734375
0.009521484375
0.003662109375
0.0076904296875
0.0087890625
0.0025634765625
0.0018310546875
-0.0018310546875
0.0029296875
0.00146484375
-0.0029296875
0.0032958984375
-0.005859375
0.0
-0.0062255859375
-0.0025634765625
0.0010986328125
0.005126953125
0.0084228515625
0.0054931640625
0.0113525390625
-0.02783203125
-0.0003662109375
0.0311279296875
-0.012451171875
0.02783203125
0.0003662109375
-0.030029296875
0.01171875
-0.00146484375
0.0076904296875
-0.0040283203125
0.00146484375
-0.0106201171875
0.008056640625
-0.0120849609375
0.0047607421875
0.0003662109375
-0.0098876953125
0.0146484375
-0.010986328125
0.0135498046875
-0.0003662109375
0.003662109375
-0.000732421875
-0.000732421875
-0.000732421875
-0.005859375
0.0025634765625
-0.00146484375
0.0
0.0029296875
-0.002197265625
-0.0010986328125
0.000732421875
0.005126953125
0.00439453125
0.0076904296875
0.0029296875
-0.0263671875
-0.0029296875
0.0362548828125
-0.0186767578125
0.0340576171875
-0.0003662109375
-0.0322265625
0.012451171875
0.00146484375
-0.0076904296875
0.003662109375
-0.0076904296875
-0.002197265625
0.0047607421875
-0.0029296875
0.0
0.003662109375
-0.0194091796875
0.015380859375
-0.017578125
0.0146484375
-0.0029296875
0.0091552734375
-0.00439453125
0.0062255859375
-0.005859375
0.00146484375
-0.0040283203125
0.003662109375
-0.0128173828125
0.0025634765625
-0.01318359375
0.00439453125
-0.00439453125
0.005859375
0.005126953125
-0.00146484375
0.006591796875
-0.015380859375
-0.0025634765625
0.012451171875
0.0018310546875
0.01318359375
-0.005859375
-0.015380859375
-0.0098876953125
-0.003662109375
-0.00146484375
-0.0040283203125
-0.0018310546875
-0.0091552734375
-0.002197265625
-0.0091552734375
-0.006591796875
0.0010986328125
-0.005126953125
0.00732421875
0.008056640625
0.0003662109375
0.0157470703125
-0.003662109375
0.00732421875
-0.0069580078125
0.0062255859375
-0.003662109375
-0.00146484375
-0.0010986328125
-0.00732421875
-0.00439453125
0.0
-0.0018310546875
0.01171875
0.0
0.01611328125
-0.0216064453125
0.005859375
-0.0047607421875
0.0472412109375
0.0186767578125
0.0087890625
-0.005859375
-0.04248046875
-0.0069580078125
-0.006591796875
-0.002197265625
-0.00146484375
-0.0069580078125
0.00146484375
-0.0087890625
-0.0029296875
-0.005126953125
-0.005859375
0.0025634765625
0.0010986328125
0.00439453125
0.012451171875
0.003662109375
0.0087890625
-0.000732421875
0.0029296875
-0.002197265625
0.00146484375
0.0
-0.0069580078125
-0.0025634765625
-0.0047607421875
-0.002197265625
0.003662109375
0.000732421875
0.013916015625
0.0018310546875
0.0135498046875
-0.028564453125
-0.0032958984375
0.0289306640625
0.0252685546875
0.029296875
0.005859375
-0.028564453125
-0.029296875
-0.0010986328125
-0.00439453125
-0.003662109375
0.0
-0.00732421875
0.000732421875
-0.0098876953125
-0.0029296875
-0.0029296875
-0.0069580078125
0.0047607421875
0.0029296875
0.00732421875
0.0106201171875
0.0047607421875
0.0040283203125
-0.000732421875
0.0003662109375
-0.0010986328125
0.0003662109375
0.0003662109375
-0.0062255859375
0.0
-0.005859375
-0.005859375
0.0062255859375
0.0
0.0128173828125
0.0054931640625
0.0098876953125
-0.0263671875
-0.0047607421875
0.029296875
0.018310546875
0.02783203125
0.005859375
-0.0311279296875
-0.0208740234375
-0.003662109375
-0.0003662109375
-0.0018310546875
-0.0010986328125
-0.009521484375
0.0010986328125
-0.0091552734375
-0.0047607421875
0.0003662109375
-0.01171875
0.00732421875
0.0003662109375
0.0113525390625
0.009521484375
0.0054931640625
0.0054931640625
-0.00146484375
-0.0003662109375
-0.0029296875
0.0
0.00146484375
-0.006591796875
-0.002197265625
-0.0047607421875
-0.00439453125
0.0040283203125
0.005126953125
0.01171875
0.0054931640625
0.0106201171875
-0.0274658203125
0.0179443359375
0.03076171875
-0.0010986328125
0.03515625
-0.02197265625
-0.0303955078125
-0.0003662109375
-0.0054931640625
0.003662109375
-0.003662109375
0.0029296875
-0.0098876953125
0.0047607421875
-0.0106201171875
0.00146484375
-0.0040283203125
-0.0040283203125
0.0128173828125
-0.01171875
0.0146484375
-0.0062255859375
0.005859375
0.0032958984375
0.00146484375
0.0
-0.0025634765625
0.0054931640625
0.000732421875
0.0029296875
-0.0003662109375
-0.009521484375
-0.003662109375
-0.006591796875
0.00146484375
0.0106201171875
0.00732421875
0.010986328125
-0.0245361328125
0.0230712890625
0.035888671875
-0.031494140625
0.0333251953125
-0.021240234375
-0.0355224609375
0.03515625
-0.0029296875
-0.000732421875
0.000732421875
-0.006591796875
-0.00439453125
-0.0029296875
-0.0091552734375
0.005859375
0.0
-0.0018310546875
0.013916015625
-0.0172119140625
0.013916015625
-0.0091552734375
0.00732421875
0.0054931640625
0.000732421875
-0.006591796875
-0.00146484375
-0.00439453125
-0.0003662109375
0.0025634765625
0.0029296875
-0.0076904296875
0.0040283203125
-0.0029296875
0.005859375
0.006591796875
0.0087890625
0.0010986328125
-0.0135498046875
-0.0252685546875
0.0245361328125
-0.0025634765625
0.019775390625
0.009521484375
-0.02490234375
-0.0106201171875
-0.0084228515625
-0.0018310546875
-0.0084228515625
-0.002197265625
-0.0098876953125
-0.0032958984375
-0.012451171875
-0.005126953125
-0.0029296875
-0.0106201171875
0.006591796875
0.0
0.0062255859375
0.008056640625
0.002197265625
0.0047607421875
-0.000732421875
0.00439453125
-0.002197265625
-0.0018310546875
0.000732421875
-0.0084228515625
-0.000732421875
-0.0010986328125
-0.0018310546875
0.01171875
0.00146484375
0.0135498046875
-0.0146484375
0.013916015625
-0.0186767578125
0.03955078125
0.015380859375
0.005126953125
0.0146484375
-0.0384521484375
-0.006591796875
-0.010986328125
-0.0029296875
0.0003662109375
-0.0040283203125
-0.000732421875
-0.0087890625
-0.0029296875
-0.00439453125
-0.0084228515625
0.0025634765625
-0.0018310546875
0.005859375
0.0106201171875
0.003662109375
0.0113525390625
-0.000732421875
0.00439453125
-0.0010986328125
0.0
0.0
-0.0069580078125
-0.000732421875
-0.005859375
-0.003662109375
0.005126953125
0.00146484375
0.0128173828125
0.0003662109375
0.013916015625
-0.0281982421875
-0.0047607421875
0.0289306640625
0.02490234375
0.0260009765625
0.0076904296875
-0.029296875
-0.030029296875
-0.0025634765625
-0.0025634765625
-0.002197265625
0.0
-0.008056640625
0.000732421875
-0.009521484375
-0.0032958984375
-0.002197265625
-0.0069580078125
0.005859375
0.00146484375
0.0076904296875
0.0087890625
0.0025634765625
0.005126953125
0.0003662109375
-0.0003662109375
-0.0025634765625
-0.000732421875
0.00146484375
-0.0087890625
-0.002197265625
-0.0003662109375
-0.0054931640625
0.0098876953125
0.0025634765625
0.0087890625
0.0029296875
0.0091552734375
-0.015380859375
-0.0040283203125
0.0205078125
0.01611328125
0.0179443359375
0.0
-0.0230712890625
-0.0201416015625
-0.0047607421875
0.0
-0.00439453125
-0.0010986328125
-0.0098876953125
0.0010986328125
-0.0087890625
-0.005126953125
-0.002197265625
-0.0087890625
0.0087890625
0.0032958984375
0.010986328125
0.0087890625
0.005859375
0.0029296875
0.0010986328125
-0.000732421875
0.000732421875
-0.002197265625
0.005859375
-0.00732421875
-0.000732421875
-0.0029296875
-0.0010986328125
0.0076904296875
0.0062255859375
0.00732421875
0.0032958984375
0.0047607421875
-0.0135498046875
-0.022705078125
0.0230712890625
-0.0018310546875
0.019775390625
0.022705078125
-0.021240234375
-0.00146484375
-0.0032958984375
0.0010986328125
-0.005126953125
0.0087890625
-0.010986328125
0.0069580078125
-0.006591796875
-0.00146484375
0.0025634765625
-0.01904296875
0.012451171875
-0.010986328125
0.013916015625
0.0047607421875
0.0062255859375
-0.0029296875
-0.0029296875
0.0062255859375
-0.0018310546875
-0.0029296875
0.0003662109375
-0.0091552734375
-0.00146484375
0.005126953125
0.0003662109375
0.0047607421875
0.005126953125
0.0062255859375
-0.000732421875
0.01171875
-0.0106201171875
-0.0205078125
0.02197265625
-0.0106201171875
0.0150146484375
0.017578125
-0.013916015625
-0.002197265625
-0.0018310546875
0.0003662109375
-0.0003662109375
0.002197265625
-0.0054931640625
-0.002197265625
-0.0040283203125
-0.0087890625
0.009521484375
-0.015380859375
0.016845703125
-0.0098876953125
0.0164794921875
-0.00732421875
0.0091552734375
-0.0087890625
0.00146484375
-0.002197265625
-0.000732421875
-0.0054931640625
-0.0018310546875
-0.01318359375
-0.002197265625
-0.005126953125
0.0
0.0054931640625
0.0010986328125
0.00732421875
-0.030029296875
0.0164794921875
0.0238037109375
0.0135498046875
0.025634765625
-0.01171875
-0.0355224609375
-0.0135498046875
-0.0098876953125
-0.000732421875
-0.00439453125
0.0
-0.006591796875
-0.00146484375
-0.009521484375
-0.003662109375
-0.00146484375
-0.0091552734375
0.008056640625
-0.000732421875
0.0076904296875
0.0106201171875
0.00146484375
0.0087890625
-0.00439453125
0.0062255859375
-0.00439453125
0.0010986328125
-0.002197265625
-0.00732421875
-0.0025634765625
0.000732421875
-0.0025634765625
0.0098876953125
0.0025634765625
0.0098876953125
-0.002197265625
0.0113525390625
-0.01904296875
0.0142822265625
0.0157470703125
0.0142822265625
0.0157470703125
-0.015380859375
-0.0146484375
-0.01904296875
-0.003662109375
0.0010986328125
-0.0029296875
-0.0010986328125
-0.0069580078125
-0.002197265625
-0.008056640625
-0.0062255859375
0.000732421875
-0.006591796875
0.0054931640625
0.00732421875
0.0029296875
0.0128173828125
-0.0018310546875
0.005859375
-0.0029296875
0.0018310546875
-0.003662109375
-0.0029296875
0.0018310546875
-0.01025390625
-0.000732421875
0.0
-0.0029296875
0.01318359375
0.0029296875
0.01171875
-0.0084228515625
0.01025390625
-0.0172119140625
0.028564453125
0.012451171875
0.010986328125
0.0142822265625
-0.0296630859375
-0.008056640625
-0.0157470703125
0.0
-0.0018310546875
-0.0029296875
-0.0003662109375
-0.009521484375
0.0
-0.0062255859375
-0.005859375
0.000732421875
-0.0025634765625
0.0084228515625
0.00732421875
0.0040283203125
0.0106201171875
0.0
0.002197265625
-0.0003662109375
-0.00146484375
0.000732421875
-0.003662109375
0.00439453125
-0.009521484375
-0.002197265625
-0.000732421875
-0.0010986328125
0.0087890625
0.002197265625
0.0128173828125
-0.0062255859375
0.0142822265625
-0.0157470703125
0.0194091796875
0.0150146484375
0.0076904296875
0.0150146484375
-0.0252685546875
-0.0098876953125
-0.0194091796875
0.0
-0.00146484375
-0.005859375
0.003662109375
-0.0084228515625
0.000732421875
-0.005859375
-0.0047607421875
0.00146484375
-0.00732421875
0.01171875
-0.0029296875
0.0087890625
0.0084228515625
0.0025634765625
-0.0010986328125
0.00146484375
-0.0010986328125
0.0003662109375
0.005859375
0.0010986328125
-0.0040283203125
0.0
-0.0087890625
-0.00439453125
0.008056640625
0.003662109375
0.0113525390625
0.0062255859375
0.003662109375
-0.029296875
0.002197265625
0.034423828125
-0.009521484375
0.0318603515625
-0.0010986328125
-0.031494140625
0.0106201171875
-0.000732421875
0.0047607421875
0.000732421875
-0.0032958984375
-0.005859375
0.0003662109375
-0.0069580078125
-0.003662109375
0.002197265625
-0.0142822265625
0.01171875
-0.019775390625
0.017578125
-0.0164794921875
0.0091552734375
-0.008056640625
0.0040283203125
-0.0120849609375
0.0
-0.0047607421875
-0.000732421875
-0.0087890625
0.0018310546875
-0.0084228515625
0.0018310546875
-0.0003662109375
0.0098876953125
-0.0025634765625
0.01171875
-0.0062255859375
-0.0076904296875
-0.027099609375
0.0194091796875
0.0084228515625
0.01611328125
0.0087890625
-0.0135498046875
-0.0201416015625
0.0029296875
0.0003662109375
0.0025634765625
-0.0025634765625
-0.00439453125
-0.0032958984375
-0.0062255859375
-0.003662109375
0.0029296875
-0.010986328125
0.0128173828125
-0.00439453125
0.01171875
0.0029296875
0.0062255859375
-0.000732421875
-0.0018310546875
0.0025634765625
-0.0076904296875
-0.0040283203125
-0.0018310546875
-0.010986328125
-0.0032958984375
-0.0029296875
0.0003662109375
0.0047607421875
0.0047607421875
0.005859375
-0.017578125
0.005859375
-0.0040283203125
0.0428466796875
0.0194091796875
0.0054931640625
-0.00146484375
-0.0391845703125
-0.0113525390625
-0.0029296875
-0.005126953125
-0.0025634765625
-0.005859375
0.00146484375
-0.0113525390625
0.002197265625
-0.0091552734375
-0.0087890625
-0.0010986328125
0.0
0.002197265625
0.013916015625
-0.0010986328125
0.0120849609375
-0.003662109375
0.005859375
-0.005126953125
0.0032958984375
-0.0029296875
-0.005126953125
-0.005859375
0.0032958984375
-0.0054931640625
0.01611328125
0.0018310546875
0.0135498046875
-0.0054931640625
0.0150146484375
-0.0208740234375
0.0289306640625
0.01025390625
0.0179443359375
0.0135498046875
-0.0208740234375
-0.0135498046875
-0.0172119140625
-0.0018310546875
0.00146484375
-0.0040283203125
0.0025634765625
-0.008056640625
-0.0003662109375
-0.00439453125
-0.0062255859375
0.0
-0.002197265625
0.006591796875
0.0098876953125
0.003662109375
0.0146484375
-0.00146484375
0.0076904296875
-0.0029296875
0.00146484375
-0.00146484375
-0.0091552734375
-0.00146484375
-0.00146484375
-0.0029296875
0.0113525390625
0.0029296875
0.010986328125
-0.0010986328125
0.012451171875
-0.015380859375
0.01171875
0.0146484375
0.0186767578125
0.0135498046875
-0.010986328125
-0.0146484375
-0.022705078125
-0.0018310546875
-0.000732421875
-0.000732421875
-0.00146484375
-0.0062255859375
-0.0010986328125
-0.0054931640625
-0.0054931640625
0.0
-0.00439453125
0.00732421875
0.0047607421875
0.0062255859375
0.0098876953125
0.000732421875
0.003662109375
0.0
0.0
-0.0018310546875
-0.0040283203125
-0.000732421875
-0.0062255859375
-0.0032958984375
0.0040283203125
0.002197265625
0.0128173828125
0.0032958984375
0.012451171875
-0.027099609375
-0.008056640625
0.02783203125
0.031494140625
0.0267333984375
0.0098876953125
-0.0289306640625
-0.034423828125
-0.0032958984375
-0.00146484375
-0.0003662109375
-0.0025634765625
-0.005126953125
-0.00146484375
-0.0062255859375
-0.0062255859375
-0.000732421875
-0.0084228515625
0.006591796875
0.000732421875
0.009521484375
0.008056640625
0.0032958984375
0.006591796875
-0.000732421875
0.0025634765625
-0.0018310546875
-0.00439453125
-0.0018310546875
-0.0076904296875
-0.003662109375
0.00146484375
0.0025634765625
0.0106201171875
0.0040283203125
0.0120849609375
-0.024169921875
0.0010986328125
0.018310546875
0.0325927734375
0.0238037109375
0.00439453125
-0.0201416015625
-0.037353515625
-0.0032958984375
-0.0084228515625
-0.000732421875
0.0
-0.0054931640625
0.0
-0.0084228515625
-0.00146484375
-0.005126953125
0.0
0.0040283203125
-0.0025634765625
0.0120849609375
0.0018310546875
0.0054931640625
0.0069580078125
-0.0003662109375
0.0
-0.0003662109375
-0.0032958984375
0.0010986328125
-0.0018310546875
-0.000732421875
0.0018310546875
-0.002197265625
0.0076904296875
0.00146484375
0.0087890625
-0.00439453125
0.01318359375
-0.0087890625
-0.0289306640625
0.0223388671875
-0.0062255859375
0.01025390625
0.0260009765625
-0.016845703125
0.0010986328125
-0.0029296875
0.00439453125
-0.0040283203125
-0.0025634765625
-0.0087890625
0.0025634765625
-0.01025390625
0.0025634765625
-0.0025634765625
-0.00732421875
0.01318359375
-0.01171875
0.0128173828125
-0.0040283203125
0.002197265625
0.003662109375
0.00146484375
-0.00439453125
-0.0010986328125
-0.0047607421875
-0.002197265625
-0.0032958984375
-0.000732421875
-0.0091552734375
0.0040283203125
0.005126953125
0.003662109375
0.0146484375
-0.0274658203125
-0.0069580078125
0.0369873046875
-0.013916015625
0.032958984375
0.0040283203125
-0.0333251953125
0.00732421875
-0.0032958984375
0.0003662109375
0.0
-0.0032958984375
-0.00439453125
-0.00146484375
-0.0062255859375
-0.00439453125
-0.0010986328125
-0.012451171875
0.00732421875
-0.0120849609375
0.0047607421875
-0.0029296875
-0.00439453125
0.0010986328125
-0.0032958984375
0.0
-0.006591796875
-0.002197265625
-0.01171875
-0.0069580078125
-0.012451171875
0.00146484375
-0.0025634765625
0.01318359375
0.0029296875
0.0135498046875
-0.0325927734375
0.0084228515625
0.0325927734375
0.03076171875
0.035888671875
-0.0029296875
-0.0318603515625
-0.0322265625
-0.006591796875
0.0
-0.0025634765625
0.0003662109375
-0.005859375
0.0010986328125
-0.0087890625
-0.0040283203125
0.0
-0.009521484375
0.0076904296875
0.0025634765625
0.01025390625
0.0106201171875
0.0047607421875
0.0062255859375
0.0
0.002197265625
-0.00146484375
-0.003662109375
-0.00146484375
-0.0062255859375
-0.0029296875
0.0018310546875
0.0010986328125
0.0113525390625
0.0029296875
0.01318359375
-0.0216064453125
-0.002197265625
0.0172119140625
0.0421142578125
0.0263671875
0.0091552734375
-0.0128173828125
-0.04833984375
-0.0032958984375
-0.0069580078125
-0.0010986328125
-0.0018310546875
-0.002197265625
-0.0025634765625
-0.00732421875
-0.0025634765625
-0.0025634765625
-0.0054931640625
0.0062255859375
-0.000732421875
0.010986328125
0.0054931640625
0.005859375
0.0047607421875
-0.0010986328125
0.0010986328125
-0.0018310546875
-0.003662109375
-0.0003662109375
-0.0076904296875
-0.002197265625
0.00146484375
-0.0010986328125
0.0113525390625
0.00732421875
0.0087890625
-0.0025634765625
0.0106201171875
-0.0146484375
0.021240234375
0.016845703125
0.0084228515625
0.0150146484375
-0.025634765625
-0.0087890625
-0.0201416015625
-0.0003662109375
-0.0010986328125
-0.0029296875
-0.0018310546875
-0.0087890625
-0.002197265625
-0.006591796875
-0.0062255859375
0.0029296875
-0.0084228515625
0.01025390625
0.002197265625
0.0076904296875
0.0087890625
0.000732421875
0.0040283203125
-0.0010986328125
0.0003662109375
-0.000732421875
-0.005126953125
0.0010986328125
-0.008056640625
-0.0029296875
-0.0029296875
0.0010986328125
0.0087890625
0.00732421875
0.0084228515625
-0.0113525390625
0.005126953125
-0.015380859375
0.028564453125
0.0172119140625
0.00146484375
0.0146484375
-0.031494140625
-0.0069580078125
-0.005126953125
-0.00146484375
-0.0010986328125
-0.0054931640625
0.0
-0.009521484375
0.006591796875
-0.005126953125
-0.005859375
0.0025634765625
-0.01025390625
0.012451171875
0.0
0.0087890625
0.0054931640625
0.002197265625
0.0029296875
0.0
0.0018310546875
0.000732421875
-0.003662109375
0.0010986328125
-0.006591796875
-0.0010986328125
-0.00146484375
0.0032958984375
0.0029296875
0.003662109375
0.008056640625
-0.0164794921875
0.018310546875
-0.0032958984375
-0.012451171875
0.0208740234375
-0.010986328125
0.0010986328125
0.0157470703125
-0.0087890625
0.002197265625
-0.0010986328125
-0.0003662109375
-0.0040283203125
-0.0018310546875
-0.008056640625
-0.003662109375
-0.003662109375
-0.000732421875
0.0054931640625
-0.0062255859375
0.01171875
-0.0076904296875
0.0076904296875
0.0025634765625
0.0018310546875
0.0
-0.002197265625
-0.0010986328125
-0.000732421875
-0.00146484375
0.0
-0.0025634765625
0.0018310546875
-0.0069580078125
0.005859375
0.002197265625
0.005859375
0.0062255859375
-0.0296630859375
-0.000732421875
0.030029296875
-0.002197265625
0.0333251953125
-0.006591796875
-0.0322265625
-0.00439453125
-0.0047607421875
-0.0018310546875
-0.005126953125
-0.0010986328125
-0.0087890625
-0.0010986328125
-0.0150146484375
-0.0032958984375
-0.01025390625
-0.008056640625
0.005126953125
-0.0003662109375
0.00732421875
0.009521484375
0.0018310546875
0.0062255859375
-0.0018310546875
0.00439453125
-0.0010986328125
-0.0029296875
0.00146484375
-0.0087890625
-0.0010986328125
0.0
0.0
0.009521484375
0.0032958984375
0.01171875
-0.006591796875
0.009521484375
-0.0172119140625
0.035888671875
0.01611328125
0.0087890625
0.018310546875
-0.038818359375
-0.005859375
-0.0179443359375
-0.000732421875
-0.00146484375
-0.0032958984375
-0.0003662109375
-0.0069580078125
-0.003662109375
-0.005859375
-0.00732421875
0.0032958984375
-0.0025634765625
0.00732421875
0.0091552734375
0.0047607421875
0.009521484375
0.0003662109375
0.0032958984375
-0.0003662109375
0.0
0.000732421875
-0.005859375
-0.0010986328125
-0.0062255859375
-0.0029296875
0.00146484375
0.0003662109375
0.0106201171875
0.003662109375
0.0106201171875
-0.0186767578125
-0.00146484375
0.0047607421875
0.0443115234375
0.0216064453125
0.0087890625
-0.005126953125
-0.047607421875
-0.0029296875
-0.0076904296875
-0.0032958984375
0.0010986328125
-0.003662109375
0.0
-0.008056640625
-0.0032958984375
-0.005859375
-0.005859375
0.00439453125
-0.00146484375
0.0087890625
0.0069580078125
0.0054931640625
0.006591796875
0.0
0.0018310546875
-0.00146484375
0.0
-0.00146484375
-0.003662109375
-0.0003662109375
-0.006591796875
-0.00439453125
0.002197265625
0.0003662109375
0.0087890625
0.0047607421875
0.0091552734375
-0.0135498046875
0.0062255859375
-0.0076904296875
0.03369140625
0.018310546875
0.00146484375
0.00732421875
-0.038818359375
-0.006591796875
-0.0076904296875
-0.00146484375
0.0
-0.005859375
-0.002197265625
-0.0087890625
-0.0047607421875
-0.00439453125
-0.0069580078125
0.0032958984375
-0.0032958984375
0.0128173828125
0.00439453125
0.0087890625
0.00439453125
-0.0003662109375
0.0029296875
-0.00146484375
0.0029296875
-0.0003662109375
0.0
-0.0010986328125
-0.0018310546875
-0.00146484375
-0.0047607421875
-0.0029296875
0.0
0.0010986328125
0.0146484375
0.006591796875
0.005859375
-0.02490234375
-0.01025390625
0.0252685546875
-0.0040283203125
0.027099609375
0.0087890625
-0.028564453125
0.0054931640625
-0.0032958984375
0.0
-0.0025634765625
0.0029296875
-0.005126953125
-0.0010986328125
-0.0084228515625
0.000732421875
-0.0010986328125
-0.0087890625
0.0113525390625
-0.0135498046875
0.0135498046875
0.0025634765625
0.0062255859375
0.0032958984375
-0.000732421875
0.0
-0.0018310546875
0.00146484375
-0.0010986328125
0.0
-0.000732421875
-0.005859375
-0.00146484375
-0.003662109375
0.005126953125
0.003662109375
0.00732421875
0.0069580078125
-0.0234375
0.0186767578125
0.0260009765625
-0.01318359375
0.0281982421875
-0.0186767578125
-0.0245361328125
0.0069580078125
-0.0047607421875
0.0003662109375
-0.00146484375
-0.002197265625
-0.00439453125
-0.00439453125
-0.01171875
-0.0032958984375
-0.0087890625
-0.009521484375
0.002197265625
-0.0084228515625
0.0062255859375
0.003662109375
-0.000732421875
0.0084228515625
-0.0010986328125
0.0025634765625
-0.0054931640625
0.0040283203125
-0.00439453125
-0.0032958984375
-0.000732421875
-0.0084228515625
-0.003662109375
0.002197265625
0.0025634765625
0.01171875
0.00439453125
0.01171875
-0.028564453125
-0.0018310546875
0.0289306640625
0.034423828125
0.0322265625
0.0025634765625
-0.030029296875
-0.0377197265625
-0.00146484375
-0.0032958984375
-0.000732421875
-0.00146484375
-0.0069580078125
-0.000732421875
-0.006591796875
-0.0054931640625
-0.0029296875
-0.0062255859375
0.005126953125
0.0018310546875
0.0069580078125
0.01025390625
0.0047607421875
0.005859375
0.0
0.000732421875
-0.002197265625
0.0
0.0029296875
-0.0069580078125
-0.00146484375
-0.005859375
-0.0040283203125
0.002197265625
0.000732421875
0.010986328125
0.0025634765625
0.010986328125
-0.0230712890625
-0.0025634765625
0.015380859375
0.041015625
0.0260009765625
0.00732421875
-0.016845703125
-0.044677734375
-0.0029296875
-0.0069580078125
-0.002197265625
-0.0003662109375
-0.0040283203125
-0.0018310546875
-0.0062255859375
-0.0040283203125
-0.0029296875
-0.0076904296875
0.005859375
-0.0040283203125
0.0098876953125
0.006591796875
0.00732421875
0.005126953125
0.0003662109375
0.00146484375
-0.0018310546875
0.0010986328125
-0.0003662109375
-0.0047607421875
0.000732421875
-0.0091552734375
-0.005126953125
0.0025634765625
-0.002197265625
0.0128173828125
0.0032958984375
0.01171875
-0.008056640625
0.0087890625
-0.0135498046875
0.0263671875
0.0142822265625
0.0069580078125
0.015380859375
-0.0322265625
-0.0084228515625
-0.0146484375
-0.0040283203125
0.0
-0.0047607421875
0.0
-0.0087890625
-0.00146484375
-0.005859375
-0.006591796875
0.0018310546875
-0.00439453125
0.0106201171875
0.0025634765625
0.0087890625
0.005126953125
0.003662109375
-0.0029296875
0.0
-0.000732421875
0.0
0.002197265625
0.000732421875
-0.003662109375
-0.0054931640625
-0.0003662109375
-0.003662109375
0.002197265625
0.0040283203125
0.005126953125
0.005126953125
0.0069580078125
-0.030029296875
0.0205078125
0.0333251953125
-0.0047607421875
0.032958984375
-0.018310546875
-0.03515625
0.008056640625
-0.0032958984375
0.0032958984375
-0.00146484375
0.0018310546875
-0.0054931640625
0.0032958984375
-0.0113525390625
0.0025634765625
-0.0054931640625
-0.008056640625
0.009521484375
-0.015380859375
0.013916015625
-0.0010986328125
0.006591796875
0.00732421875
-0.0003662109375
0.0010986328125
-0.0032958984375
-0.0032958984375
-0.002197265625
-0.0003662109375
0.0040283203125
-0.002197265625
-0.000732421875
-0.002197265625
0.0018310546875
-0.0054931640625
0.005859375
0.005126953125
-0.008056640625
0.016845703125
-0.008056640625
-0.003662109375
0.0142822265625
-0.0029296875
0.008056640625
0.000732421875
-0.008056640625
-0.006591796875
-0.0003662109375
0.000732421875
-0.0018310546875
0.0003662109375
-0.0084228515625
0.0010986328125
-0.0076904296875
-0.0032958984375
0.0018310546875
-0.0150146484375
0.0087890625
-0.0069580078125
0.00439453125
0.00146484375
-0.00146484375
-0.0010986328125
-0.0076904296875
0.0018310546875
-0.005859375
-0.002197265625
-0.0018310546875
-0.00732421875
-0.0076904296875
0.0018310546875
-0.0025634765625
0.0098876953125
0.0040283203125
0.0098876953125
-0.0047607421875
0.009521484375
-0.01611328125
0.032958984375
0.01611328125
0.0087890625
0.0179443359375
-0.035888671875
-0.0084228515625
-0.017578125
0.0
-0.0010986328125
-0.0025634765625
-0.000732421875
-0.005859375
-0.005859375
-0.0047607421875
-0.0084228515625
0.0025634765625
-0.0032958984375
0.008056640625
0.0087890625
0.0069580078125
0.0098876953125
0.0018310546875
0.0029296875
-0.0010986328125
0.0018310546875
0.0025634765625
-0.0054931640625
0.0025634765625
-0.01171875
-0.00146484375
-0.0003662109375
-0.00146484375
0.01171875
0.00439453125
0.01025390625
-0.003662109375
0.010986328125
-0.0172119140625
0.02490234375
0.015380859375
0.0120849609375
0.017578125
-0.0289306640625
-0.0076904296875
-0.0238037109375
-0.0003662109375
-0.0025634765625
0.0
-0.002197265625
-0.00732421875
-0.0010986328125
-0.0076904296875
-0.005126953125
0.0025634765625
-0.006591796875
0.008056640625
0.0040283203125
0.008056640625
0.0069580078125
0.0040283203125
0.0010986328125
0.000732421875
-0.0025634765625
-0.002197265625
0.0
0.0003662109375
-0.0029296875
0.0
-0.0054931640625
-0.00439453125
0.0025634765625
0.00146484375
0.0084228515625
0.0040283203125
0.0087890625
-0.015380859375
0.0
0.0029296875
0.038818359375
0.0208740234375
0.0040283203125
-0.0029296875
-0.04248046875
-0.0054931640625
-0.0062255859375
-0.0029296875
-0.0010986328125
-0.005859375
0.0
-0.005859375
-0.0040283203125
-0.003662109375
-0.006591796875
0.0047607421875
-0.0062255859375
0.01025390625
0.005859375
0.005859375
0.008056640625
0.000732421875
0.00146484375
-0.002197265625
0.0047607421875
-0.0018310546875
0.0032958984375
-0.0003662109375
-0.006591796875
-0.0025634765625
-0.0047607421875
-0.0029296875
0.0040283203125
0.0062255859375
0.0087890625
0.005859375
0.0087890625
-0.0340576171875
0.009521484375
0.0347900390625
-0.0120849609375
0.032958984375
-0.0106201171875
-0.0380859375
0.01025390625
-0.003662109375
0.0010986328125
-0.0018310546875
0.0003662109375
-0.0069580078125
0.005126953125
-0.0087890625
-0.0018310546875
-0.00439453125
-0.008056640625
0.008056640625
-0.005126953125
0.0150146484375
0.0
0.0054931640625
0.005126953125
0.0
0.0
-0.0029296875
0.0
-0.00146484375
0.00146484375
0.003662109375
-0.009521484375
-0.0025634765625
-0.00732421875
-0.0025634765625
0.0084228515625
0.00439453125
0.008056640625
-0.0040283203125
0.00732421875
-0.0084228515625
-0.002197265625
0.015380859375
-0.005126953125
0.0091552734375
0.000732421875
-0.0084228515625
-0.0029296875
0.0
-0.0032958984375
-0.0029296875
-0.0025634765625
-0.0098876953125
-0.0047607421875
-0.010986328125
-0.0084228515625
-0.0018310546875
-0.01025390625
0.0040283203125
0.0
0.0047607421875
0.0062255859375
0.0003662109375
0.0025634765625
-0.003662109375
0.002197265625
-0.0010986328125
-0.0032958984375
0.0
-0.006591796875
-0.0029296875
0.0
-0.002197265625
0.0106201171875
0.0032958984375
0.0113525390625
-0.0076904296875
0.0091552734375
-0.012451171875
0.037353515625
0.0179443359375
0.008056640625
0.0157470703125
-0.041015625
-0.00439453125
-0.01904296875
-0.002197265625
-0.0010986328125
-0.00439453125
0.0010986328125
-0.0062255859375
-0.0040283203125
-0.00439453125
-0.008056640625
0.0029296875
-0.0040283203125
0.0087890625
0.006591796875
0.005859375
0.009521484375
0.00146484375
0.002197265625
0.0018310546875
-0.00146484375
0.0
-0.003662109375
0.0010986328125
-0.0113525390625
-0.0032958984375
0.0010986328125
-0.0032958984375
0.0135498046875
0.0040283203125
0.0084228515625
-0.002197265625
0.0098876953125
-0.0135498046875
0.01904296875
0.016845703125
0.0120849609375
0.0172119140625
-0.0234375
-0.0113525390625
-0.021240234375
-0.0018310546875
-0.0010986328125
-0.002197265625
-0.0010986328125
-0.0069580078125
-0.0010986328125
-0.005859375
-0.0054931640625
-0.000732421875
-0.003662109375
0.0076904296875
0.003662109375
0.008056640625
0.00732421875
0.0025634765625
0.0032958984375
-0.002197265625
0.0010986328125
-0.0032958984375
0.0010986328125
0.0003662109375
-0.005859375
-0.002197265625
-0.00439453125
-0.0025634765625
0.0029296875
0.0025634765625
0.0106201171875
0.0047607421875
0.0087890625
-0.0274658203125
-0.003662109375
0.0325927734375
0.031494140625
0.031494140625
0.0018310546875
-0.0325927734375
-0.0362548828125
-0.00439453125
-0.0029296875
-0.0047607421875
-0.0010986328125
-0.00439453125
-0.0003662109375
-0.0076904296875
-0.0047607421875
-0.0025634765625
-0.0106201171875
0.0087890625
-0.00146484375
0.0084228515625
0.009521484375
0.003662109375
0.0054931640625
-0.0003662109375
0.00146484375
-0.0018310546875
0.002197265625
-0.0003662109375
-0.0029296875
0.0029296875
-0.0062255859375
-0.0025634765625
-0.0003662109375
-0.0018310546875
0.002197265625
0.005859375
0.0076904296875
0.002197265625
0.0128173828125
-0.0120849609375
-0.0230712890625
0.01904296875
0.0010986328125
0.015380859375
0.0216064453125
-0.017578125
-0.0076904296875
-0.0025634765625
-0.00146484375
-0.0062255859375
0.0032958984375
-0.0069580078125
0.00439453125
-0.005859375
-0.0018310546875
-0.0029296875
-0.006591796875
0.012451171875
-0.0087890625
0.0128173828125
0.000732421875
0.00439453125
-0.002197265625
0.0
0.0025634765625
-0.0025634765625
0.0069580078125
0.0018310546875
-0.005126953125
0.0003662109375
-0.0076904296875
-0.0029296875
-0.00146484375
0.000732421875
0.008056640625
0.0032958984375
0.0069580078125
-0.0179443359375
0.0194091796875
-0.0076904296875
-0.0087890625
0.01904296875
-0.01611328125
0.0029296875
0.005859375
-0.0047607421875
-0.0054931640625
-0.0018310546875
0.003662109375
-0.003662109375
0.000732421875
-0.0087890625
0.0010986328125
-0.0087890625
-0.0040283203125
0.000732421875
-0.0120849609375
0.010986328125
-0.0062255859375
0.0106201171875
-0.00439453125
0.00439453125
-0.0003662109375
0.00146484375
0.000732421875
-0.000732421875
-0.005859375
-0.0018310546875
-0.01025390625
-0.0062255859375
-0.0025634765625
-0.0047607421875
0.003662109375
-0.0018310546875
0.0054931640625
-0.0216064453125
0.01171875
-0.0157470703125
0.0164794921875
0.0084228515625
-0.00439453125
-0.0025634765625
-0.018310546875
-0.0113525390625
-0.005859375
-0.006591796875
0.000732421875
-0.0047607421875
0.0010986328125
-0.008056640625
-0.00146484375
-0.008056640625
-0.0054931640625
0.000732421875
-0.0025634765625
0.0087890625
0.0091552734375
0.00732421875
0.0120849609375
0.0047607421875
0.0025634765625
0.00146484375
0.0032958984375
-0.0003662109375
0.0
-0.005126953125
-0.0040283203125
-0.00732421875
0.0047607421875
0.0040283203125
0.0128173828125
0.00732421875
0.01318359375
-0.0201416015625
-0.0010986328125
0.0238037109375
0.0472412109375
0.030029296875
0.0062255859375
-0.018310546875
-0.0516357421875
-0.000732421875
-0.005859375
0.00146484375
-0.00146484375
-0.003662109375
-0.0003662109375
-0.005126953125
-0.005126953125
-0.002197265625
-0.0054931640625
0.0062255859375
0.0010986328125
0.009521484375
0.0087890625
0.005126953125
0.0054931640625
0.0010986328125
-0.0018310546875
-0.002197265625
0.00146484375
-0.000732421875
-0.0032958984375
-0.0029296875
-0.00439453125
-0.00146484375
0.0003662109375
0.0047607421875
0.00732421875
0.0054931640625
0.0106201171875
-0.0142822265625
-0.0047607421875
0.00732421875
0.0439453125
0.0230712890625
0.009521484375
-0.005859375
-0.049072265625
-0.00439453125
-0.008056640625
-0.00146484375
-0.000732421875
-0.003662109375
-0.00146484375
-0.0069580078125
-0.00439453125
-0.0040283203125
-0.006591796875
0.005126953125
-0.0029296875
0.00732421875
0.008056640625
0.0047607421875
0.005859375
-0.0003662109375
0.0
-0.00146484375
0.000732421875
0.0
-0.00439453125
0.0018310546875
-0.0098876953125
-0.0010986328125
0.000732421875
0.0
0.0098876953125
0.0069580078125
0.005859375
-0.0018310546875
0.0091552734375
-0.019775390625
0.009521484375
0.0120849609375
0.00146484375
0.0205078125
-0.009521484375
-0.01025390625
-0.005859375
-0.0018310546875
0.003662109375
-0.00146484375
-0.0003662109375
-0.0087890625
0.0
-0.0062255859375
-0.0010986328125
0.000732421875
-0.0069580078125
0.01318359375
-0.0054931640625
0.010986328125
0.0010986328125
0.002197265625
0.00146484375
0.0010986328125
-0.0029296875
-0.002197265625
-0.000732421875
0.000732421875
-0.00439453125
-0.000732421875
-0.0054931640625
-0.003662109375
0.00439453125
0.002197265625
0.008056640625
0.0047607421875
0.00146484375
-0.0318603515625
0.019775390625
0.0238037109375
-0.0172119140625
0.0274658203125
-0.0230712890625
-0.0362548828125
0.01904296875
-0.0076904296875
0.002197265625
-0.002197265625
-0.0018310546875
-0.0054931640625
-0.0087890625
-0.01318359375
0.0
-0.01318359375
-0.0018310546875
0.0003662109375
-0.01318359375
0.0076904296875
-0.002197265625
0.005859375
-0.000732421875
0.00146484375
-0.0003662109375
-0.00732421875
0.0
-0.0150146484375
-0.0062255859375
-0.0194091796875
-0.0069580078125
-0.02490234375
-0.0010986328125
-0.0120849609375
0.0047607421875
0.005126953125
0.0076904296875
-0.0157470703125
0.01171875
-0.006591796875
0.0318603515625
0.017578125
-0.0025634765625
0.0076904296875
-0.034423828125
0.006591796875
-0.0047607421875
0.013916015625
0.000732421875
0.0142822265625
-0.002197265625
0.0047607421875
-0.0040283203125
0.0025634765625
-0.006591796875
0.0091552734375
-0.0003662109375
0.0128173828125
0.0106201171875
0.0087890625
0.0106201171875
0.0047607421875
0.0029296875
0.0010986328125
0.0025634765625
0.000732421875
-0.002197265625
0.00439453125
-0.0091552734375
-0.0018310546875
0.0018310546875
0.0018310546875
0.010986328125
0.0076904296875
0.01025390625
-0.0076904296875
0.0029296875
-0.012451171875
0.044677734375
0.018310546875
0.0098876953125
0.017578125
-0.0498046875
-0.0054931640625
-0.0120849609375
-0.0025634765625
0.000732421875
-0.0040283203125
0.0010986328125
-0.00439453125
-0.003662109375
-0.0029296875
-0.0062255859375
0.0040283203125
-0.002197265625
0.010986328125
0.00439453125
0.006591796875
0.006591796875
0.00146484375
0.0018310546875
-0.0018310546875
0.002197265625
-0.000732421875
-0.0010986328125
0.0010986328125
-0.009521484375
-0.002197265625
0.0010986328125
-0.0025634765625
0.01025390625
0.005126953125
0.00732421875
0.0054931640625
0.006591796875
-0.0157470703125
0.005126953125
0.0186767578125
0.0179443359375
0.0179443359375
-0.01025390625
-0.018310546875
-0.02490234375
-0.00439453125
0.00146484375
-0.0032958984375
-0.0003662109375
-0.003662109375
-0.0040283203125
-0.0047607421875
-0.008056640625
0.00146484375
-0.008056640625
0.0076904296875
0.002197265625
0.008056640625
0.0076904296875
0.0032958984375
0.0040283203125
-0.00146484375
0.000732421875
-0.002197265625
0.0003662109375
-0.000732421875
-0.0025634765625
0.002197265625
-0.0084228515625
-0.002197265625
-0.002197265625
0.0
0.005126953125
0.00439453125
0.0069580078125
-0.0047607421875
0.012451171875
-0.0205078125
0.0150146484375
0.012451171875
0.0
0.0194091796875
-0.0142822265625
-0.0087890625
-0.0054931640625
-0.0003662109375
0.0003662109375
-0.0029296875
0.0029296875
-0.00732421875
0.00146484375
-0.01025390625
-0.000732421875
-0.000732421875
-0.0084228515625
0.010986328125
-0.00439453125
0.0069580078125
0.005859375
0.0032958984375
-0.0010986328125
0.0010986328125
0.0010986328125
-0.0018310546875
0.00439453125
-0.000732421875
0.0010986328125
0.000732421875
-0.0047607421875
-0.00146484375
-0.0032958984375
0.00439453125
0.0003662109375
0.0062255859375
0.0062255859375
-0.016845703125
0.0194091796875
0.0029296875
-0.018310546875
0.022705078125
-0.0113525390625
0.00146484375
0.01318359375
-0.005126953125
-0.0032958984375
-0.0032958984375
0.0
-0.0040283203125
-0.003662109375
-0.009521484375
0.0
-0.0076904296875
-0.0010986328125
0.00146484375
-0.008056640625
0.010986328125
-0.01025390625
0.0069580078125
-0.0018310546875
0.0018310546875
0.00146484375
-0.0018310546875
0.0
-0.005126953125
-0.0040283203125
-0.0010986328125
-0.0076904296875
-0.0025634765625
-0.00146484375
-0.00439453125
0.0025634765625
0.00146484375
0.00439453125
0.0040283203125
-0.00146484375
-0.0238037109375
-0.01904296875
0.01171875
0.009521484375
0.0135498046875
0.0087890625
-0.022705078125
-0.018310546875
0.0003662109375
-0.005126953125
-0.003662109375
0.0029296875
-0.0069580078125
0.0029296875
-0.010986328125
-0.00439453125
-0.0062255859375
-0.0087890625
0.006591796875
0.0010986328125
0.01025390625
0.01025390625
0.0069580078125
0.0054931640625
0.000732421875
0.00439453125
0.0
0.0032958984375
0.0
-0.0029296875
-0.0018310546875
-0.00146484375
-0.00146484375
0.005126953125
0.005126953125
0.01171875
0.0062255859375
0.0113525390625
-0.02197265625
-0.005126953125
0.029296875
0.0318603515625
0.0267333984375
0.005126953125
-0.025634765625
-0.0362548828125
-0.002197265625
-0.000732421875
-0.00146484375
0.0010986328125
-0.0025634765625
-0.0010986328125
-0.005859375
-0.0054931640625
0.0
-0.008056640625
0.0076904296875
0.00146484375
0.00732421875
0.0091552734375
0.002197265625
0.0047607421875
-0.0003662109375
0.0
-0.0025634765625
0.00146484375
-0.000732421875
-0.0032958984375
0.00146484375
-0.008056640625
-0.0025634765625
0.0010986328125
0.0029296875
0.0076904296875
0.005126953125
0.009521484375
-0.013916015625
0.002197265625
-0.0087890625
0.0435791015625
0.016845703125
0.0106201171875
0.0062255859375
-0.046142578125
-0.005859375
-0.0098876953125
-0.00146484375
-0.0010986328125
-0.0040283203125
-0.00146484375
-0.0047607421875
-0.0040283203125
-0.00439453125
-0.005126953125
0.002197265625
-0.0029296875
0.0084228515625
0.005859375
0.0040283203125
0.0091552734375
0.0
0.002197265625
-0.00146484375
0.0003662109375
0.0
-0.0040283203125
0.00146484375
-0.01025390625
-0.0018310546875
0.0003662109375
-0.0025634765625
0.0113525390625
0.0032958984375
0.009521484375
0.0003662109375
0.0087890625
-0.015380859375
0.0084228515625
0.0164794921875
0.0146484375
0.0142822265625
-0.0120849609375
-0.0157470703125
-0.0230712890625
-0.002197265625
-0.0010986328125
-0.00146484375
-0.0003662109375
-0.0062255859375
-0.0018310546875
-0.005859375
-0.006591796875
-0.0003662109375
-0.0076904296875
0.0047607421875
0.00439453125
0.00732421875
0.01025390625
0.0029296875
0.0003662109375
0.002197265625
-0.000732421875
0.0003662109375
0.003662109375
0.0
-0.005126953125
0.0003662109375
-0.006591796875
-0.003662109375
0.00146484375
0.0003662109375
0.006591796875
0.00439453125
0.0054931640625
-0.0120849609375
0.0135498046875
-0.005126953125
0.0003662109375
0.0205078125
-0.008056640625
0.006591796875
-0.0003662109375
-0.005126953125
-0.0062255859375
-0.00146484375
0.0010986328125
-0.0062255859375
0.0040283203125
-0.0091552734375
0.0032958984375
-0.0069580078125
-0.002197265625
0.005859375
-0.0120849609375
0.01318359375
-0.005859375
0.009521484375
0.0018310546875
0.005859375
-0.0018310546875
0.0
-0.0003662109375
-0.0010986328125
0.0
0.0
-0.0032958984375
-0.0040283203125
0.0018310546875
-0.002197265625
0.00439453125
0.005126953125
-0.0003662109375
0.002197265625
0.008056640625
-0.012451171875
-0.021240234375
0.022705078125
-0.000732421875
0.0150146484375
0.0260009765625
-0.0186767578125
-0.0084228515625
-0.00146484375
-0.003662109375
-0.0032958984375
0.005126953125
-0.0084228515625
0.0010986328125
-0.0084228515625
-0.006591796875
0.000732421875
-0.0091552734375
0.0113525390625
-0.0069580078125
0.012451171875
-0.0040283203125
0.0047607421875
0.0010986328125
0.002197265625
0.0025634765625
-0.0018310546875
-0.0018310546875
-0.002197265625
-0.006591796875
-0.0029296875
-0.005126953125
-0.0029296875
-0.0032958984375
0.0040283203125
0.0018310546875
0.005126953125
0.006591796875
-0.0252685546875
-0.006591796875
0.0186767578125
0.0150146484375
0.0205078125
0.0087890625
-0.0296630859375
-0.0142822265625
-0.006591796875
0.000732421875
-0.0062255859375
0.0010986328125
-0.0087890625
0.002197265625
-0.0091552734375
-0.0040283203125
-0.003662109375
-0.008056640625
0.0069580078125
0.0010986328125
0.0062255859375
0.010986328125
0.0018310546875
0.008056640625
-0.0003662109375
0.0029296875
-0.0025634765625
0.0
0.0003662109375
-0.0084228515625
-0.0032958984375
0.000732421875
-0.0025634765625
0.0076904296875
0.003662109375
0.0087890625
0.0032958984375
0.0087890625
-0.01904296875
0.00146484375
0.0205078125
0.024169921875
0.0205078125
-0.00439453125
-0.0223388671875
-0.027099609375
-0.0018310546875
-0.0010986328125
-0.0025634765625
-0.000732421875
-0.0032958984375
-0.002197265625
-0.005859375
-0.005859375
-0.0029296875
-0.0047607421875
0.00732421875
0.0032958984375
0.005859375
0.009521484375
0.00146484375
0.0040283203125
0.0
0.0
0.0
-0.002197265625
0.0003662109375
-0.008056640625
0.0003662109375
-0.0069580078125
-0.00146484375
0.002197265625
0.00146484375
0.010986328125
0.00439453125
0.0098876953125
-0.0274658203125
-0.005126953125
0.0289306640625
0.0384521484375
0.0303955078125
0.005859375
-0.0289306640625
-0.0435791015625
-0.0032958984375
-0.0025634765625
-0.00146484375
-0.0003662109375
-0.0032958984375
-0.002197265625
-0.0069580078125
-0.00439453125
-0.0029296875
-0.006591796875
0.0040283203125
0.0010986328125
0.008056640625
0.0087890625
0.0047607421875
0.0047607421875
0.0
-0.00146484375
-0.000732421875
0.0
-0.0003662109375
-0.003662109375
0.000732421875
-0.01025390625
-0.0029296875
0.000732421875
-0.0018310546875
0.010986328125
0.0018310546875
0.01025390625
-0.0032958984375
0.0098876953125
-0.01318359375
0.015380859375
0.0150146484375
0.0098876953125
0.0142822265625
-0.019775390625
-0.0113525390625
-0.019775390625
-0.0018310546875
-0.003662109375
-0.00439453125
0.002197265625
-0.0069580078125
0.005859375
-0.0084228515625
-0.0003662109375
-0.0010986328125
-0.0091552734375
0.0113525390625
-0.0025634765625
0.01171875
0.00439453125
0.0054931640625
0.0003662109375
0.0
0.00146484375
-0.0010986328125
0.0029296875
-0.0003662109375
0.0018310546875
-0.0010986328125
-0.0047607421875
-0.0047607421875
0.000732421875
-0.0018310546875
0.0062255859375
0.0062255859375
0.0029296875
0.000732421875
0.0113525390625
-0.0091552734375
-0.02197265625
0.0186767578125
-0.00439453125
0.0106201171875
0.021240234375
-0.01611328125
-0.0084228515625
-0.003662109375
0.002197265625
-0.0032958984375
0.0040283203125
-0.006591796875
0.00439453125
-0.008056640625
-0.0003662109375
0.0
-0.009521484375
0.0128173828125
-0.015380859375
0.012451171875
-0.005859375
0.0054931640625
0.0084228515625
0.0003662109375
0.0018310546875
-0.0032958984375
-0.002197265625
-0.0010986328125
0.0018310546875
0.0010986328125
-0.003662109375
-0.0025634765625
0.000732421875
0.00146484375
0.006591796875
0.0084228515625
0.0025634765625
-0.0054931640625
0.0047607421875
-0.0120849609375
0.0003662109375
0.015380859375
-0.000732421875
0.0120849609375
-0.00732421875
-0.0069580078125
-0.0106201171875
-0.002197265625
-0.002197265625
-0.0032958984375
-0.0025634765625
-0.0087890625
-0.0029296875
-0.0098876953125
-0.0062255859375
0.0
-0.009521484375
0.0076904296875
0.0
0.003662109375
0.008056640625
-0.0029296875
0.005859375
-0.002197265625
0.0025634765625
-0.00439453125
0.00439453125
-0.0025634765625
-0.0025634765625
-0.002197265625
-0.005859375
-0.0054931640625
0.0032958984375
0.0018310546875
0.01025390625
0.0040283203125
0.0106201171875
-0.028564453125
0.002197265625
0.0205078125
0.0439453125
0.031494140625
-0.0003662109375
-0.0223388671875
-0.047607421875
-0.005126953125
-0.0032958984375
-0.0018310546875
0.0
-0.00439453125
-0.000732421875
-0.006591796875
-0.006591796875
-0.005126953125
-0.0054931640625
0.0040283203125
0.0010986328125
0.0084228515625
0.009521484375
0.0054931640625
0.0062255859375
0.000732421875
0.0
-0.00146484375
-0.0003662109375
0.0
-0.003662109375
0.0010986328125
-0.0084228515625
-0.0010986328125
0.000732421875
-0.0047607421875
0.0113525390625
0.0025634765625
0.0091552734375
0.0018310546875
0.0084228515625
-0.017578125
0.0087890625
0.0172119140625
0.01611328125
0.0186767578125
-0.013916015625
-0.0146484375
-0.0245361328125
-0.003662109375
0.0010986328125
-0.0025634765625
-0.0010986328125
-0.006591796875
-0.000732421875
-0.0069580078125
-0.0040283203125
-0.000732421875
-0.005859375
0.006591796875
0.002197265625
0.0084228515625
0.005859375
0.0032958984375
0.0025634765625
0.0010986328125
-0.00146484375
-0.0018310546875
0.000732421875
-0.0003662109375
-0.0003662109375
0.000732421875
-0.0076904296875
-0.002197265625
-0.00146484375
-0.002197265625
0.00732421875
0.0025634765625
0.0087890625
0.003662109375
0.005859375
-0.01904296875
-0.0047607421875
0.024169921875
0.0205078125
0.0201416015625
0.0010986328125
-0.0263671875
-0.0245361328125
-0.0040283203125
0.000732421875
-0.0040283203125
-0.0003662109375
-0.005859375
-0.0029296875
-0.0076904296875
-0.00439453125
-0.0029296875
-0.00732421875
0.0087890625
-0.00146484375
0.012451171875
0.005126953125
0.0047607421875
0.005126953125
-0.0003662109375
0.00146484375
-0.00146484375
-0.0018310546875
-0.0018310546875
0.003662109375
0.000732421875
-0.000732421875
-0.00146484375
-0.00732421875
-0.002197265625
0.0018310546875
0.0032958984375
0.0091552734375
0.0054931640625
0.006591796875
-0.0267333984375
0.0172119140625
0.0303955078125
-0.0135498046875
0.030029296875
-0.0157470703125
-0.0322265625
0.0142822265625
-0.00146484375
0.0003662109375
-0.0025634765625
0.0010986328125
-0.005126953125
0.0032958984375
-0.0091552734375
0.0003662109375
-0.0069580078125
-0.005126953125
0.0091552734375
-0.01318359375
0.0120849609375
-0.0029296875
0.006591796875
0.005126953125
0.002197265625
-0.0010986328125
-0.0018310546875
0.0003662109375
-0.00146484375
0.0032958984375
0.00146484375
-0.0025634765625
0.0
-0.0069580078125
-0.0040283203125
0.000732421875
0.002197265625
0.0029296875
0.00439453125
0.005859375
-0.0120849609375
0.012451171875
-0.005126953125
-0.0098876953125
0.0205078125
-0.0076904296875
0.0087890625
0.005859375
-0.0047607421875
-0.005859375
-0.0025634765625
-0.00146484375
-0.005859375
0.00146484375
-0.0106201171875
-0.00146484375
-0.0098876953125
-0.0069580078125
0.0029296875
-0.0128173828125
0.0098876953125
-0.0047607421875
0.0062255859375
0.0025634765625
0.0
0.0018310546875
-0.003662109375
0.0032958984375
-0.0040283203125
0.0010986328125
-0.00146484375
-0.0054931640625
-0.003662109375
-0.0032958984375
-0.006591796875
0.006591796875
0.0047607421875
0.0087890625
0.00439453125
0.009521484375
-0.0318603515625
0.0
0.0303955078125
0.0281982421875
0.0322265625
0.000732421875
-0.030029296875
-0.0347900390625
-0.0032958984375
-0.000732421875
-0.002197265625
0.00146484375
-0.0054931640625
-0.0010986328125
-0.0054931640625
-0.006591796875
-0.0025634765625
-0.006591796875
0.0069580078125
0.00146484375
0.009521484375
0.0084228515625
0.00146484375
0.0069580078125
0.0
0.000732421875
-0.0032958984375
0.0018310546875
-0.00146484375
-0.0025634765625
0.0025634765625
-0.01025390625
-0.0025634765625
0.0010986328125
-0.000732421875
0.0106201171875
0.006591796875
0.0062255859375
-0.002197265625
0.0084228515625
-0.0172119140625
0.024169921875
0.0150146484375
0.010986328125
0.0146484375
-0.0260009765625
-0.01171875
-0.019775390625
-0.00146484375
0.0003662109375
-0.0032958984375
0.0003662109375
-0.0047607421875
-0.003662109375
-0.003662109375
-0.005859375
0.00146484375
-0.0054931640625
0.0076904296875
0.0025634765625
0.0084228515625
0.00732421875
0.002197265625
0.002197265625
-0.0003662109375
-0.000732421875
0.0
0.0
0.0003662109375
-0.00439453125
0.0018310546875
-0.0087890625
-0.003662109375
0.002197265625
0.0003662109375
0.009521484375
0.00439453125
0.0087890625
-0.0113525390625
0.0069580078125
-0.0113525390625
0.029296875
0.015380859375
0.0040283203125
0.0106201171875
-0.03369140625
-0.00732421875
-0.0091552734375
-0.00146484375
-0.0003662109375
-0.0029296875
-0.0010986328125
-0.00732421875
-0.0025634765625
-0.005859375
-0.0062255859375
0.0010986328125
-0.0040283203125
0.00732421875
0.0047607421875
0.005859375
0.00732421875
0.0025634765625
0.002197265625
-0.0018310546875
0.0018310546875
-0.0010986328125
-0.0010986328125
0.000732421875
-0.0054931640625
-0.0010986328125
-0.0040283203125
-0.002197265625
0.0003662109375
0.0
0.005859375
0.003662109375
0.0076904296875
-0.0113525390625
0.01611328125
-0.01171875
0.0047607421875
0.0172119140625
-0.00732421875
0.01171875
-0.008056640625
-0.0069580078125
-0.0029296875
-0.003662109375
0.0087890625
-0.0047607421875
0.0010986328125
-0.010986328125
0.0032958984375
-0.0076904296875
-0.0040283203125
0.002197265625
-0.0113525390625
0.0128173828125
-0.0054931640625
0.012451171875
0.0010986328125
0.003662109375
0.0029296875
-0.00146484375
0.00146484375
-0.0032958984375
0.0029296875
0.0003662109375
-0.010986328125
-0.0032958984375
-0.000732421875
-0.0018310546875
0.005859375
0.0062255859375
0.0040283203125
0.00439453125
0.008056640625
-0.0238037109375
-0.009521484375
0.0322265625
-0.0142822265625
0.0274658203125
0.0087890625
-0.03076171875
0.010986328125
-0.0032958984375
-0.00146484375
-0.0032958984375
-0.0018310546875
-0.0069580078125
0.00439453125
-0.01025390625
0.00732421875
-0.002197265625
-0.005126953125
0.0120849609375
-0.01318359375
0.01318359375
-0.0062255859375
0.005126953125
0.000732421875
0.000732421875
-0.002197265625
-0.00146484375
-0.0003662109375
-0.0029296875
-0.0025634765625
-0.0029296875
-0.0084228515625
-0.003662109375
-0.0029296875
0.0010986328125
0.0069580078125
0.0040283203125
0.0076904296875
-0.0281982421875
0.0087890625
0.0252685546875
0.029296875
0.029296875
-0.0040283203125
-0.0263671875
-0.0318603515625
-0.00439453125
-0.0040283203125
-0.0025634765625
-0.0003662109375
-0.003662109375
-0.002197265625
-0.008056640625
-0.005859375
-0.0029296875
-0.0084228515625
0.005859375
0.0003662109375
0.0087890625
0.0098876953125
0.0040283203125
0.0069580078125
-0.00146484375
0.0029296875
-0.0018310546875
0.00146484375
-0.0018310546875
-0.0069580078125
-0.0029296875
-0.006591796875
-0.0025634765625
0.0040283203125
0.0040283203125
0.0098876953125
0.0032958984375
0.01025390625
-0.02783203125
-0.006591796875
0.0318603515625
0.0322265625
0.029296875
0.0062255859375
-0.0318603515625
-0.0380859375
-0.0032958984375
-0.0025634765625
-0.00146484375
-0.00146484375
-0.0025634765625
-0.002197265625
-0.0040283203125
-0.00439453125
-0.0040283203125
-0.0032958984375
0.00439453125
0.0
0.008056640625
0.005126953125
0.0025634765625
0.0047607421875
0.000732421875
-0.00146484375
-0.00146484375
-0.0003662109375
0.0003662109375
-0.0047607421875
0.0
-0.0054931640625
-0.0018310546875
0.0018310546875
0.0025634765625
0.0076904296875
0.003662109375
0.0098876953125
-0.015380859375
0.0040283203125
-0.0032958984375
0.03662109375
0.0194091796875
0.0040283203125
0.00146484375
-0.03955078125
-0.0040283203125
-0.0087890625
-0.002197265625
-0.000732421875
-0.003662109375
-0.00146484375
-0.005859375
-0.005126953125
-0.0069580078125
-0.006591796875
0.0029296875
-0.0040283203125
0.0087890625
0.005859375
0.005859375
0.0076904296875
0.000732421875
0.00146484375
0.0
-0.000732421875
-0.0003662109375
-0.003662109375
-0.0003662109375
-0.0076904296875
-0.0029296875
0.000732421875
-0.0032958984375
0.0091552734375
0.0032958984375
0.0087890625
-0.003662109375
0.0091552734375
-0.01318359375
0.013916015625
0.0179443359375
0.005859375
0.015380859375
-0.018310546875
-0.012451171875
-0.0113525390625
-0.0040283203125
-0.0010986328125
-0.0029296875
-0.0010986328125
-0.0076904296875
0.0054931640625
-0.0098876953125
0.0
-0.003662109375
-0.0025634765625
0.0106201171875
-0.003662109375
0.0113525390625
0.0003662109375
0.0032958984375
0.0040283203125
0.000732421875
-0.002197265625
-0.0025634765625
0.00146484375
-0.0003662109375
0.0029296875
-0.0025634765625
-0.0025634765625
-0.00146484375
-0.0040283203125
0.00439453125
0.0054931640625
0.0047607421875
0.0076904296875
-0.0216064453125
0.01904296875
0.0113525390625
-0.0260009765625
0.029296875
-0.0201416015625
-0.013916015625
0.0289306640625
-0.0076904296875
0.00146484375
-0.002197265625
-0.0029296875
-0.0040283203125
-0.00146484375
-0.0076904296875
0.0003662109375
-0.0062255859375
-0.0003662109375
0.0062255859375
-0.0106201171875
0.01318359375
-0.0113525390625
0.0113525390625
-0.0010986328125
0.002197265625
0.0040283203125
-0.002197265625
0.002197265625
-0.0010986328125
0.0
-0.000732421875
-0.0047607421875
-0.0025634765625
-0.0025634765625
0.0010986328125
0.005126953125
0.0069580078125
0.0040283203125
-0.0087890625
0.006591796875
-0.005859375
-0.0029296875
0.0157470703125
-0.003662109375
0.0025634765625
-0.0025634765625
-0.009521484375
-0.008056640625
-0.0025634765625
-0.0003662109375
-0.0040283203125
-0.0003662109375
-0.0069580078125
-0.00439453125
-0.0032958984375
-0.0076904296875
0.0018310546875
-0.0054931640625
0.008056640625
0.00439453125
0.0069580078125
0.00732421875
-0.000732421875
0.003662109375
-0.0029296875
0.00439453125
-0.00146484375
-0.002197265625
0.0003662109375
-0.0076904296875
-0.0029296875
0.000732421875
0.0018310546875
0.0084228515625
0.00439453125
0.0106201171875
-0.0120849609375
0.00732421875
-0.0128173828125
0.038818359375
0.0157470703125
0.00732421875
0.0113525390625
-0.0435791015625
-0.0069580078125
-0.0135498046875
-0.00146484375
0.0
-0.0029296875
-0.0003662109375
-0.00439453125
-0.0047607421875
-0.0054931640625
-0.0054931640625
0.0
-0.0025634765625
0.0069580078125
0.005126953125
0.0047607421875
0.008056640625
0.00146484375
0.0010986328125
-0.0025634765625
0.00146484375
-0.0018310546875
-0.0186767578125
-0.0333251953125
0.0281982421875
-0.0146484375
0.1490478515625
0.03515625
0.03662109375
0.0135498046875
-0.1248779296875
0.013916015625
-0.0897216796875
0.019775390625
-0.0340576171875
0.0084228515625
-0.0216064453125
0.0018310546875
-0.0303955078125
-0.0179443359375
-0.012451171875
-0.02783203125
0.029296875
-0.0128173828125
0.0494384765625
0.006591796875
0.030029296875
0.0087890625
0.0113525390625
0.002197265625
0.0032958984375
-0.0003662109375
0.0018310546875
0.000732421875
0.0010986328125
0.0003662109375
-0.000732421875
0.000732421875
0.000732421875
0.00146484375
-0.0003662109375
0.0003662109375
-0.0069580078125
-0.0025634765625
-0.0062255859375
-0.005126953125
0.0025634765625
0.0018310546875
0.008056640625
0.0029296875
0.0084228515625
-0.0260009765625
-0.00439453125
0.0252685546875
0.0230712890625
0.0281982421875
0.0029296875
-0.0234375
-0.032958984375
-0.003662109375
-0.005126953125
-0.0029296875
-0.000732421875
-0.0054931640625
-0.000732421875
-0.0084228515625
-0.005126953125
-0.0069580078125
-0.0091552734375
-0.0018310546875
-0.0069580078125
0.0098876953125
0.0076904296875
0.0128173828125
0.01171875
0.0047607421875
0.0047607421875
-0.0018310546875
0.003662109375
-0.0018310546875
-0.000732421875
-0.003662109375
0.0003662109375
-0.0032958984375
0.0010986328125
0.0047607421875
0.0069580078125
0.005126953125
0.003662109375
-0.0340576171875
0.0091552734375
0.0377197265625
-0.005859375
0.0380859375
-0.0120849609375
-0.038818359375
0.0098876953125
-0.0029296875
0.0010986328125
-0.0025634765625
-0.0010986328125
-0.005859375
0.0047607421875
-0.00732421875
0.0029296875
-0.0054931640625
-0.0047607421875
0.0120849609375
-0.0120849609375
0.0142822265625
-0.0032958984375
0.0040283203125
0.00146484375
0.00146484375
-0.0010986328125
-0.0018310546875
0.005859375
-0.000732421875
0.000732421875
-0.000732421875
-0.0087890625
-0.0025634765625
-0.000732421875
0.00146484375
0.003662109375
0.006591796875
0.002197265625
-0.0179443359375
0.015380859375
-0.0025634765625
-0.0091552734375
0.0230712890625
-0.0157470703125
-0.00146484375
0.0091552734375
-0.005859375
0.003662109375
-0.0010986328125
0.002197265625
-0.0047607421875
-0.0003662109375
-0.0076904296875
-0.0098876953125
-0.0025634765625
-0.0069580078125
0.00439453125
-0.0047607421875
0.0113525390625
-0.008056640625
0.0087890625
-0.000732421875
0.0010986328125
-0.0003662109375
-0.00146484375
0.0010986328125
-0.0047607421875
-0.0018310546875
-0.005126953125
-0.0091552734375
-0.0054931640625
0.000732421875
0.0010986328125
0.0076904296875
0.003662109375
0.006591796875
-0.029296875
0.01318359375
0.0260009765625
0.016845703125
0.0296630859375
-0.0135498046875
-0.0274658203125
-0.021240234375
-0.0040283203125
-0.000732421875
-0.0010986328125
-0.000732421875
-0.0025634765625
-0.0010986328125
-0.005126953125
-0.00439453125
-0.00439453125
-0.00732421875
0.0040283203125
-0.0025634765625
0.009521484375
0.0062255859375
0.0029296875
0.0069580078125
-0.000732421875
0.0029296875
-0.0018310546875
0.0032958984375
0.0
-0.0047607421875
0.000732421875
-0.0062255859375
-0.002197265625
0.0025634765625
0.0029296875
0.0091552734375
0.00439453125
0.010986328125
-0.0289306640625
-0.0040283203125
0.0267333984375
0.03369140625
0.0318603515625
0.0032958984375
-0.0274658203125
-0.0391845703125
-0.00439453125
-0.0010986328125
-0.0010986328125
-0.000732421875
-0.0040283203125
-0.000732421875
-0.0062255859375
-0.005126953125
-0.0029296875
-0.005859375
0.0047607421875
0.0018310546875
0.00732421875
0.009521484375
0.0032958984375
0.006591796875
0.0010986328125
0.0
-0.0010986328125
-0.0029296875
0.0
-0.0106201171875
-0.0032958984375
0.000732421875
-0.0025634765625
0.008056640625
0.00439453125
0.0084228515625
0.0018310546875
0.01025390625
-0.0205078125
-0.0040283203125
0.0223388671875
0.024169921875
0.0216064453125
0.00146484375
-0.0223388671875
-0.0289306640625
-0.0010986328125
-0.0025634765625
-0.002197265625
0.0
-0.005126953125
0.0
-0.005859375
-0.0040283203125
-0.0025634765625
-0.0047607421875
0.0069580078125
-0.000732421875
0.008056640625
0.0054931640625
0.0032958984375
0.003662109375
0.000732421875
-0.00146484375
-0.0003662109375
-0.0003662109375
0.0
-0.0025634765625
-0.000732421875
-0.006591796875
-0.0018310546875
-0.0003662109375
0.0025634765625
0.0098876953125
0.003662109375
0.009521484375
-0.022705078125
0.0003662109375
0.0146484375
0.0318603515625
0.0245361328125
0.0025634765625
-0.0146484375
-0.037353515625
-0.0047607421875
-0.005126953125
-0.0032958984375
-0.0003662109375
-0.005126953125
-0.000732421875
-0.0098876953125
0.000732421875
-0.0062255859375
-0.0047607421875
0.00439453125
-0.0091552734375
0.012451171875
-0.0003662109375
0.005859375
0.0084228515625
0.000732421875
0.00732421875
-0.000732421875
0.0025634765625
-0.0029296875
-0.00146484375
-0.000732421875
-0.0062255859375
-0.0047607421875
-0.0025634765625
-0.0025634765625
0.0076904296875
0.0054931640625
0.005859375
0.0003662109375
0.0106201171875
-0.0113525390625
-0.02197265625
0.0194091796875
-0.005126953125
0.0113525390625
0.02197265625
-0.0172119140625
0.0010986328125
-0.00146484375
0.0062255859375
-0.00439453125
0.0032958984375
-0.006591796875
0.0003662109375
-0.0087890625
-0.0032958984375
0.0
-0.008056640625
0.013916015625
-0.0084228515625
0.01025390625
0.0003662109375
0.003662109375
0.0025634765625
-0.002197265625
0.0
-0.003662109375
0.0
-0.0010986328125
-0.0018310546875
-0.0010986328125
-0.005859375
0.0
-0.000732421875
0.0054931640625
0.0047607421875
0.0054931640625
0.0062255859375
-0.0296630859375
0.0223388671875
0.025634765625
-0.0201416015625
0.03076171875
-0.018310546875
-0.0281982421875
0.01904296875
-0.005859375
0.0
-0.002197265625
-0.0010986328125
-0.0018310546875
-0.0029296875
-0.0062255859375
-0.0032958984375
-0.0040283203125
-0.0047607421875
0.005859375
-0.01171875
0.0084228515625
-0.0084228515625
0.0025634765625
0.002197265625
0.0
0.0
-0.0029296875
0.000732421875
-0.00439453125
-0.00146484375
-0.0040283203125
-0.0069580078125
-0.0040283203125
-0.0018310546875
0.0025634765625
0.0069580078125
0.00439453125
0.0087890625
-0.02197265625
0.006591796875
0.0084228515625
0.032958984375
0.024169921875
-0.002197265625
-0.0106201171875
-0.0369873046875
-0.005859375
-0.0029296875
-0.002197265625
0.000732421875
-0.003662109375
-0.000732421875
-0.006591796875
-0.0040283203125
-0.0032958984375
-0.0062255859375
0.0054931640625
-0.0018310546875
0.0069580078125
0.0076904296875
0.0029296875
0.008056640625
0.00146484375
0.00146484375
-0.000732421875
0.000732421875
0.0003662109375
-0.00439453125
0.002197265625
-0.0091552734375
-0.00146484375
0.0010986328125
-0.002197265625
0.0113525390625
0.0032958984375
0.009521484375
-0.0029296875
0.01025390625
-0.0186767578125
0.0263671875
0.01318359375
0.0113525390625
0.0172119140625
-0.0289306640625
-0.0084228515625
-0.021240234375
-0.0010986328125
-0.0010986328125
-0.002197265625
0.0
-0.0032958984375
-0.0025634765625
-0.0069580078125
-0.0040283203125
-0.0025634765625
-0.003662109375
0.0076904296875
0.003662109375
0.0087890625
0.0076904296875
0.0018310546875
0.0025634765625
0.0
-0.0010986328125
-0.00146484375
-0.0010986328125
-0.0010986328125
-0.006591796875
-0.00146484375
-0.00439453125
-0.00439453125
0.005859375
0.0025634765625
0.01025390625
0.005126953125
0.0091552734375
-0.0267333984375
-0.005126953125
0.030029296875
0.03076171875
0.03076171875
0.003662109375
-0.030029296875
-0.03515625
-0.0032958984375
-0.00146484375
-0.0018310546875
0.0
-0.005126953125
0.0003662109375
-0.0069580078125
-0.003662109375
-0.0032958984375
-0.0062255859375
0.0069580078125
-0.002197265625
0.009521484375
0.0054931640625
0.003662109375
0.005126953125
0.0003662109375
-0.0003662109375
-0.0018310546875
0.0018310546875
-0.000732421875
-0.0025634765625
0.0003662109375
-0.01025390625
-0.0040283203125
0.0010986328125
-0.0029296875
0.0084228515625
0.005859375
0.0069580078125
-0.0010986328125
0.0076904296875
-0.01611328125
0.0084228515625
0.016845703125
0.0018310546875
0.0150146484375
-0.012451171875
-0.0128173828125
-0.008056640625
-0.003662109375
0.002197265625
-0.00439453125
0.00439453125
-0.0069580078125
0.0018310546875
-0.0084228515625
-0.0010986328125
-0.0018310546875
-0.00732421875
0.0087890625
-0.005126953125
0.0120849609375
0.002197265625
0.003662109375
0.0010986328125
-0.0018310546875
0.003662109375
-0.0018310546875
0.005859375
0.0003662109375
-0.0029296875
-0.00146484375
-0.0025634765625
-0.002197265625
0.00146484375
0.0032958984375
0.003662109375
0.0047607421875
0.0106201171875
-0.0142822265625
0.0128173828125
0.00146484375
-0.021240234375
0.0205078125
-0.009521484375
-0.0025634765625
0.013916015625
-0.0062255859375
-0.0018310546875
-0.0025634765625
0.00439453125
-0.0032958984375
0.0029296875
-0.0069580078125
0.00146484375
-0.0054931640625
-0.0054931640625
0.005859375
-0.015380859375
0.0087890625
-0.0076904296875
0.0062255859375
0.00439453125
0.0029296875
0.0040283203125
-0.00146484375
0.0003662109375
-0.0003662109375
-0.0062255859375
0.0003662109375
-0.0047607421875
-0.000732421875
-0.0029296875
-0.0029296875
-0.0040283203125
0.0029296875
0.0054931640625
0.00439453125
0.009521484375
-0.03369140625
0.0113525390625
0.03369140625
-0.0076904296875
0.035888671875
-0.01611328125
-0.032958984375
-0.0003662109375
-0.005126953125
-0.002197265625
-0.0025634765625
-0.00146484375
-0.005126953125
-0.00146484375
-0.0106201171875
-0.0040283203125
-0.009521484375
-0.0076904296875
0.0
-0.0047607421875
0.0076904296875
0.003662109375
0.003662109375
0.005126953125
0.002197265625
0.0018310546875
0.0
0.0025634765625
-0.000732421875
-0.002197265625
-0.0003662109375
-0.0062255859375
-0.002197265625
0.0
0.0025634765625
0.0084228515625
0.0040283203125
0.0106201171875
-0.0194091796875
0.0029296875
0.0087890625
0.0428466796875
0.0281982421875
0.000732421875
-0.005859375
-0.0479736328125
-0.005859375
-0.0047607421875
-0.0018310546875
-0.0003662109375
-0.00439453125
0.0
-0.0076904296875
-0.0032958984375
-0.00439453125
-0.0047607421875
0.0054931640625
-0.0010986328125
0.0091552734375
0.005859375
0.005126953125
0.0054931640625
0.000732421875
0.0010986328125
-0.002197265625
0.002197265625
-0.000732421875
-0.0025634765625
0.0010986328125
-0.0098876953125
-0.0018310546875
0.000732421875
-0.003662109375
0.0120849609375
0.0032958984375
0.0084228515625
0.0003662109375
0.008056640625
-0.0142822265625
0.0186767578125
0.0164794921875
0.0113525390625
0.0157470703125
-0.0230712890625
-0.0135498046875
-0.01904296875
-0.0032958984375
0.0010986328125
-0.000732421875
-0.000732421875
-0.0047607421875
-0.00146484375
-0.005859375
-0.00439453125
-0.0010986328125
-0.005859375
0.006591796875
0.0010986328125
0.0087890625
0.005859375
0.002197265625
0.0032958984375
-0.000732421875
0.0
-0.002197265625
0.0
0.0
-0.0054931640625
-0.000732421875
-0.005859375
-0.002197265625
0.00146484375
0.00439453125
0.0091552734375
0.0040283203125
0.0113525390625
-0.025634765625
0.0003662109375
0.0252685546875
0.0340576171875
0.0274658203125
0.0029296875
-0.02783203125
-0.0369873046875
-0.005126953125
-0.0040283203125
-0.00146484375
0.0
-0.0040283203125
-0.0003662109375
-0.0054931640625
-0.00439453125
-0.0047607421875
-0.00439453125
0.003662109375
-0.003662109375
0.008056640625
0.0054931640625
0.003662109375
0.006591796875
0.0
0.0003662109375
-0.0010986328125
-0.0003662109375
-0.0003662109375
-0.0025634765625
0.000732421875
-0.0062255859375
-0.0010986328125
-0.0018310546875
-0.0025634765625
0.008056640625
0.0069580078125
0.006591796875
0.0040283203125
0.0047607421875
-0.018310546875
-0.0091552734375
0.019775390625
0.0032958984375
0.016845703125
0.0084228515625
-0.019775390625
-0.01025390625
-0.0025634765625
0.0
-0.00146484375
0.005126953125
-0.0069580078125
0.005859375
-0.010986328125
-0.0010986328125
-0.0047607421875
-0.005859375
0.0087890625
-0.008056640625
0.0120849609375
-0.00146484375
0.005126953125
0.00439453125
0.0025634765625
-0.0003662109375
-0.0010986328125
0.0010986328125
-0.0018310546875
0.000732421875
-0.0029296875
-0.003662109375
-0.0018310546875
-0.002197265625
0.003662109375
0.0098876953125
0.002197265625
0.0091552734375
-0.030029296875
0.0205078125
0.03515625
-0.029296875
0.034423828125
-0.0223388671875
-0.0325927734375
0.0263671875
-0.003662109375
-0.0029296875
-0.00439453125
0.0029296875
-0.0076904296875
0.0069580078125
-0.0091552734375
0.0029296875
-0.0047607421875
-0.00146484375
0.00732421875
-0.0128173828125
0.0135498046875
-0.0069580078125
0.0062255859375
0.002197265625
0.0
-0.00146484375
-0.0010986328125
-0.00146484375
-0.002197265625
-0.002197265625
-0.0029296875
-0.0069580078125
-0.00732421875
-0.002197265625
-0.0018310546875
0.006591796875
0.0054931640625
0.0062255859375
-0.0113525390625
0.009521484375
-0.012451171875
0.0238037109375
0.0172119140625
0.00146484375
0.0113525390625
-0.0263671875
-0.005859375
-0.012451171875
-0.0029296875
0.0
-0.00439453125
-0.0003662109375
-0.00732421875
-0.00439453125
-0.0047607421875
-0.00732421875
0.0040283203125
-0.005126953125
0.0091552734375
0.0047607421875
0.0062255859375
0.008056640625
0.0010986328125
0.0025634765625
-0.000732421875
0.0018310546875
-0.0029296875
-0.0025634765625
-0.002197265625
-0.0069580078125
-0.003662109375
0.002197265625
0.002197265625
0.0087890625
0.0054931640625
0.0091552734375
-0.01025390625
0.0069580078125
-0.01318359375
0.0333251953125
0.01611328125
0.0069580078125
0.0142822265625
-0.038818359375
-0.0076904296875
-0.0128173828125
-0.003662109375
0.000732421875
-0.003662109375
0.0003662109375
-0.006591796875
-0.000732421875
-0.00439453125
-0.003662109375
0.0018310546875
-0.0032958984375
0.00732421875
0.0029296875
0.0062255859375
0.005859375
0.000732421875
0.000732421875
-0.0018310546875
-0.0003662109375
-0.0003662109375
-0.000732421875
0.0003662109375
-0.00732421875
-0.0029296875
-0.003662109375
-0.0025634765625
0.003662109375
0.0032958984375
0.0084228515625
0.00439453125
0.0084228515625
-0.0281982421875
-0.0032958984375
0.031494140625
0.0274658203125
0.0289306640625
0.0040283203125
-0.032958984375
-0.031494140625
-0.0029296875
-0.002197265625
-0.0029296875
0.000732421875
-0.003662109375
-0.0025634765625
-0.0062255859375
-0.0054931640625
-0.003662109375
-0.0062255859375
0.0054931640625
-0.0018310546875
0.009521484375
0.005126953125
0.0040283203125
0.005859375
0.0003662109375
0.0018310546875
-0.0003662109375
0.0
-0.000732421875
-0.0029296875
0.00146484375
-0.008056640625
-0.003662109375
0.0
-0.0018310546875
0.00732421875
0.0047607421875
0.0087890625
-0.0054931640625
0.0128173828125
-0.0150146484375
0.017578125
0.01611328125
0.0054931640625
0.0150146484375
-0.0205078125
-0.010986328125
-0.0172119140625
-0.000732421875
-0.000732421875
-0.00439453125
0.0054931640625
-0.008056640625
0.002197265625
-0.00732421875
-0.0029296875
-0.00146484375
-0.0091552734375
0.01171875
-0.00439453125
0.0098876953125
0.006591796875
0.003662109375
-0.000732421875
0.00146484375
-0.00146484375
0.0010986328125
0.003662109375
0.00146484375
-0.0018310546875
0.0003662109375
-0.0032958984375
-0.003662109375
-0.0010986328125
-0.0018310546875
0.0032958984375
0.005126953125
0.0087890625
-0.0040283203125
0.01318359375
-0.006591796875
-0.0238037109375
0.018310546875
-0.0087890625
0.0084228515625
0.0223388671875
-0.0120849609375
-0.003662109375
-0.0032958984375
-0.0010986328125
-0.003662109375
0.0069580078125
-0.009521484375
0.009521484375
-0.0087890625
0.0025634765625
-0.000732421875
-0.0087890625
0.010986328125
-0.0150146484375
0.012451171875
-0.002197265625
0.0047607421875
0.0040283203125
0.0003662109375
-0.0010986328125
-0.0018310546875
0.0029296875
-0.0010986328125
-0.0025634765625
-0.0029296875
-0.0047607421875
-0.000732421875
-0.0018310546875
0.0047607421875
0.0029296875
0.005859375
0.0062255859375
-0.031494140625
0.0186767578125
0.0318603515625
-0.0087890625
0.03369140625
-0.022705078125
-0.0355224609375
0.0025634765625
-0.005126953125
-0.0025634765625
-0.0040283203125
-0.0010986328125
-0.0047607421875
-0.002197265625
-0.008056640625
-0.0040283203125
-0.0040283203125
-0.006591796875
0.008056640625
-0.0062255859375
0.0091552734375
0.0040283203125
0.00439453125
0.0047607421875
-0.0003662109375
0.0029296875
-0.0029296875
0.0040283203125
-0.0018310546875
-0.0025634765625
0.0010986328125
-0.0084228515625
-0.0025634765625
-0.0003662109375
-0.00146484375
0.0087890625
0.0054931640625
0.0076904296875
-0.0062255859375
0.01025390625
-0.0179443359375
0.0318603515625
0.0150146484375
0.01025390625
0.01611328125
-0.034423828125
-0.0098876953125
-0.0186767578125
-0.002197265625
0.0
-0.0018310546875
-0.00146484375
-0.005126953125
-0.0029296875
-0.00439453125
-0.005859375
0.0003662109375
-0.0040283203125
0.006591796875
0.0040283203125
0.0054931640625
0.0076904296875
0.0010986328125
0.0025634765625
-0.0003662109375
-0.0003662109375
-0.0025634765625
-0.0003662109375
0.0010986328125
-0.0087890625
-0.00146484375
-0.0032958984375
-0.0040283203125
0.005859375
0.0025634765625
0.0087890625
0.0040283203125
0.0091552734375
-0.0234375
-0.0076904296875
0.0281982421875
0.024169921875
0.0260009765625
0.0047607421875
-0.029296875
-0.0289306640625
-0.0025634765625
-0.0018310546875
-0.0018310546875
-0.0003662109375
-0.0040283203125
-0.000732421875
-0.0069580078125
-0.0029296875
-0.00439453125
-0.0032958984375
0.0047607421875
0.0
0.008056640625
0.005126953125
0.005126953125
0.0029296875
0.0
0.0003662109375
0.0
-0.0010986328125
0.0
-0.0032958984375
0.000732421875
-0.0069580078125
-0.0025634765625
0.0003662109375
-0.003662109375
0.010986328125
0.003662109375
0.0087890625
-0.00439453125
0.010986328125
-0.0146484375
0.0186767578125
0.01611328125
0.006591796875
0.0150146484375
-0.022705078125
-0.0113525390625
-0.017578125
-0.00146484375
0.0
-0.0010986328125
-0.0018310546875
-0.00732421875
-0.0018310546875
-0.008056640625
-0.0047607421875
-0.0010986328125
-0.00732421875
0.0091552734375
0.000732421875
0.0091552734375
0.0069580078125
0.003662109375
0.0018310546875
0.00146484375
-0.0054931640625
-0.002197265625
0.0003662109375
0.000732421875
0.0032958984375
0.0003662109375
0.000732421875
-0.0054931640625
0.002197265625
-0.000732421875
0.005859375
0.005859375
0.0062255859375
-0.005859375
0.0106201171875
-0.0062255859375
-0.0018310546875
0.01611328125
-0.0076904296875
0.006591796875
0.0032958984375
-0.0087890625
0.0003662109375
-0.003662109375
0.002197265625
-0.0040283203125
0.00146484375
-0.0076904296875
0.0029296875
-0.0076904296875
0.00146484375
0.002197265625
-0.0084228515625
0.0120849609375
-0.0128173828125
0.01171875
-0.00439453125
0.0047607421875
0.0029296875
-0.002197265625
0.005859375
-0.00439453125
0.00732421875
0.0032958984375
-0.0084228515625
-0.0010986328125
-0.010986328125
-0.005126953125
0.0025634765625
0.005859375
0.00732421875
0.00439453125
0.009521484375
-0.0245361328125
0.0208740234375
0.0234375
-0.0267333984375
0.028564453125
-0.0238037109375
-0.0234375
0.0230712890625
-0.003662109375
0.003662109375
-0.0025634765625
0.0032958984375
-0.0062255859375
0.005126953125
-0.0069580078125
-0.00146484375
-0.00439453125
-0.0029296875
0.006591796875
-0.009521484375
0.0120849609375
-0.01171875
0.0069580078125
0.002197265625
0.0010986328125
0.0025634765625
-0.0010986328125
-0.000732421875
-0.000732421875
-0.00146484375
-0.0003662109375
-0.0047607421875
-0.00146484375
-0.0010986328125
0.0025634765625
0.0003662109375
0.0062255859375
0.002197265625
-0.0076904296875
0.0084228515625
-0.0150146484375
0.0047607421875
0.0135498046875
-0.000732421875
0.0113525390625
-0.0091552734375
-0.009521484375
-0.0087890625
-0.0040283203125
0.0010986328125
-0.002197265625
-0.000732421875
-0.008056640625
-0.000732421875
-0.009521484375
-0.003662109375
0.000732421875
-0.0076904296875
0.00732421875
0.0029296875
0.0069580078125
0.0062255859375
0.0003662109375
0.0032958984375
-0.0025634765625
0.0010986328125
-0.0025634765625
-0.00146484375
-0.0010986328125
-0.0076904296875
-0.00439453125
0.00146484375
-0.0032958984375
0.01025390625
0.00439453125
0.00732421875
-0.0003662109375
0.009521484375
-0.01904296875
0.0146484375
0.0157470703125
0.015380859375
0.019775390625
-0.0186767578125
-0.015380859375
-0.0216064453125
-0.0029296875
0.0
-0.0018310546875
-0.0003662109375
-0.0047607421875
-0.0018310546875
-0.0069580078125
-0.005126953125
-0.0040283203125
-0.0032958984375
0.006591796875
0.0025634765625
0.00732421875
0.00732421875
0.0018310546875
0.002197265625
-0.000732421875
-0.0010986328125
-0.00146484375
0.000732421875
0.0010986328125
-0.0054931640625
-0.0018310546875
-0.005859375
-0.0040283203125
0.0025634765625
0.0018310546875
0.0106201171875
0.003662109375
0.0098876953125
-0.0274658203125
-0.00146484375
0.0281982421875
0.03515625
0.031494140625
0.0010986328125
-0.0281982421875
-0.0406494140625
-0.003662109375
-0.00439453125
-0.0025634765625
0.0003662109375
-0.0047607421875
0.000732421875
-0.0069580078125
-0.0029296875
-0.0040283203125
-0.00439453125
0.005859375
-0.0018310546875
0.0087890625
0.00439453125
0.0032958984375
0.00439453125
0.0003662109375
-0.0003662109375
0.0
-0.0010986328125
-0.00146484375
-0.0018310546875
0.0
-0.0084228515625
-0.003662109375
0.0010986328125
-0.0018310546875
0.009521484375
0.0054931640625
0.006591796875
0.0003662109375
0.0087890625
-0.0135498046875
0.0069580078125
0.0164794921875
0.01171875
0.0142822265625
-0.0120849609375
-0.0164794921875
-0.018310546875
-0.0025634765625
0.0010986328125
-0.0018310546875
-0.000732421875
-0.0062255859375
-0.0010986328125
-0.006591796875
-0.0054931640625
-0.000732421875
-0.0084228515625
0.008056640625
-0.000732421875
0.008056640625
0.0076904296875
0.0032958984375
0.003662109375
-0.00146484375
0.0003662109375
-0.0018310546875
0.00146484375
0.0010986328125
-0.00146484375
0.002197265625
-0.0062255859375
-0.000732421875
-0.0047607421875
0.0
0.005126953125
0.005126953125
0.0098876953125
-0.0047607421875
0.0113525390625
-0.0120849609375
0.0047607421875
0.01318359375
-0.00146484375
0.0113525390625
-0.0010986328125
-0.0091552734375
-0.002197265625
-0.0029296875
-0.00146484375
-0.002197265625
0.0010986328125
-0.0091552734375
0.005859375
-0.0106201171875
0.0
0.0
-0.0091552734375
0.01171875
-0.0076904296875
0.01171875
0.0018310546875
0.0025634765625
0.0025634765625
0.0
-0.0003662109375
0.000732421875
0.0040283203125
0.0018310546875
-0.003662109375
-0.000732421875
-0.005859375
-0.0040283203125
0.0010986328125
0.002197265625
0.006591796875
0.0047607421875
0.0069580078125
-0.021240234375
0.017578125
0.0120849609375
-0.019775390625
0.0281982421875
-0.0201416015625
-0.010986328125
0.0186767578125
-0.0062255859375
0.0018310546875
-0.0025634765625
0.0003662109375
-0.0054931640625
0.005859375
-0.0091552734375
0.0
-0.006591796875
-0.0029296875
0.0047607421875
-0.0076904296875
0.0113525390625
-0.0084228515625
0.0087890625
0.0
0.0025634765625
-0.0025634765625
-0.0025634765625
0.0
-0.0040283203125
-0.0018310546875
-0.0025634765625
-0.0076904296875
-0.003662109375
-0.0018310546875
-0.003662109375
0.00439453125
0.003662109375
0.005126953125
0.002197265625
0.005859375
-0.018310546875
-0.00732421875
0.0216064453125
0.0164794921875
0.0186767578125
0.0025634765625
-0.02197265625
-0.0216064453125
-0.0040283203125
0.0018310546875
-0.0032958984375
0.0
-0.005859375
-0.0018310546875
-0.0069580078125
-0.0062255859375
-0.002197265625
-0.0062255859375
0.0069580078125
0.0018310546875
0.0087890625
0.0069580078125
0.0029296875
0.0040283203125
0.0003662109375
0.0010986328125
-0.00146484375
0.0018310546875
-0.0010986328125
-0.002197265625
-0.0025634765625
-0.0047607421875
-0.0025634765625
0.0003662109375
0.0032958984375
0.0069580078125
0.005859375
0.00732421875
-0.01318359375
0.0
-0.0062255859375
0.0439453125
0.021240234375
0.00439453125
0.00439453125
-0.0487060546875
-0.00732421875
-0.008056640625
-0.002197265625
0.0
-0.003662109375
0.0010986328125
-0.0062255859375
-0.002197265625
-0.005126953125
-0.0040283203125
0.0040283203125
-0.0032958984375
0.008056640625
0.0040283203125
0.005859375
0.005859375
0.000732421875
0.0010986328125
-0.002197265625
0.0
-0.00146484375
0.000732421875
-0.0003662109375
-0.0018310546875
-0.000732421875
-0.0047607421875
-0.0025634765625
0.000732421875
0.0018310546875
0.0076904296875
0.0040283203125
0.009521484375
-0.0142822265625
0.0040283203125
-0.00439453125
0.0369873046875
0.01904296875
0.002197265625
0.0040283203125
-0.0428466796875
-0.005126953125
-0.008056640625
-0.002197265625
0.0
-0.0025634765625
-0.0010986328125
-0.005126953125
-0.0040283203125
-0.0062255859375
-0.0047607421875
0.0029296875
-0.0047607421875
0.0084228515625
0.0032958984375
0.0054931640625
0.00732421875
0.0025634765625
0.000732421875
-0.0010986328125
0.0003662109375
0.0
0.0
0.00146484375
-0.0025634765625
0.0010986328125
-0.0084228515625
-0.0029296875
0.0003662109375
-0.0032958984375
0.008056640625
0.0040283203125
0.0069580078125
-0.000732421875
0.0106201171875
-0.0142822265625
0.008056640625
0.017578125
0.0091552734375
0.016845703125
-0.0142822265625
-0.01318359375
-0.01904296875
-0.0018310546875
0.0010986328125
-0.00146484375
0.0
-0.006591796875
0.0010986328125
-0.0098876953125
0.0003662109375
-0.0062255859375
-0.0032958984375
0.008056640625
-0.00146484375
0.012451171875
0.0029296875
0.0047607421875
0.0032958984375
0.000732421875
0.002197265625
0.0
-0.0018310546875
0.000732421875
-0.00439453125
-0.0018310546875
-0.00146484375
-0.0047607421875
0.00146484375
-0.0010986328125
0.005859375
0.0054931640625
0.0040283203125
0.00146484375
0.0084228515625
-0.0150146484375
-0.021240234375
0.0252685546875
-0.0106201171875
0.0179443359375
0.0223388671875
-0.0238037109375
0.0047607421875
-0.00439453125
0.002197265625
-0.0029296875
0.0003662109375
-0.0076904296875
0.005859375
-0.01025390625
0.0069580078125
-0.003662109375
-0.006591796875
0.01025390625
-0.013916015625
0.0150146484375
-0.00732421875
0.0062255859375
-0.0010986328125
-0.0010986328125
0.0047607421875
-0.0032958984375
0.0040283203125
-0.0003662109375
0.0003662109375
0.0018310546875
-0.005126953125
-0.0025634765625
-0.0029296875
-0.0010986328125
0.002197265625
0.0054931640625
0.002197265625
0.0029296875
0.006591796875
-0.018310546875
-0.01611328125
0.0186767578125
0.0
0.016845703125
0.0142822265625
-0.02197265625
-0.006591796875
-0.0047607421875
-0.0018310546875
-0.0029296875
-0.0018310546875
-0.0047607421875
-0.003662109375
-0.009521484375
-0.0054931640625
-0.0032958984375
-0.008056640625
0.00732421875
-0.0029296875
0.0087890625
0.00439453125
0.002197265625
0.005126953125
-0.0010986328125
0.0029296875
-0.00146484375
0.00146484375
-0.00146484375
-0.0029296875
0.00146484375
-0.0084228515625
-0.003662109375
0.000732421875
-0.0003662109375
0.009521484375
0.0047607421875
0.009521484375
-0.009521484375
0.009521484375
-0.0179443359375
0.0399169921875
0.015380859375
0.006591796875
0.017578125
-0.0439453125
-0.0076904296875
-0.0157470703125
-0.0010986328125
-0.00146484375
-0.002197265625
-0.0003662109375
-0.0047607421875
-0.0018310546875
-0.005126953125
-0.0054931640625
0.0
-0.0040283203125
0.0069580078125
0.0032958984375
0.0047607421875
0.006591796875
0.00146484375
0.002197265625
-0.0010986328125
0.0003662109375
-0.000732421875
-0.0010986328125
0.0003662109375
-0.0040283203125
-0.000732421875
-0.0047607421875
-0.003662109375
0.002197265625
0.000732421875
0.0091552734375
0.0054931640625
0.0084228515625
-0.01318359375
0.005859375
-0.01171875
0.0362548828125
0.01904296875
0.0029296875
0.01171875
-0.041748046875
-0.0062255859375
-0.009521484375
-0.0029296875
0.0003662109375
-0.0040283203125
-0.0003662109375
-0.0069580078125
-0.0018310546875
-0.005859375
-0.0047607421875
0.000732421875
-0.003662109375
0.0091552734375
0.002197265625
0.0084228515625
0.0047607421875
0.0025634765625
0.000732421875
-0.0003662109375
-0.0003662109375
-0.00146484375
0.000732421875
0.0
-0.0032958984375
0.0
-0.005859375
-0.0040283203125
0.0010986328125
-0.00146484375
0.0087890625
0.005126953125
0.0087890625
-0.0054931640625
0.009521484375
-0.013916015625
0.0260009765625
0.0157470703125
0.0054931640625
0.01318359375
-0.0296630859375
-0.009521484375
-0.0150146484375
-0.0029296875
0.0010986328125
-0.0029296875
0.0
-0.006591796875
-0.00146484375
-0.0062255859375
-0.005126953125
0.0010986328125
-0.008056640625
0.0084228515625
0.00146484375
0.0084228515625
0.0069580078125
0.000732421875
0.003662109375
-0.0003662109375
0.000732421875
-0.0018310546875
0.000732421875
-0.0018310546875
0.0003662109375
0.00146484375
-0.00732421875
-0.0025634765625
-0.0025634765625
-0.0029296875
0.005126953125
0.0047607421875
0.0062255859375
0.0054931640625
0.005126953125
-0.0260009765625
-0.002197265625
0.0260009765625
0.01318359375
0.025634765625
0.0018310546875
-0.0274658203125
-0.0172119140625
-0.0018310546875
-0.0025634765625
-0.0018310546875
-0.0018310546875
-0.0047607421875
0.000732421875
-0.0106201171875
0.00732421875
-0.0054931640625
-0.0010986328125
0.008056640625
-0.009521484375
0.01318359375
0.0003662109375
0.005859375
0.00439453125
0.0
0.0
0.0
0.0018310546875
-0.000732421875
0.000732421875
0.0
-0.005126953125
-0.00146484375
-0.0032958984375
-0.0029296875
0.0010986328125
0.0029296875
0.0076904296875
0.0054931640625
0.003662109375
-0.028564453125
0.0223388671875
0.034423828125
-0.02490234375
0.03369140625
-0.0238037109375
-0.0362548828125
0.028564453125
-0.005126953125
0.002197265625
-0.0029296875
0.003662109375
-0.0054931640625
0.003662109375
-0.0087890625
0.0054931640625
-0.0069580078125
-0.0025634765625
0.005126953125
-0.016845703125
0.0128173828125
-0.005126953125
0.0087890625
0.000732421875
0.0032958984375
-0.00146484375
0.0010986328125
0.0040283203125
-0.002197265625
0.0018310546875
-0.000732421875
-0.0025634765625
-0.00146484375
-0.003662109375
-0.0032958984375
-0.0029296875
0.003662109375
0.003662109375
0.0040283203125
0.0091552734375
-0.0333251953125
0.015380859375
0.034423828125
-0.0091552734375
0.035888671875
-0.018310546875
-0.03515625
0.0018310546875
-0.0054931640625
0.0
-0.0025634765625
-0.000732421875
-0.00439453125
-0.0025634765625
-0.0084228515625
-0.0032958984375
-0.0054931640625
-0.005859375
0.006591796875
-0.006591796875
0.0098876953125
0.0025634765625
0.00439453125
0.0054931640625
0.000732421875
0.0003662109375
-0.0029296875
0.0029296875
-0.0010986328125
-0.00146484375
0.000732421875
-0.0087890625
-0.0025634765625
0.0010986328125
-0.002197265625
0.01025390625
0.00439453125
0.0084228515625
-0.0003662109375
0.0084228515625
-0.0172119140625
0.0194091796875
0.016845703125
0.010986328125
0.01611328125
-0.022705078125
-0.0146484375
-0.0194091796875
-0.0029296875
0.0
-0.0018310546875
0.0
-0.003662109375
-0.002197265625
-0.0047607421875
-0.00439453125
-0.0003662109375
-0.005859375
0.0054931640625
0.0003662109375
0.0062255859375
0.006591796875
0.00146484375
0.003662109375
0.0003662109375
-0.0003662109375
-0.0010986328125
0.0
-0.0003662109375
-0.0032958984375
0.002197265625
-0.0098876953125
-0.0029296875
0.0010986328125
-0.0029296875
0.009521484375
0.0040283203125
0.0076904296875
0.000732421875
0.0087890625
-0.0172119140625
0.0098876953125
0.017578125
0.0128173828125
0.0172119140625
-0.0146484375
-0.0172119140625
-0.0201416015625
-0.002197265625
0.0003662109375
-0.0018310546875
-0.0003662109375
-0.00439453125
-0.00146484375
-0.00732421875
-0.0029296875
-0.0032958984375
-0.00439453125
0.005859375
0.0003662109375
0.0084228515625
0.005859375
0.003662109375
0.003662109375
0.0
0.000732421875
-0.0003662109375
-0.000732421875
-0.00146484375
0.0
0.00146484375
-0.00732421875
-0.0025634765625
0.0
-0.00439453125
0.0084228515625
0.0040283203125
0.006591796875
0.0032958984375
0.006591796875
-0.018310546875
-0.005859375
0.02490234375
0.016845703125
0.0205078125
0.0003662109375
-0.025634765625
-0.0238037109375
-0.0029296875
0.0
-0.0025634765625
0.0003662109375
-0.00439453125
-0.0003662109375
-0.0069580078125
-0.0025634765625
-0.0047607421875
-0.003662109375
0.008056640625
-0.00146484375
0.0113525390625
0.0018310546875
0.005126953125
0.000732421875
-0.000732421875
0.002197265625
-0.0018310546875
0.0
-0.0003662109375
0.0010986328125
0.0003662109375
-0.00146484375
-0.002197265625
-0.00439453125
-0.003662109375
0.002197265625
0.003662109375
0.003662109375
0.00439453125
0.0091552734375
-0.029296875
0.025634765625
0.03662109375
-0.02197265625
0.03369140625
-0.0238037109375
-0.0380859375
0.0252685546875
-0.0054931640625
0.0054931640625
-0.00146484375
0.0003662109375
-0.00732421875
0.0054931640625
-0.009521484375
0.0
-0.005859375
-0.0025634765625
0.005859375
-0.0087890625
0.0150146484375
-0.0087890625
0.0076904296875
0.0010986328125
0.0
0.003662109375
-0.0010986328125
0.0010986328125
-0.00146484375
0.0003662109375
0.0003662109375
-0.0040283203125
0.0
-0.0084228515625
-0.000732421875
0.0018310546875
0.005859375
0.01025390625
0.005126953125
0.0069580078125
-0.0311279296875
-0.002197265625
0.03076171875
-0.01171875
0.0318603515625
0.000732421875
-0.0325927734375
0.005126953125
-0.003662109375
0.0003662109375
-0.002197265625
0.003662109375
-0.005859375
0.0047607421875
-0.0091552734375
0.005859375
0.0
-0.009521484375
0.0091552734375
-0.01171875
0.0098876953125
0.00146484375
0.0069580078125
-0.008056640625
0.0029296875
-0.0025634765625
-0.0018310546875
0.005859375
-0.0029296875
-0.0032958984375
0.0
-0.0003662109375
-0.0040283203125
-0.000732421875
-0.000732421875
-0.0010986328125
0.0032958984375
0.01171875
-0.0054931640625
0.0098876953125
-0.0128173828125
-0.012451171875
0.0120849609375
-0.0076904296875
0.0150146484375
-0.0032958984375
-0.0054931640625
-0.003662109375
0.0003662109375
-0.0003662109375
-0.0018310546875
-0.0040283203125
-0.0076904296875
-0.0029296875
-0.0069580078125
-0.0062255859375
0.0029296875
-0.010986328125
0.0098876953125
-0.008056640625
0.008056640625
0.000732421875
0.0062255859375
0.0
0.002197265625
-0.0069580078125
-0.000732421875
-0.00732421875
0.00146484375
-0.006591796875
-0.000732421875
-0.00146484375
-0.0032958984375
0.0032958984375
0.00439453125
0.0054931640625
0.0047607421875
0.003662109375
-0.0208740234375
-0.0025634765625
0.01611328125
0.010986328125
0.01904296875
-0.0018310546875
-0.0205078125
-0.01318359375
-0.006591796875
0.0047607421875
-0.003662109375
0.0025634765625
-0.0047607421875
-0.00146484375
-0.01025390625
-0.0010986328125
-0.005859375
-0.0025634765625
0.0040283203125
0.0
0.0087890625
0.0062255859375
0.0040283203125
0.006591796875
0.0
0.0029296875
-0.0029296875
0.003662109375
-0.0054931640625
0.0
-0.0047607421875
-0.003662109375
-0.003662109375
0.003662109375
0.0025634765625
0.0087890625
0.0040283203125
0.0098876953125
-0.0164794921875
0.0010986328125
-0.0040283203125
0.0531005859375
0.0208740234375
0.00732421875
0.0040283203125
-0.05712890625
-0.0062255859375
-0.006591796875
-0.0032958984375
0.0018310546875
-0.0032958984375
0.0003662109375
-0.005126953125
-0.0032958984375
-0.00439453125
-0.0047607421875
0.0029296875
-0.0029296875
0.008056640625
0.0047607421875
0.005126953125
0.00732421875
0.000732421875
0.00146484375
-0.0018310546875
0.000732421875
-0.00146484375
-0.0018310546875
-0.0003662109375
-0.008056640625
-0.0025634765625
0.002197265625
-0.0029296875
0.01025390625
0.0040283203125
0.00732421875
0.0029296875
0.0076904296875
-0.0194091796875
0.005859375
0.018310546875
0.0216064453125
0.0194091796875
-0.0087890625
-0.0179443359375
-0.028564453125
-0.0029296875
0.0
-0.0018310546875
-0.0003662109375
-0.002197265625
-0.0032958984375
-0.005126953125
-0.0040283203125
-0.0029296875
-0.0029296875
0.00439453125
0.00146484375
0.005859375
0.0069580078125
0.0018310546875
0.005126953125
0.0003662109375
-0.0003662109375
-0.0018310546875
0.0003662109375
-0.0010986328125
-0.002197265625
0.00146484375
-0.0091552734375
-0.0040283203125
0.0010986328125
-0.003662109375
0.010986328125
0.003662109375
0.009521484375
-0.000732421875
0.0091552734375
-0.015380859375
0.015380859375
0.0157470703125
0.0120849609375
0.0157470703125
-0.0201416015625
-0.0128173828125
-0.0216064453125
-0.00146484375
-0.0010986328125
-0.0029296875
-0.0003662109375
-0.00439453125
-0.0025634765625
-0.00732421875
-0.0040283203125
-0.0029296875
-0.005859375
0.006591796875
0.000732421875
0.0076904296875
0.00732421875
0.00439453125
0.003662109375
0.0003662109375
-0.0003662109375
-0.0018310546875
-0.0018310546875
-0.0003662109375
-0.0029296875
0.0029296875
-0.0087890625
-0.00146484375
-0.0003662109375
-0.0010986328125
0.01171875
0.0047607421875
0.01171875
0.000732421875
0.0076904296875
-0.016845703125
-0.003662109375
0.018310546875
0.0062255859375
0.02197265625
-0.003662109375
-0.01318359375
-0.013916015625
-0.0010986328125
0.000732421875
-0.0032958984375
0.0
-0.00732421875
-0.0003662109375
-0.00732421875
-0.0047607421875
-0.003662109375
-0.00732421875
0.0069580078125
-0.0032958984375
0.009521484375
0.0040283203125
0.003662109375
0.003662109375
-0.0003662109375
0.0010986328125
-0.0029296875
0.00146484375
-0.0032958984375
-0.0010986328125
-0.0032958984375
-0.0029296875
-0.003662109375
0.0
0.0010986328125
0.0069580078125
0.005126953125
0.00732421875
-0.0164794921875
0.006591796875
-0.005126953125
0.0355224609375
0.019775390625
-0.00146484375
0.0025634765625
-0.0391845703125
-0.0062255859375
-0.0054931640625
-0.0040283203125
0.0018310546875
-0.0029296875
-0.00146484375
-0.0062255859375
-0.003662109375
-0.005126953125
-0.0062255859375
0.00439453125
-0.0062255859375
0.009521484375
0.0032958984375
0.005859375
0.0069580078125
0.000732421875
0.002197265625
-0.0010986328125
0.0003662109375
-0.000732421875
-0.0032958984375
-0.0003662109375
-0.005859375
-0.0029296875
-0.0003662109375
0.0029296875
0.00732421875
0.005126953125
0.009521484375
-0.016845703125
0.008056640625
-0.0029296875
0.031494140625
0.0201416015625
-0.0003662109375
0.0029296875
-0.0347900390625
-0.0047607421875
-0.005859375
-0.00146484375
-0.000732421875
-0.0032958984375
-0.000732421875
-0.005859375
-0.0025634765625
-0.005126953125
-0.0054931640625
0.0010986328125
-0.003662109375
0.0084228515625
0.00146484375
0.0047607421875
0.005859375
0.000732421875
0.000732421875
0.0
-0.0010986328125
0.0003662109375
-0.005126953125
-0.00146484375
-0.0076904296875
-0.0029296875
-0.0018310546875
0.003662109375
0.01025390625
0.003662109375
0.0150146484375
-0.0252685546875
0.01318359375
0.019775390625
0.00732421875
0.0289306640625
-0.0098876953125
-0.0194091796875
-0.0106201171875
-0.0040283203125
-0.0032958984375
-0.002197265625
0.0018310546875
-0.00439453125
0.0
-0.005859375
0.000732421875
-0.005859375
0.0003662109375
0.005126953125
-0.008056640625
0.0128173828125
-0.0062255859375
0.008056640625
0.0010986328125
0.002197265625
0.006591796875
-0.000732421875
0.0010986328125
0.0
-0.008056640625
-0.0040283203125
-0.0003662109375
-0.000732421875
0.0010986328125
0.0054931640625
0.0010986328125
0.000732421875
0.0128173828125
-0.013916015625
-0.0245361328125
0.0230712890625
-0.01025390625
0.0150146484375
0.0230712890625
-0.0208740234375
0.003662109375
-0.00146484375
0.00732421875
-0.0029296875
0.00439453125
-0.0054931640625
0.0029296875
-0.008056640625
-0.0025634765625
-0.002197265625
-0.0113525390625
0.0091552734375
-0.005859375
0.01171875
-0.0054931640625
0.0047607421875
0.0003662109375
-0.000732421875
0.0087890625
0.000732421875
-0.0018310546875
-0.002197265625
-0.0084228515625
-0.0025634765625
-0.0098876953125
0.0040283203125
0.002197265625
0.003662109375
0.01025390625
-0.0142822265625
0.015380859375
-0.0018310546875
-0.0054931640625
0.02197265625
-0.0128173828125
0.0047607421875
0.0032958984375
-0.005859375
-0.005859375
-0.00439453125
0.0
-0.0054931640625
0.000732421875
-0.010986328125
-0.0029296875
-0.0120849609375
-0.005126953125
0.0003662109375
-0.0084228515625
0.0076904296875
0.0003662109375
0.00439453125
0.0040283203125
0.0010986328125
0.0003662109375
-0.002197265625
-0.00146484375
-0.0054931640625
-0.00439453125
-0.008056640625
0.003662109375
-0.0047607421875
0.0098876953125
0.0025634765625
0.0087890625
-0.0010986328125
0.009521484375
-0.0194091796875
0.0128173828125
0.0172119140625
0.0150146484375
0.0201416015625
-0.0146484375
-0.0142822265625
-0.021240234375
-0.0032958984375
0.0010986328125
-0.0032958984375
0.000732421875
-0.005126953125
0.0
-0.0069580078125
-0.00146484375
-0.00146484375
-0.0047607421875
0.0076904296875
0.0010986328125
0.0084228515625
0.0069580078125
0.002197265625
0.0032958984375
-0.0003662109375
0.000732421875
-0.0003662109375
-0.0047607421875
-0.000732421875
-0.00732421875
-0.0025634765625
0.0010986328125
0.0010986328125
0.009521484375
0.005126953125
0.0098876953125
-0.01025390625
0.0047607421875
-0.013916015625
0.0384521484375
0.0186767578125
0.005126953125
0.0150146484375
-0.0443115234375
-0.006591796875
-0.0120849609375
-0.0029296875
-0.0003662109375
-0.0032958984375
-0.0003662109375
-0.0062255859375
-0.0010986328125
-0.0054931640625
-0.0029296875
0.0029296875
-0.003662109375
0.0091552734375
0.0025634765625
0.005859375
0.005126953125
0.0003662109375
0.0010986328125
-0.000732421875
-0.0003662109375
-0.002197265625
-0.00439453125
-0.0003662109375
-0.0076904296875
-0.003662109375
0.002197265625
0.0
0.0106201171875
0.006591796875
0.0084228515625
-0.006591796875
0.005859375
-0.015380859375
0.03076171875
0.0142822265625
0.00732421875
0.0084228515625
-0.0201416015625
-0.0128173828125
0.0010986328125
