0.746063232421875
-0.749725341796875
0.745697021484375
-0.749725341796875
-0.0003662109375
0.0
0.0
0.0
0.0003662109375
0.32086181640625
0.0003662109375
1.0
-1.0
1.0
-1.0
-0.0010986328125
0.0
-1.0
0.0
-1.0
0.0
-0.306915283203125
0.0
0.0
0.0
0.0
0.0
0.0
0.0
0.0
0.0
0.0
0.0
0.0
0.0
0.0
0.0
0.0
0.0
0.0
0.0
0.0
0.0
0.0
0.0
0.0
0.0
0.0
0.0
0.0
0.0
0.0
0.0
0.0
0.0
0.0
0.0
0.0
0.0
0.106231689453125
0.0
0.242095947265625
0.0
0.262237548828125
0.0
0.278350830078125
0.0
0.279083251953125
0.0
0.133697509765625
0.0
0.0252685546875
0.0
0.0076904296875
0.0205078125
0.0128173828125
0.096710205078125
-0.012451171875
0.143951416015625
-0.0457763671875
0.164794921875
0.002197265625
0.179840087890625
0.054931640625
0.075103759765625
0.0926513671875
0.02490234375
0.10986328125
0.0823974609375
0.0439453125
0.0941162109375
-0.0234375
0.0531005859375
0.069580078125
0.0640869140625
0.182769775390625
0.111328125
0.151275634765625
0.0703125
0.046142578125
0.035919189453125
-0.0018310546875
0.038848876953125
0.0692138671875
0.100341796875
0.0098876953125
0.1259765625
-0.0194091796875
0.08203125
0.066650390625
0.087158203125
0.0479736328125
0.104766845703125
-0.044677734375
0.101470947265625
-0.1270751953125
0.1029052734375
-0.1080322265625
0.1043701171875
-0.08642578125
0.1080322265625
-0.056060791015625
0.085693359375
-0.007354736328125
0.0399169921875
-0.01025390625
0.027099609375
-0.025634765625
0.034454345703125
0.027099609375
0.058258056640625
0.029296875
0.0567626953125
-0.029296875
0.0596923828125
-0.05712890625
0.06298828125
-0.0380859375
0.0596923828125
0.0062255859375
0.0721435546875
0.009521484375
0.0498046875
-0.03955078125
0.024169921875
-0.0523681640625
0.041748046875
-0.018310546875
0.015380859375
-0.028564453125
-0.0531005859375
0.0538330078125
-0.05859375
0.210968017578125
-0.03662109375
0.285675048828125
-0.056396484375
0.262969970703125
-0.294464111328125
0.182037353515625
-0.878997802734375
0.247222900390625
-1.0
0.194854736328125
-0.42926025390625
0.024169921875
0.0
0.0003662109375
0.0
0.0003662109375
0.0
0.0
0.0
0.0
0.0
0.0
0.0
-0.0003662109375
0.0
0.0
0.0
0.0
0.0
0.0
0.0
0.0
0.0
-0.0003662109375
0.0
0.0003662109375
0.0
0.0003662109375
0.0
-0.0003662109375
0.0
0.0
0.0
0.0
0.0
-0.0003662109375
0.0
0.0003662109375
0.0
0.0
0.0
-0.0003662109375
0.0
0.0
0.0
0.0
0.0
0.0
0.0
0.0
0.0
0.0
0.0
0.0
0.0
0.0
0.0
-0.008056640625
0.0
-0.052764892578125
0.0
-0.112091064453125
0.156036376953125
-0.0626220703125
0.289703369140625
-0.013916015625
0.297393798828125
-0.0736083984375
0.35089111328125
-0.1373291015625
0.349761962890625
-0.175811767578125
0.303619384765625
-0.105865478515625
0.259307861328125
-0.0479736328125
0.18896484375
-0.12451171875
0.139556884765625
-0.10107421875
0.093048095703125
-0.0677490234375
0.017578125
0.04248046875
-0.046142578125
0.285675048828125
-0.074371337890625
0.418975830078125
-0.071441650390625
0.284576416015625
0.0216064453125
0.053131103515625
0.166656494140625
0.0
0.054229736328125
0.0
-0.0531005859375
0.0
-0.0391845703125
0.0
0.273956298828125
0.0003662109375
0.313873291015625
0.0
-0.000732421875
-0.0003662109375
-0.0003662109375
0.0
0.0
0.0
0.0
0.0
0.0
0.0003662109375
0.0
0.0003662109375
0.0
-0.0003662109375
0.0003662109375
0.0
0.0
0.0
-0.0003662109375
0.0
0.0003662109375
0.0
0.0
-0.57464599609375
0.0
-0.39263916015625
0.0
0.57427978515625
0.0
0.39300537109375
0.0
0.0
-0.0003662109375
-0.0003662109375
0.0003662109375
0.0003662109375
0.0003662109375
0.0
-0.0003662109375
-0.0003662109375
-0.0003662109375
0.0
-0.037017822265625
0.0003662109375
-0.50543212890625
0.0
-1.0
-0.000732421875
-0.989990234375
-0.0003662109375
-0.240631103515625
0.0
0.0
-0.0003662109375
0.0
-0.0003662109375
0.0
0.0003662109375
0.0
0.0
0.872406005859375
-0.170318603515625
1.0
-0.42962646484375
0.597381591796875
-0.0941162109375
-0.32708740234375
0.43035888671875
-0.071807861328125
0.264801025390625
0.32672119140625
-0.35382080078125
0.06005859375
-0.789276123046875
-0.37030029296875
-0.82220458984375
-0.57647705078125
-0.709808349609375
0.181304931640625
-0.32305908203125
0.583831787109375
0.0
-0.047607421875
0.0
-0.643524169921875
0.0
-0.811248779296875
0.0
-0.73394775390625
0.0
-0.44757080078125
0.0
-0.087921142578125
0.0
0.0
0.0
0.0
0.0
0.0
0.0
0.048370361328125
0.0
0.133331298828125
0.0
0.1318359375
0.0
-0.0120849609375
0.0
-0.180206298828125
0.0
-0.121246337890625
0.0
0.0
0.0
0.0
0.0
0.0
0.0
0.0
0.0
0.0
0.0
0.0
0.0
0.0
0.0
0.0
0.0
0.0
0.0
0.0
0.0
0.0
0.0
0.0
0.0
0.0
0.0
0.0
0.0
0.0
0.0
0.017578125
0.0
0.060821533203125
0.0
0.073272705078125
0.0
0.0113525390625
0.0
-0.013916015625
0.0
0.0399169921875
0.0
0.0498046875
0.0
0.0347900390625
0.0
0.06298828125
0.0
0.064453125
0.0
0.027099609375
0.045074462890625
0.0230712890625
0.077301025390625
0.0150146484375
0.0340576171875
0.0325927734375
0.0252685546875
0.0531005859375
0.0340576171875
0.058990478515625
-0.002197265625
0.047637939453125
0.0
0.01171875
0.0556640625
0.04833984375
0.06591796875
0.0523681640625
0.049072265625
-0.00146484375
0.0435791015625
0.005126953125
0.085693359375
0.03662109375
0.000732421875
0.0384521484375
-0.08203125
0.0457763671875
-0.02783203125
0.04248046875
-0.0003662109375
0.0303955078125
0.056396484375
0.0
0.131866455078125
-0.022705078125
0.192291259765625
0.0399169921875
0.153076171875
0.063720703125
0.1563720703125
0.029296875
0.204376220703125
0.0421142578125
0.098907470703125
0.068511962890625
0.0010986328125
0.078399658203125
0.05126953125
0.097412109375
0.0791015625
0.1014404296875
0.0263671875
0.0626220703125
0.02197265625
0.02783203125
0.05419921875
0.013916015625
0.0911865234375
0.044677734375
0.0128173828125
0.0230712890625
-0.0750732421875
-0.0245361328125
-0.038818359375
0.03369140625
-0.0582275390625
0.0703125
-0.0670166015625
0.010986328125
-0.0076904296875
-0.0333251953125
-0.0098876953125
-0.0142822265625
-0.0703125
0.0263671875
-0.0845947265625
0.018310546875
-0.06591796875
0.027130126953125
-0.068145751953125
0.053863525390625
-0.056427001953125
0.015380859375
-0.0113525390625
-0.016845703125
-0.0150146484375
-0.019805908203125
-0.06591796875
-0.032257080078125
-0.0501708984375
-0.008056640625
0.0465087890625
0.027099609375
-0.044677734375
0.012481689453125
-0.13037109375
0.013946533203125
-0.0560302734375
-0.010650634765625
-0.06591796875
0.0087890625
-0.102569580078125
0.016876220703125
-0.058624267578125
-0.040679931640625
0.0186767578125
-0.033721923828125
0.0194091796875
-0.0208740234375
-0.0238037109375
-0.0289306640625
-0.0509033203125
-0.0003662109375
-0.0413818359375
0.040283203125
-0.015380859375
0.050201416015625
0.005126953125
0.037750244140625
0.0040283203125
0.00439453125
-0.01171875
-0.029693603515625
-0.040283203125
-0.047637939453125
-0.0010986328125
-0.02490234375
0.0216064453125
0.0157470703125
-0.0296630859375
0.0194091796875
-0.0380859375
-0.0223388671875
-0.017578125
0.003662109375
-0.0406494140625
0.0267333984375
-0.069580078125
-0.0296630859375
-0.012451171875
-0.0369873046875
0.0406494140625
-0.005126953125
0.02490234375
0.02490234375
0.0054931640625
0.0208740234375
0.002197265625
0.01318359375
-0.0098876953125
0.0157470703125
0.000732421875
0.0003662109375
0.010986328125
0.000732421875
-0.0238037109375
0.014678955078125
-0.0589599609375
-0.00732421875
-0.059326171875
-0.034088134765625
0.052001953125
-0.0205078125
0.0311279296875
-0.0516357421875
-0.0457763671875
-0.123779296875
0.0567626953125
-0.139892578125
0.1893310546875
-0.11572265625
0.296295166015625
-0.096710205078125
0.36883544921875
0.015380859375
0.320831298828125
-0.1552734375
0.1981201171875
-0.45489501953125
0.210968017578125
-0.41790771484375
0.55047607421875
-0.179473876953125
0.50030517578125
0.0
0.079132080078125
0.301055908203125
-0.060821533203125
0.738739013671875
-0.635833740234375
0.58709716796875
-0.898406982421875
-0.738739013671875
-0.71600341796875
-0.888153076171875
-0.53912353515625
0.0
-0.146514892578125
0.44244384765625
0.0
0.35198974609375
0.0
-0.219757080078125
0.0
-0.35198974609375
0.0
-0.222686767578125
0.0
0.193389892578125
0.0
1.0
0.0
1.0
0.0
-1.0
0.9859619140625
-1.0
1.0
-0.1541748046875
0.51275634765625
0.0
0.0003662109375
-0.100738525390625
0.0
0.742034912109375
0.0
1.0
0.000732421875
0.743133544921875
0.000732421875
0.242828369140625
-0.117584228515625
0.01025390625
-0.821868896484375
0.0003662109375
-0.827728271484375
0.0
-0.44866943359375
0.0
-0.55413818359375
0.0
-0.1922607421875
-0.0003662109375
0.877532958984375
0.0
1.0
0.0003662109375
0.621551513671875
-0.184967041015625
0.0
-0.779754638671875
-0.0003662109375
-0.343170166015625
-0.0003662109375
0.65338134765625
0.0003662109375
0.52813720703125
0.0003662109375
0.126373291015625
0.0003662109375
0.0003662109375
0.0
-0.0003662109375
-0.0003662109375
0.0
0.0
0.0
-0.068511962890625
-0.0003662109375
-0.243560791015625
0.0
-0.309478759765625
0.0003662109375
-0.256744384765625
0.0
-0.2281494140625
0.0
-0.320465087890625
0.0003662109375
-0.44940185546875
0.0
-0.58782958984375
-0.0003662109375
-0.44354248046875
0.0
-0.090850830078125
0.0
0.0
-0.0003662109375
0.0
0.0003662109375
0.0
-0.167388916015625
0.0
-1.0
0.740570068359375
-1.0
0.90283203125
-0.2109375
0.185699462890625
0.029296875
0.1175537109375
-0.087921142578125
-0.101837158203125
-0.029296875
-0.54718017578125
0.0
-0.74017333984375
0.0029296875
-0.47320556640625
0.136627197265625
-0.084259033203125
0.122344970703125
0.0
-0.123077392578125
0.0
-0.057861328125
0.0
0.175811767578125
0.0
0.317535400390625
0.0
0.250152587890625
0.0
-0.077301025390625
0.0
-0.210968017578125
0.0
-0.1754150390625
0.0
-0.15380859375
0.0
-0.132232666015625
0.0
-0.074737548828125
0.0
0.0
0.0
0.0
0.0
0.0
0.0
0.0
0.0
0.0
0.0
0.0
0.0
0.0
0.0
0.0
0.054962158203125
0.0
0.182037353515625
0.0
0.2296142578125
0.0
0.199615478515625
0.0
0.178741455078125
0.0
0.228179931640625
0.0
0.295562744140625
0.0
0.283843994140625
0.0
0.276153564453125
0.0
0.2373046875
0.0
0.180206298828125
0.0
-0.01171875
0.0
-0.179473876953125
0.0
-0.1922607421875
0.0
-0.251617431640625
0.0
-0.288238525390625
0.0
-0.246856689453125
0.0
-0.148712158203125
0.0
-0.0648193359375
0.0
-0.041015625
0.005859375
-0.057861328125
0.0
-0.0029296875
-0.005859375
0.148681640625
0.0
0.213531494140625
0.0
0.169952392578125
0.0
0.1083984375
0.0
0.028564453125
0.0
0.044677734375
0.0
0.027099609375
0.0
0.028564453125
0.0
0.0728759765625
0.0
0.054962158203125
0.0
0.078033447265625
0.0
0.134033203125
0.0
0.14501953125
0.0
0.13623046875
0.009521484375
0.170318603515625
0.0325927734375
0.161163330078125
0.104766845703125
0.0618896484375
0.119781494140625
-0.013916015625
0.0391845703125
0.052734375
0.0062255859375
0.1395263671875
0.0234375
0.128936767578125
0.032958984375
0.045440673828125
0.031494140625
-0.0003662109375
0.0552978515625
-0.0003662109375
0.149078369140625
0.0003662109375
0.183868408203125
-0.087554931640625
0.10546875
-0.156036376953125
0.0677490234375
-0.1197509765625
0.008056640625
-0.0596923828125
-0.0750732421875
0.0098876953125
-0.0487060546875
0.0205078125
0.000732421875
-0.00146484375
0.0150146484375
-0.0260009765625
0.017578125
-0.04833984375
-0.005126953125
-0.0391845703125
-0.043212890625
0.02783203125
-0.0552978515625
0.091552734375
-0.0260009765625
0.0692138671875
-0.01318359375
0.03515625
-0.0150146484375
0.0465087890625
0.003662109375
0.0926513671875
0.0318603515625
-0.002197265625
0.046875
-0.0845947265625
0.0428466796875
-0.04248046875
0.0113525390625
-0.0322265625
0.0029296875
-0.0234375
0.016845703125
-0.01171875
0.0201416015625
0.0113525390625
0.038818359375
0.000732421875
0.041015625
-0.0274658203125
0.024169921875
-0.0465087890625
0.0201416015625
-0.0677490234375
0.0113525390625
-0.0479736328125
0.0062255859375
-0.0076904296875
0.003662109375
0.003662109375
-0.005126953125
0.0399169921875
0.00439453125
0.072509765625
-0.0003662109375
0.069580078125
-0.017578125
0.0970458984375
0.0234375
0.03662109375
0.035888671875
-0.02490234375
0.01318359375
0.0128173828125
0.0
0.0670166015625
-0.094482421875
0.104766845703125
-0.280914306640625
0.048004150390625
-0.285675048828125
0.0
0.074005126953125
-0.054962158203125
0.392974853515625
-0.270660400390625
0.199951171875
-0.334381103515625
0.837249755859375
-1.0
0.959228515625
-1.0
0.091583251953125
-0.172882080078125
0.0
0.0
0.0
0.153839111328125
0.0
0.0
-1.0
-0.153839111328125
-0.47210693359375
0.0
1.0
0.0
0.47210693359375
0.0
0.0
0.0
0.0003662109375
0.0
0.0
0.0
-0.0003662109375
0.0
0.0
0.0
0.0003662109375
1.0
-0.35528564453125
1.0
-1.0
-0.0003662109375
-1.0
-0.0003662109375
-0.41351318359375
0.0
0.0
-0.0003662109375
1.0
-0.124908447265625
0.0
0.0003662109375
-1.0
0.124908447265625
0.0
-0.0003662109375
0.0
0.0
0.0
0.0
0.0
-0.0003662109375
0.0
0.0
0.0
0.0
0.0
0.0
0.0
0.0
0.0
0.0
0.0
0.0
0.184600830078125
0.0003662109375
1.0
-1.0
1.0
-1.0
0.000732421875
0.0
0.0
0.0
-0.0003662109375
0.0
0.0
0.0
0.0
0.0
0.0
0.0
0.0003662109375
0.0
0.0
0.0
-0.0003662109375
0.0
0.0
0.0
-0.46697998046875
0.39337158203125
-0.941650390625
0.9090576171875
-0.752288818359375
0.915618896484375
-0.370269775390625
0.533233642578125
0.104034423828125
-0.12158203125
0.64459228515625
-0.840179443359375
1.0
-1.0
0.667327880859375
-0.60211181640625
0.0164794921875
0.0
0.0
0.0
0.0
0.0
0.0
0.0
0.0
0.0
0.0003662109375
0.0
0.0
0.0
-0.0003662109375
0.0
0.0003662109375
0.0
0.0
0.0
0.0
0.0
0.0003662109375
0.0
0.0
0.0
-0.0003662109375
0.0
-0.0003662109375
0.0
0.0
0.0
0.0003662109375
0.0
-0.125640869140625
0.0
-0.316070556640625
0.0
-0.338409423828125
0.0
-0.266632080078125
0.0
-0.1318359375
0.0
0.0069580078125
0.0
0.0498046875
0.0
0.2274169921875
0.0
0.412017822265625
0.0
0.34796142578125
0.0
0.134063720703125
0.0
0.0
0.0
0.0003662109375
0.0
0.0003662109375
0.0
0.0
0.0
-0.0003662109375
0.0
-0.0003662109375
0.0
0.0
0.0
0.0
0.0
0.0
0.0
0.0
0.0
0.0
0.0
0.0003662109375
0.0
0.0
0.0
-0.244293212890625
0.0
-0.50872802734375
0.0
-0.43548583984375
0.0
-0.38238525390625
0.0
-0.345367431640625
0.0
-0.1263427734375
0.0
0.0128173828125
0.0
-0.0201416015625
0.0
-0.1102294921875
0.0
-0.218292236328125
0.0
-0.154205322265625
0.0
-0.0655517578125
0.0
-0.090087890625
0.0
-0.0655517578125
0.0
-0.0157470703125
0.0
-0.031494140625
0.0
-0.0076904296875
0.0
0.025634765625
0.0
-0.0289306640625
0.0
-0.0516357421875
0.0
-0.076568603515625
0.0
-0.050933837890625
0.0
0.0
0.0
0.0
0.052764892578125
0.0
0.102569580078125
0.0
0.0498046875
0.0
0.0267333984375
0.0
0.0772705078125
0.0
0.0867919921875
0.0
0.0743408203125
0.0
0.0791015625
0.0
0.0604248046875
0.0
0.112091064453125
0.0
0.060455322265625
0.0
-0.0069580078125
0.0
0.0311279296875
0.0
-0.0062255859375
0.0
-0.0347900390625
0.0
0.02197265625
0.0
0.076171875
0.0
0.0618896484375
0.0
0.06298828125
0.0
0.0670166015625
0.0
0.0238037109375
0.0
-0.013916015625
0.0
0.0347900390625
0.0
0.054931640625
0.0
0.0234375
0.0
0.012451171875
0.0
0.082427978515625
0.0
0.022735595703125
0.0
-0.049072265625
0.0
0.0032958984375
0.0
0.00439453125
0.02490234375
-0.038116455078125
0.038116455078125
-0.061187744140625
0.038116455078125
-0.0355224609375
0.021240234375
-0.022705078125
0.02490234375
-0.0087890625
0.0435791015625
0.0047607421875
0.0076904296875
0.00146484375
-0.0018310546875
-0.0216064453125
0.0128173828125
0.01025390625
0.0179443359375
0.0465087890625
0.00146484375
0.01171875
-0.003662109375
-0.02783203125
0.0084228515625
0.044708251953125
0.0047607421875
0.059722900390625
0.0267333984375
-0.040313720703125
0.0230712890625
-0.055694580078125
-0.000732421875
-0.01904296875
0.0296630859375
-0.021240234375
0.02490234375
-0.03662109375
-0.013916015625
-0.000732421875
-0.0076904296875
0.038818359375
0.028564453125
0.0205078125
0.0465087890625
-0.0230712890625
0.003662109375
-0.0146484375
-0.006591796875
0.0150146484375
0.017578125
0.0205078125
0.0
0.01904296875
-0.03662109375
0.030029296875
-0.060791015625
0.053131103515625
-0.116455078125
0.110626220703125
-0.140655517578125
0.298492431640625
-0.055694580078125
0.411651611328125
0.0
0.448272705078125
0.0
0.38934326171875
0.0
0.134796142578125
0.0
0.0003662109375
0.0
-0.0003662109375
0.0
-0.0003662109375
0.0
0.0
0.0
0.0
0.0
0.0003662109375
0.0
0.0
0.0
-0.0003662109375
0.0
0.0
0.0
0.0003662109375
0.0
0.0
0.0
0.0
0.0
0.0
0.0
-0.0003662109375
0.0
0.0
0.0
0.0003662109375
0.0
0.0003662109375
0.0
0.0
0.0
0.0
0.0
-0.0003662109375
0.0
0.0
0.0
0.0
0.0
0.0
0.0
0.0003662109375
0.0
-0.0003662109375
0.0
-0.0003662109375
0.0
0.0
0.0
0.0003662109375
0.0
0.0
0.0
-1.0
0.0
-1.0
0.718231201171875
-0.48345947265625
1.0
0.0
0.777191162109375
0.0
0.0
0.0
0.0
0.0
0.0
0.0
0.0
0.0
0.0
0.0
0.0
0.0
0.0
0.768035888671875
0.0
1.0
0.0
0.731048583984375
0.0003662109375
0.0003662109375
0.0
0.0
-0.0003662109375
-0.078033447265625
0.0
-1.0
0.0
-1.0
-0.9603271484375
0.726654052734375
-0.078765869140625
0.0
0.9603271484375
-0.726654052734375
0.078765869140625
0.0
0.0
0.0
0.0
0.0
-0.069244384765625
0.0
-0.850433349609375
0.0
-1.0
0.0
-0.644989013671875
0.180206298828125
-0.0018310546875
1.0
0.0
1.0
0.0
0.0003662109375
0.0
-0.0003662109375
0.0
-0.0003662109375
0.0
0.0003662109375
0.0
-0.236236572265625
0.017578125
-0.883392333984375
1.0
-0.702117919921875
1.0
-0.197784423828125
0.070709228515625
-0.356719970703125
0.0003662109375
-0.41754150390625
0.0
-0.203277587890625
-0.0003662109375
0.0
0.0003662109375
0.0
0.0
0.0
-0.0003662109375
0.0
0.0
0.0
0.0
0.0
0.0003662109375
0.0
-0.0113525390625
0.0
-1.0
1.0
-1.0
1.0
-0.308380126953125
0.283843994140625
0.829193115234375
-0.097808837890625
1.0
-0.51715087890625
0.666229248046875
-0.887420654296875
0.185699462890625
-0.915985107421875
0.0003662109375
-0.51348876953125
0.0
-0.065216064453125
0.0
0.0
0.0003662109375
0.0
0.0
0.0
-0.0003662109375
0.0
-0.0003662109375
0.0
0.0003662109375
0.0
0.0
0.0
-0.0003662109375
0.0
0.0
0.0
0.0003662109375
0.089019775390625
0.0
0.0
0.0
0.392974853515625
-0.067779541015625
1.0
-0.40142822265625
1.0
-0.61016845703125
0.176910400390625
-0.249786376953125
-0.0091552734375
0.665863037109375
-0.655242919921875
0.56439208984375
-0.632904052734375
-0.41204833984375
0.43402099609375
-0.447906494140625
0.52703857421875
-0.331085205078125
0.221221923828125
-0.288970947265625
0.114654541015625
0.340606689453125
-0.133697509765625
0.59405517578125
-0.130767822265625
0.136260986328125
0.0120849609375
0.0802001953125
-0.362213134765625
0.278350830078125
-1.0
0.149078369140625
-1.0
0.0003662109375
-0.167388916015625
0.0003662109375
0.0
0.0
0.0
-0.0003662109375
0.0
-0.0003662109375
0.0
0.0003662109375
0.0
0.0003662109375
0.0
0.0
0.0
-0.022705078125
0.0
-0.41461181640625
0.0
-0.625579833984375
0.0
-0.50469970703125
0.0
-0.439483642578125
0.0
-0.280181884765625
0.0
-0.275421142578125
0.0
-0.296295166015625
0.0
-0.132598876953125
0.0
0.0
0.0
0.0
0.0
0.138092041015625
0.0
0.146514892578125
0.0
0.017578125
0.0
-0.02197265625
0.0
-0.0831298828125
0.0
-0.101104736328125
0.0
-0.072540283203125
0.0
-0.0234375
0.124908447265625
0.0
0.297027587890625
0.0
0.386016845703125
0.0
0.45013427734375
0.0
0.54608154296875
0.0
0.53070068359375
0.0
0.264068603515625
0.0
-0.41937255859375
0.705413818359375
-0.935760498046875
0.848968505859375
-0.446075439453125
0.790008544921875
-0.38531494140625
0.646453857421875
-0.41241455078125
-0.299224853515625
0.027099609375
-0.97900390625
1.0
-0.8984375
1.0
-0.340606689453125
0.38604736328125
-0.15966796875
-0.0003662109375
-0.175811767578125
-0.0003662109375
-0.138092041015625
0.0
0.012451171875
0.0003662109375
0.0
0.0
-0.012451171875
-0.0003662109375
0.0
0.0
0.0
-0.012451171875
0.0
-0.41241455078125
0.0
-0.870208740234375
0.0
-1.0
0.0
-0.615692138671875
0.0
0.0
0.123443603515625
0.0
0.193756103515625
0.0
0.1109619140625
0.0
0.134429931640625
0.0
0.291900634765625
0.0
0.473541259765625
0.0
0.52593994140625
0.0
0.373565673828125
0.0
0.173614501953125
0.0
0.014678955078125
0.0
-0.144317626953125
0.0
-0.102569580078125
0.0
0.0164794921875
0.0
-0.1051025390625
0.0
-0.250152587890625
0.0
-0.264434814453125
0.0
-0.307281494140625
0.0
-0.338043212890625
0.0
-0.239166259765625
0.0
-0.190093994140625
0.0
-0.1929931640625
0.0
-0.117919921875
0.0
-0.059326171875
0.0
-0.063751220703125
0.0069580078125
-0.049102783203125
0.156402587890625
-0.008056640625
0.294097900390625
0.0
0.291168212890625
0.0
0.252716064453125
0.0
0.195587158203125
0.0
0.194488525390625
0.0
0.272857666015625
0.0
0.430328369140625
0.0
0.360748291015625
0.0
0.32012939453125
0.0
0.221588134765625
0.0
-0.0003662109375
0.0
0.0003662109375
0.0
0.0
0.0
-0.0003662109375
0.0
0.0
0.0
0.0003662109375
0.0
0.0
0.0
-0.0003662109375
0.0
0.0
0.0
0.0003662109375
0.0
0.0
0.0
0.0
0.0
0.0
0.0
0.0
0.0
0.0003662109375
0.0
-0.0003662109375
0.0
-0.0003662109375
0.0205078125
0.0003662109375
0.052764892578125
0.0
0.056060791015625
0.0
0.11279296875
0.0003662109375
0.2281494140625
0.0
0.219757080078125
0.0
0.117218017578125
0.0
-0.016845703125
-0.029296875
-0.147247314453125
0.0
-0.135894775390625
0.029296875
-0.0498046875
0.0
0.0384521484375
0.0
0.065185546875
0.0
0.0465087890625
0.0
0.034088134765625
0.0
0.013946533203125
0.0
-0.025299072265625
0.0
-0.064117431640625
0.0
-0.03955078125
0.0
-0.028564453125
0.0
-0.0556640625
0.0
-0.05126953125
-0.0003662109375
-0.0146484375
0.0
-0.01611328125
0.0
-0.022705078125
0.0
0.002197265625
0.0003662109375
0.0377197265625
0.0
0.0523681640625
0.0
0.028564453125
0.0
0.017578125
0.0
0.0032958984375
0.0
-0.019775390625
0.0
0.01904296875
0.0
0.0421142578125
0.0
0.017578125
0.0
0.015380859375
0.0
-0.0113525390625
0.0
-0.0380859375
0.0
-0.0655517578125
0.0
-0.06591796875
-0.0003662109375
-0.025634765625
0.0
-0.0120849609375
0.0003662109375
0.03662109375
0.0
0.09375
0.0
0.129669189453125
0.0
0.101837158203125
0.0
0.114990234375
0.0
0.147216796875
0.0
0.165924072265625
0.0
0.217193603515625
0.0
0.0849609375
0.0003662109375
-0.025634765625
0.0
0.132568359375
-0.0003662109375
0.332550048828125
-0.219024658203125
0.54534912109375
-0.684906005859375
0.46331787109375
-1.0
0.115386962890625
-0.813812255859375
0.0
-0.158233642578125
0.0
0.0
0.0003662109375
0.0
0.0
0.0
-0.0003662109375
0.0
0.0
0.0
0.0003662109375
0.0
0.0
0.0
-0.0003662109375
0.0
0.0003662109375
0.0
0.0003662109375
0.0
0.0
0.0
0.0
0.0
0.0
0.0
0.0
0.0
0.0
1.0
-0.0003662109375
1.0
-0.0003662109375
0.00732421875
-0.721527099609375
-0.0003662109375
-1.0
-0.0010986328125
-0.773895263671875
-0.0003662109375
0.636566162109375
0.000732421875
1.0
0.000732421875
0.858856201171875
-1.0
0.0
-1.0
0.0
-0.33074951171875
0.0
0.0
0.0
0.49554443359375
0.0003662109375
1.0
0.0
1.0
0.0
0.099639892578125
-0.43218994140625
0.0
-1.0
-0.000732421875
-1.0
-0.000732421875
-0.155303955078125
0.0
0.0
0.0003662109375
0.0
0.0
0.0
0.0
0.0
0.0
0.0
-0.0003662109375
0.0
-0.145782470703125
0.0
-0.312774658203125
0.0
-0.334381103515625
0.0
-0.142486572265625
0.0
-0.0435791015625
0.0
-0.151641845703125
0.0
-0.106597900390625
0.0
0.008819580078125
0.0
0.074371337890625
0.0
0.135498046875
0.0
0.2061767578125
0.0
0.339874267578125
0.0
0.34979248046875
0.0
0.122711181640625
0.0
0.0
0.0
0.0
0.0
-0.0003662109375
0.0
0.0
0.0
0.0
0.0
0.0
0.0
0.0003662109375
0.0
0.0
0.0
-0.0003662109375
0.0
0.0
0.0
0.0
0.0
0.0
0.0
0.0003662109375
0.0
0.0003662109375
0.0
0.0
0.0
-0.0003662109375
0.0
-0.0003662109375
0.0
0.0
0.0
0.0003662109375
0.0
0.0
0.0
-0.0003662109375
0.0
0.0003662109375
0.0
0.0
0.0
-0.0003662109375
0.0
0.0003662109375
0.0
0.0
0.0
0.0
0.0
0.0003662109375
0.0
-0.0003662109375
0.0
0.0
0.0
0.0
0.0
-0.0003662109375
0.0
0.0003662109375
0.0
0.0
0.0
0.0
0.0
0.0
0.0
-0.0003662109375
0.0
0.0003662109375
0.0
0.0
0.0
0.0
0.0
0.0
0.0
-0.0003662109375
0.0
0.0
0.0
0.0003662109375
0.0
0.0
0.0
-0.0003662109375
0.0
0.0
0.0
0.0
0.0
0.0003662109375
0.0
0.0
0.0
-0.0003662109375
0.0
0.0
0.0
0.0
0.0
0.0
0.0
0.0003662109375
0.0
0.0
0.0
0.0
0.0
0.0
0.0
-0.0003662109375
0.0
0.0
0.0
0.0003662109375
0.0
0.0
0.0
0.0
0.0
0.0
0.0
-0.0003662109375
0.0
0.0003662109375
0.0
0.0
0.0
-0.0003662109375
0.0
0.0
0.0
0.0
0.0
0.0
0.0
0.0
0.94091796875
0.000732421875
1.0
-1.0
0.55450439453125
-1.0
0.0
1.0
0.0
0.0
0.0003662109375
-1.0
0.0
0.0
-0.0003662109375
0.0
0.0003662109375
0.0
0.0
0.0
0.0
0.0
0.0
0.0
-0.0003662109375
0.0
0.0
0.0
0.0
0.0
0.0
0.0
0.0003662109375
0.0
0.0
0.0
0.0
0.0
0.0
1.0
-0.0003662109375
1.0
0.0
0.319000244140625
0.0
0.0
0.0
0.0
0.0003662109375
-0.0003662109375
0.0
0.0
0.0
0.0003662109375
0.0
0.0003662109375
-0.0003662109375
-1.0
0.0003662109375
-1.0
0.0003662109375
0.0
0.0
0.0
0.0
0.0
-0.0003662109375
0.0
0.0
0.0
0.0003662109375
0.0
0.0
0.0
0.0
0.0
0.0
1.0
0.0
1.0
-0.0003662109375
0.157867431640625
0.0
0.0
0.0
0.0003662109375
0.0
0.0
0.0003662109375
0.0
-0.0003662109375
-0.58489990234375
-0.0003662109375
-1.0
0.0003662109375
-0.9141845703125
0.0003662109375
-0.35162353515625
0.0
0.0
-0.02783203125
0.0
-0.50360107421875
0.202178955078125
-0.927001953125
0.818206787109375
-0.874969482421875
1.0
-0.54095458984375
0.680145263671875
-0.117218017578125
0.229278564453125
0.0
0.0
0.0
0.0003662109375
0.0
0.0
0.0
0.0
0.0
0.0
0.0
0.0
0.0
0.0003662109375
0.0
-0.0003662109375
0.0
0.0
0.0
0.0
0.0
-0.0003662109375
0.0
0.0
0.0
0.0
0.0
0.0003662109375
0.0
0.0
0.0
-0.0003662109375
0.0
0.0
0.0
0.0
0.0
0.0
0.0
0.0
0.0
0.0
0.0
0.0003662109375
0.0
0.0003662109375
0.0
-0.0003662109375
0.0
0.0
0.0
0.0
0.0
0.0
0.0
0.0003662109375
0.0
0.0
0.0
-0.0003662109375
0.0
-0.0003662109375
0.0
0.0
0.0
0.0
0.0
-0.0230712890625
0.012451171875
0.0003662109375
0.094879150390625
-0.078765869140625
0.117218017578125
-0.152740478515625
0.0516357421875
-0.0589599609375
0.057861328125
-0.0406494140625
0.062255859375
-0.09814453125
0.054931640625
-0.0977783203125
0.0941162109375
-0.0465087890625
0.091949462890625
-0.093048095703125
0.052764892578125
-0.144683837890625
0.0611572265625
-0.1065673828125
0.057861328125
-0.0765380859375
0.0208740234375
-0.038818359375
0.034423828125
-0.0157470703125
0.0252685546875
-0.066650390625
0.0150146484375
-0.092681884765625
0.0531005859375
-0.039581298828125
0.079833984375
0.076934814453125
0.0706787109375
0.053131103515625
0.0626220703125
-0.0234375
0.074005126953125
0.0849609375
0.112823486328125
0.065185546875
0.148681640625
-0.0780029296875
0.088623046875
-0.0340576171875
0.0413818359375
0.1171875
0.0216064453125
0.1549072265625
-0.02783203125
0.0802001953125
-0.0516357421875
0.0633544921875
-0.015380859375
0.067779541015625
-0.0142822265625
-0.0087890625
-0.0230712890625
-0.028594970703125
0.022705078125
-0.005126953125
-0.0029296875
-0.0150146484375
-0.0791015625
0.006591796875
-0.066650390625
0.0333251953125
-0.056396484375
0.058258056640625
-0.019775390625
-0.008056640625
0.032958984375
-0.050567626953125
-0.02197265625
0.032623291015625
0.01025390625
0.023101806640625
0.041748046875
-0.028961181640625
-0.012451171875
-0.019073486328125
-0.02783203125
0.013580322265625
-0.0238037109375
0.010650634765625
0.0
-0.043609619140625
0.003662109375
-0.037750244140625
0.059326171875
0.00146484375
0.069580078125
-0.0157470703125
-0.0018310546875
0.000732421875
0.01318359375
0.038818359375
0.053466796875
0.0216064453125
0.054931640625
-0.0501708984375
0.0010986328125
-0.0098876953125
0.0703125
-0.0457763671875
0.147979736328125
-0.134765625
0.080963134765625
-0.0838623046875
0.032958984375
-0.057861328125
0.0362548828125
-0.0604248046875
0.0120849609375
-0.097076416015625
-0.0391845703125
-0.082427978515625
-0.03515625
0.0054931640625
-0.01611328125
0.0289306640625
-0.02783203125
-0.0380859375
-0.0318603515625
-0.0582275390625
-0.027496337890625
-0.01611328125
-0.043975830078125
0.0443115234375
-0.0179443359375
0.072509765625
0.0234375
0.017578125
0.0238037109375
-0.0179443359375
0.054962158203125
-0.00439453125
0.094146728515625
-0.107666015625
0.0875244140625
-0.1904296875
0.0845947265625
-0.12890625
0.1204833984375
-0.105499267578125
0.165557861328125
-0.153106689453125
0.078033447265625
-0.2080078125
-0.027099609375
-0.167388916015625
0.005859375
-0.057159423828125
0.0633544921875
-0.0234375
0.0611572265625
-0.0531005859375
0.0399169921875
-0.064453125
0.065185546875
-0.087158203125
0.1153564453125
-0.1109619140625
0.144317626953125
-0.151275634765625
0.073272705078125
-0.117584228515625
0.0
-0.0194091796875
0.0
0.0
0.0
0.0
0.0
0.0
0.0
0.0
0.0
0.0
0.0
0.0
0.0
0.0
0.0003662109375
0.0
0.0003662109375
0.0
0.0
0.0
0.0
0.0
0.0
0.0
-0.0003662109375
0.0
-0.0003662109375
0.0
0.0
0.0
0.0003662109375
0.0
0.0003662109375
0.0
-0.0003662109375
0.0
-0.0003662109375
0.0
0.0
0.0
0.0
0.0
0.0003662109375
0.0
-0.050933837890625
0.0
-0.247589111328125
0.0
-0.368438720703125
0.0
-0.50689697265625
0.0
-0.59185791015625
0.0
-0.323394775390625
0.0
-0.191192626953125
0.0
-0.167022705078125
0.0
-0.15234375
0.0
-0.231475830078125
0.148345947265625
-0.140655517578125
0.306549072265625
-0.0194091796875
0.309478759765625
0.0
0.269927978515625
0.0
0.235137939453125
0.0
0.275054931640625
0.0
0.1431884765625
0.0
0.0179443359375
0.0
0.076934814453125
0.0
0.083892822265625
0.0
0.0633544921875
0.0
0.025634765625
0.0
0.0263671875
0.0
0.032958984375
0.0
0.040283203125
0.0
0.0487060546875
0.0
0.013916015625
0.0
0.02490234375
0.0
0.09228515625
0.0
0.101837158203125
0.0
0.02490234375
0.0
-0.028961181640625
0.0
0.009552001953125
0.01318359375
-0.0113525390625
0.071807861328125
-0.099639892578125
0.089385986328125
-0.1094970703125
0.04541015625
-0.0391845703125
0.063720703125
-0.00439453125
0.041015625
-0.0450439453125
0.0135498046875
-0.01025390625
0.090087890625
0.0703125
0.1051025390625
0.05126953125
0.0413818359375
-0.0062255859375
-0.006591796875
0.0091552734375
-0.0040283203125
0.030029296875
-0.012451171875
-0.0025634765625
-0.00439453125
-0.044677734375
0.0333251953125
-0.025634765625
0.03369140625
-0.0091552734375
0.006591796875
-0.030029296875
-0.027099609375
0.0574951171875
0.031890869140625
0.0245361328125
0.076568603515625
-0.062255859375
0.021240234375
0.00146484375
0.0260009765625
0.005126953125
0.03076171875
-0.064453125
-0.0032958984375
-0.0589599609375
-0.0010986328125
0.024169921875
0.035888671875
0.032958984375
0.0567626953125
-0.035888671875
0.088623046875
-0.109130859375
0.085693359375
-0.086456298828125
0.02783203125
0.0040283203125
-0.006591796875
0.024566650390625
-0.0091552734375
-0.0069580078125
0.038818359375
-0.033355712890625
0.01171875
-0.00439453125
-0.0223388671875
0.065216064453125
0.0029296875
-0.000732421875
0.0216064453125
-0.065948486328125
-0.021240234375
-0.008453369140625
-0.090087890625
0.020904541015625
-0.0655517578125
0.0003662109375
-0.025634765625
-0.0018310546875
-0.0120849609375
0.039947509765625
0.010986328125
0.0845947265625
0.005126953125
0.0618896484375
-0.015380859375
0.0029296875
0.010986328125
-0.0128173828125
0.0263671875
-0.02197265625
0.00146484375
-0.030029296875
0.0
-0.0062255859375
0.018310546875
0.01318359375
-0.0087890625
0.005859375
-0.04833984375
-0.0076904296875
-0.0699462890625
0.068115234375
-0.006591796875
-0.021240234375
0.0556640625
-0.132568359375
0.01171875
-0.052764892578125
-0.0179443359375
-0.052032470703125
-0.0205078125
-0.0897216796875
0.0003662109375
-0.08935546875
0.041015625
-0.0311279296875
0.0479736328125
-0.0146484375
0.018310546875
-0.024169921875
0.010986328125
0.00439453125
0.006591796875
0.008056640625
-0.0296630859375
0.0384521484375
-0.050537109375
0.1146240234375
-0.02783203125
0.204742431640625
0.0443115234375
0.234771728515625
0.00439453125
0.342803955078125
-0.170318603515625
0.40655517578125
-0.017578125
0.165557861328125
0.32928466796875
0.0
0.259674072265625
0.0
-0.0106201171875
0.0
0.06005859375
0.0
0.1534423828125
0.0
-0.018310546875
0.0
-0.779754638671875
-0.162628173828125
-0.717864990234375
-0.240997314453125
0.0281982421875
-0.286773681640625
0.55084228515625
0.114990234375
0.55780029296875
0.44940185546875
0.332916259765625
0.126007080078125
0.9105224609375
0.0003662109375
0.611663818359375
0.0003662109375
-0.0010986328125
0.0
0.0
0.0
0.0
0.0
0.0
0.0003662109375
0.0
0.0
0.0
-0.0003662109375
0.0
0.0
0.0003662109375
0.0003662109375
0.0003662109375
0.0
-0.0003662109375
0.0
-0.0003662109375
0.0
0.0
-0.112091064453125
0.0003662109375
-1.0
0.0
-1.0
-0.0003662109375
0.0
0.0003662109375
0.0
0.0
0.0
-0.0003662109375
0.0
0.0
0.0
0.0
0.0
-0.01611328125
0.0
-1.0
0.0
-1.0
0.0
-0.005859375
0.0
0.0
0.0
1.0
0.0
1.0
0.0
-0.0040283203125
0.0
0.0
0.0
0.0
0.0
0.0003662109375
0.0
-0.57684326171875
0.0
-0.53472900390625
0.0
0.57684326171875
0.0
0.53436279296875
0.0
0.0003662109375
0.0
0.0
0.0
-0.0003662109375
0.0
0.0003662109375
0.0
0.0003662109375
0.0
0.0
0.0
-0.0003662109375
0.0
-0.0003662109375
0.0
0.0
0.0
0.0
0.0
0.0
0.0
0.0
0.0
0.0
0.0
0.0
0.0
-0.071807861328125
0.0
-0.179107666015625
0.0
-0.268829345703125
0.0
-0.408355712890625
0.0
-0.500640869140625
0.0
-0.54278564453125
0.0
-0.56768798828125
0.0
-0.36517333984375
0.076202392578125
-0.086456298828125
0.622650146484375
0.0
0.81488037109375
0.0
0.505035400390625
0.0
0.47723388671875
0.0
0.37066650390625
0.0
0.130035400390625
0.0
0.0
0.0
0.0003662109375
0.0
0.0
0.0
-0.013916015625
0.0
0.0
0.0
0.013916015625
0.0
0.0003662109375
0.0
-0.0003662109375
0.0
-0.0003662109375
0.0
0.0
0.0
0.0
0.0
0.0
0.0
0.0
0.0
0.0
0.0
0.0
0.0
0.0003662109375
0.0
-0.313140869140625
0.0
-0.645721435546875
0.025634765625
-0.596282958984375
0.166290283203125
-0.75006103515625
0.156768798828125
-0.58892822265625
-0.166290283203125
-0.102935791015625
-0.182403564453125
0.0
0.0
0.0
0.0
0.0
0.0
0.0
0.0
0.0
0.0
0.0
0.0
0.0
0.0
0.0
0.0
0.0
0.0
0.0
0.0
0.068878173828125
0.0
0.293365478515625
0.0
0.412384033203125
0.0
0.36773681640625
0.0
0.358184814453125
0.0
0.332183837890625
0.0
0.293365478515625
0.0
0.233306884765625
0.0
0.158233642578125
0.0
0.1043701171875
0.0
0.1417236328125
0.0
0.167388916015625
0.0
0.065582275390625
0.0
0.0
0.0
0.0
0.0
0.0
0.0
0.0
0.0
0.0
0.0
0.0003662109375
0.0
0.0
0.0
-0.0003662109375
0.0
0.0
0.0
0.0
0.0
-0.01611328125
0.0
-0.069976806640625
0.0
-0.082427978515625
0.0
-0.044677734375
0.0
-0.03369140625
0.0
-0.0380859375
0.0
-0.0164794921875
0.0
-0.046875
0.0
-0.1160888671875
0.0
-0.10693359375
0.0
-0.058624267578125
0.0
-0.032623291015625
0.0
-0.041015625
0.0
-0.0296630859375
0.0
-0.016845703125
0.0
-0.03662109375
0.0
-0.0457763671875
0.0
-0.0523681640625
0.0
-0.054931640625
0.0
-0.019775390625
0.0
0.0472412109375
0.0
0.0926513671875
0.006591796875
0.09228515625
0.038116455078125
0.086090087890625
0.057891845703125
0.164459228515625
0.0908203125
0.0516357421875
0.1171875
-0.0933837890625
0.0941162109375
-0.015380859375
0.08056640625
0.013916015625
0.0875244140625
-0.0355224609375
0.066680908203125
-0.077667236328125
0.020538330078125
-0.025665283203125
0.0201416015625
0.032623291015625
0.0355224609375
0.009185791015625
0.04248046875
-0.048736572265625
0.052001953125
-0.055694580078125
0.04541015625
-0.0084228515625
0.0369873046875
0.02783203125
0.0318603515625
0.041778564453125
0.030029296875
0.030059814453125
0.0208740234375
0.024169921875
0.000732421875
0.0498046875
0.00732421875
0.0465087890625
0.05859375
-0.00732421875
0.072509765625
-0.0263671875
0.0391845703125
0.00439453125
0.066314697265625
-0.017578125
0.048736572265625
-0.057891845703125
-0.032989501953125
-0.045806884765625
-0.034454345703125
-0.018310546875
-0.022705078125
-0.0010986328125
-0.01025390625
-0.0208740234375
0.012451171875
-0.0721435546875
0.029327392578125
-0.1043701171875
0.025665283203125
-0.075439453125
-0.011383056640625
-0.0047607421875
-0.066680908203125
0.05859375
-0.1431884765625
0.1395263671875
-0.197021484375
0.214996337890625
-0.209503173828125
0.33221435546875
-0.202178955078125
0.212432861328125
-0.2032470703125
0.0
-0.152374267578125
-0.0003662109375
-0.041046142578125
0.0003662109375
0.035552978515625
0.0003662109375
0.086822509765625
0.0
0.1424560546875
0.0
0.1827392578125
-0.0003662109375
0.216461181640625
0.0
0.146514892578125
0.0003662109375
0.0296630859375
0.0
0.0084228515625
0.0
-0.009521484375
0.0
-0.053466796875
-0.054595947265625
0.0355224609375
-0.141021728515625
0.265167236328125
-0.022705078125
1.0
-0.48052978515625
0.850067138671875
-1.0
-0.0029296875
-0.877166748046875
0.0
0.0
0.0
0.817108154296875
0.0
1.0
-1.0
0.681243896484375
-1.0
0.263336181640625
0.0
0.0
0.0
0.0
0.0
0.0
0.0
0.0
0.0
0.0
0.0
0.0
1.0
-0.0084228515625
1.0
-1.0
-0.0003662109375
-1.0
0.0
0.0
0.0
0.0
0.0
0.0
0.0
0.0
0.0003662109375
0.0
0.0003662109375
0.0
-0.0003662109375
0.0
-0.0003662109375
0.0
-0.075469970703125
0.0
-0.46844482421875
0.0
-0.75555419921875
0.252349853515625
-0.382354736328125
0.099639892578125
0.282745361328125
-0.252349853515625
0.460357666015625
-0.099639892578125
0.2120361328125
0.0
0.195953369140625
0.0
0.114288330078125
0.0
-0.249420166015625
0.0
-0.44683837890625
0.035186767578125
-0.44940185546875
0.205108642578125
-0.52337646484375
0.413482666015625
-0.513824462890625
0.345733642578125
-0.303253173828125
0.201812744140625
-0.088287353515625
0.248321533203125
0.0
0.328521728515625
0.0
0.253814697265625
0.0
0.134765625
0.0
0.219024658203125
0.0
0.239532470703125
0.0
0.073974609375
0.0
0.0120849609375
0.0
0.113525390625
0.0
0.132965087890625
0.0
0.038848876953125
0.0
0.0003662109375
0.0
0.0
0.0
0.0
0.0
0.0003662109375
0.0
-0.138458251953125
0.0
-0.253814697265625
0.0
-0.193023681640625
0.0
-0.163360595703125
0.0
-0.0498046875
0.0
0.0963134765625
0.0
0.149810791015625
0.0
0.200714111328125
0.0
0.1190185546875
0.0
-0.300323486328125
0.249786376953125
-0.62554931640625
0.831024169921875
-0.70318603515625
1.0
-0.760711669921875
0.664398193359375
-0.37506103515625
-0.0010986328125
0.0
0.0
0.0
0.0
0.0
0.0
0.0
0.0
0.0
0.0
0.0
0.0
0.0
0.0003662109375
0.0
0.0
0.050933837890625
-0.0003662109375
0.45416259765625
0.0
0.542755126953125
0.0
0.246490478515625
0.0003662109375
-0.0142822265625
0.0003662109375
-0.47796630859375
-0.0003662109375
-0.57940673828125
-0.0003662109375
-0.216827392578125
0.0
0.34283447265625
0.0003662109375
0.674285888671875
0.0003662109375
0.539459228515625
-0.0003662109375
0.213897705078125
0.0
0.228179931640625
0.0
0.2713623046875
-0.099639892578125
0.38861083984375
-1.0
0.33331298828125
-1.0
-0.0003662109375
-0.38677978515625
0.0
0.0
-0.0003662109375
0.0
0.0
0.0
0.0
0.0
-0.0003662109375
0.0
0.0
0.0
0.0
0.0
0.0
0.0
0.0003662109375
0.0
0.0003662109375
0.0
0.0
0.0
-0.0003662109375
0.0
-0.0003662109375
0.0
0.0
0.0
0.0
0.0
0.0
0.0
0.0003662109375
0.0
0.0003662109375
0.0
-0.0003662109375
0.0
0.0
0.0
0.0
0.0
-0.0003662109375
0.0
0.0
0.0
0.0
0.0
0.0
0.0
0.0
0.0
0.0
0.0
0.0
0.0
0.0
0.0
0.0
0.0
0.0
0.0
0.0003662109375
0.0
0.0003662109375
0.0
-0.0003662109375
0.0
0.0
0.0
0.0003662109375
0.0
0.0
0.0
-0.0003662109375
0.0
-0.0003662109375
0.0
0.0
0.0
0.0
0.0
0.0003662109375
0.0
0.0
0.0
-0.0003662109375
0.0
0.0
0.0
0.0
0.0
0.0
0.0
0.0
0.0
0.0
0.0
0.0003662109375
0.0
0.0
0.0
-0.0003662109375
0.0
0.0
0.0
0.0
0.0
0.0
0.0
0.0003662109375
0.0
0.0
0.0
-0.0003662109375
0.0
0.0
0.0
0.0
0.0
0.0
0.0
0.0
0.0
0.0
0.0
0.0003662109375
0.0
0.0
0.0
0.0
0.0
0.0003662109375
0.0
-0.0003662109375
0.0
0.0
0.0
0.0
0.0
0.0
0.0
0.0003662109375
0.0
-0.0003662109375
0.0
0.0
0.0
0.0
0.0
-0.0128173828125
0.0
-0.037384033203125
0.0
-0.028961181640625
0.0
-0.0362548828125
0.0
-0.046875
0.0
-0.03955078125
0.0
-0.087158203125
0.0
-0.002197265625
0.0
-0.01171875
0.0
-0.076904296875
0.0
-0.0333251953125
0.0
-0.049072265625
0.0
-0.0457763671875
0.0
-0.0355224609375
0.02490234375
-0.049072265625
0.056060791015625
-0.065948486328125
0.054595947265625
-0.009185791015625
0.0146484375
0.039215087890625
0.0201416015625
-0.03515625
0.0421142578125
-0.061187744140625
0.017578125
0.038818359375
0.0399169921875
0.0260009765625
0.0604248046875
-0.046142578125
0.019775390625
-0.0076904296875
-0.030029296875
0.100738525390625
-0.0494384765625
0.084625244140625
0.028564453125
-0.091217041015625
0.0626220703125
-0.091583251953125
0.017578125
0.017578125
0.0018310546875
0.015380859375
-0.0062255859375
-0.00146484375
-0.03515625
0.054962158203125
-0.076171875
0.096343994140625
-0.04248046875
0.0205078125
0.022705078125
-0.044677734375
0.0311279296875
-0.037353515625
0.044677734375
-0.055328369140625
0.0992431640625
-0.056427001953125
0.1124267578125
-0.0091552734375
0.079833984375
0.018310546875
0.031158447265625
0.054595947265625
-0.003662109375
0.078765869140625
-0.000732421875
0.1212158203125
0.015411376953125
0.01904296875
0.00439453125
-0.05126953125
-0.019073486328125
0.0380859375
-0.009552001953125
0.022705078125
0.031158447265625
-0.0538330078125
0.011749267578125
-0.0318603515625
-0.027496337890625
0.030029296875
-0.016143798828125
0.03662109375
-0.01611328125
0.0377197265625
-0.013916015625
-0.0029296875
-0.01904296875
-0.009521484375
-0.016845703125
0.00439453125
0.041046142578125
-0.0413818359375
0.087921142578125
-0.08056640625
0.0501708984375
-0.03076171875
-0.0084228515625
0.0325927734375
-0.0091552734375
0.0421142578125
0.009521484375
0.0003662109375
0.0509033203125
-0.0699462890625
0.065185546875
-0.0538330078125
0.016845703125
0.0
0.03662109375
-0.033355712890625
0.05859375
-0.060821533203125
0.0443115234375
-0.0186767578125
0.022705078125
0.043609619140625
-0.005859375
0.054595947265625
0.0179443359375
0.0032958984375
0.0194091796875
-0.01904296875
0.0
-0.008087158203125
-0.0018310546875
0.0318603515625
-0.0113525390625
0.066680908203125
-0.0252685546875
0.0560302734375
-0.0325927734375
0.0238037109375
-0.0208740234375
-0.0010986328125
-0.038818359375
0.1109619140625
-0.06005859375
0.0926513671875
-0.044677734375
0.010986328125
-0.03515625
0.081298828125
-0.005859375
0.0062255859375
0.07177734375
-0.1494140625
0.10693359375
-0.1754150390625
0.062255859375
-0.0787353515625
0.0142822265625
-0.0194091796875
0.0230712890625
-0.084625244140625
0.04833984375
-0.125640869140625
0.0186767578125
-0.049072265625
-0.010986328125
0.0029296875
0.002197265625
-0.0201416015625
0.00146484375
-0.0311279296875
-0.000732421875
-0.0296630859375
0.009521484375
-0.0531005859375
0.008056640625
-0.0054931640625
0.0106201171875
-0.073974609375
0.043243408203125
-0.159698486328125
0.039581298828125
-0.054229736328125
-0.016143798828125
-0.01318359375
-0.035186767578125
-0.02197265625
-0.02490234375
-0.040283203125
-0.0150146484375
-0.040283203125
-0.018310546875
0.0076904296875
-0.043212890625
0.0289306640625
-0.046142578125
0.0062255859375
0.0029296875
-0.0538330078125
0.0384521484375
-0.0728759765625
0.01611328125
-0.0216064453125
-0.0076904296875
-0.0010986328125
-0.0091552734375
-0.0216064453125
-0.0146484375
-0.002197265625
-0.03515625
-0.0054931640625
-0.052734375
0.0615234375
-0.0029296875
0.01904296875
0.035888671875
-0.087890625
0.021240234375
-0.0391845703125
0.024169921875
-0.0172119140625
0.022705078125
-0.043212890625
0.003662109375
-0.0618896484375
0.006591796875
-0.0369873046875
0.0150146484375
-0.009521484375
0.00732421875
0.0120849609375
-0.0362548828125
0.041015625
-0.0421142578125
0.01025390625
0.01904296875
-0.041015625
0.037353515625
-0.01025390625
0.021240234375
0.00146484375
0.0146484375
-0.03369140625
-0.0003662109375
-0.0201416015625
-0.0538330078125
0.082763671875
-0.08642578125
0.0736083984375
-0.0164794921875
-0.037353515625
0.012451171875
-0.019775390625
-0.019775390625
0.0380859375
-0.0267333984375
0.02490234375
0.0062255859375
-0.0234375
0.034423828125
-0.0146484375
0.01025390625
0.0406494140625
0.0098876953125
0.0560302734375
0.02783203125
0.0633544921875
0.0025634765625
0.08203125
0.0164794921875
0.046875
0.075439453125
0.0208740234375
0.073638916015625
0.06298828125
0.0230712890625
0.093048095703125
-0.013214111328125
0.080963134765625
-0.0128173828125
0.0552978515625
-0.003662109375
0.1373291015625
0.024932861328125
0.0849609375
0.026397705078125
-0.0025634765625
-0.010284423828125
0.0736083984375
-0.0029296875
0.0531005859375
0.019073486328125
0.0194091796875
0.01318359375
0.036285400390625
0.006591796875
0.068511962890625
0.0
0.0948486328125
-0.008056640625
0.0816650390625
-0.024932861328125
0.0296630859375
-0.056793212890625
0.0146484375
-0.0391845703125
-0.0062255859375
0.0216064453125
-0.0267333984375
0.0274658203125
-0.002197265625
0.00732421875
-0.008056640625
-0.00732421875
-0.003662109375
0.0010986328125
0.0589599609375
0.0091552734375
0.0040283203125
-0.0047607421875
-0.03515625
-0.025634765625
0.024169921875
-0.043212890625
0.0238037109375
-0.0054931640625
-0.0040283203125
-0.0018310546875
0.010986328125
-0.0260009765625
0.059326171875
-0.0274658203125
0.06005859375
-0.027099609375
0.0289306640625
0.0216064453125
-0.0311279296875
0.046142578125
-0.0596923828125
0.0428466796875
-0.063720703125
0.065216064453125
-0.0721435546875
0.052764892578125
-0.0582275390625
0.0040283203125
-0.0120849609375
-0.026763916015625
0.0333251953125
-0.035186767578125
0.069580078125
-0.05419921875
0.0465087890625
-0.0252685546875
-0.04833984375
-0.000732421875
-0.0732421875
-0.0201416015625
-0.056396484375
0.000732421875
-0.0703125
0.0245361328125
-0.097442626953125
0.0106201171875
-0.092315673828125
-0.025634765625
-0.02783203125
-0.0333251953125
0.003662109375
-0.0054931640625
-0.032958984375
-0.000732421875
-0.0703125
-0.0076904296875
-0.0340576171875
-0.0230712890625
0.044677734375
-0.0391845703125
0.0421142578125
-0.03955078125
-0.00732421875
-0.030029296875
-0.019775390625
-0.0186767578125
-0.03515625
-0.0179443359375
0.01904296875
0.0135498046875
-0.031494140625
0.0391845703125
-0.1175537109375
0.0296630859375
-0.0596923828125
0.029296875
-0.0413818359375
0.0428466796875
-0.074371337890625
0.038818359375
-0.087554931640625
0.0267333984375
-0.06005859375
0.0205078125
-0.0311279296875
0.0421142578125
-0.0318603515625
0.025634765625
-0.03955078125
-0.00439453125
-0.0146484375
-0.005859375
0.0087890625
0.005859375
0.002197265625
0.037017822265625
-0.0347900390625
0.036651611328125
-0.0692138671875
0.0355224609375
-0.07177734375
0.047607421875
0.0120849609375
0.05419921875
-0.0322265625
0.044677734375
-0.098876953125
0.008056640625
-0.008056640625
-0.005859375
0.0216064453125
0.01025390625
0.0029296875
0.0098876953125
-0.00146484375
-0.0025634765625
0.01171875
-0.0186767578125
0.0146484375
-0.0091552734375
0.0087890625
-0.0062255859375
0.000732421875
-0.01904296875
-0.0216064453125
-0.0223388671875
-0.0135498046875
-0.03076171875
0.0252685546875
-0.01904296875
0.03515625
-0.008056640625
0.0128173828125
-0.025634765625
0.0098876953125
-0.041748046875
0.03515625
-0.061553955078125
0.0450439453125
-0.026763916015625
-0.00732421875
0.0091552734375
-0.031494140625
-0.035888671875
0.01171875
-0.0150146484375
-0.0054931640625
0.01904296875
-0.046142578125
0.00732421875
-0.02783203125
-0.0069580078125
0.015380859375
0.00146484375
0.0128173828125
0.015380859375
-0.0120849609375
0.003662109375
-0.008056640625
0.0010986328125
-0.005859375
-0.002197265625
-0.006591796875
0.0032958984375
0.0076904296875
0.0062255859375
0.0311279296875
0.012451171875
0.02490234375
0.014678955078125
-0.005126953125
0.005157470703125
0.07177734375
0.0201416015625
0.0054931640625
0.041015625
-0.0970458984375
0.019775390625
-0.0216064453125
-0.00732421875
0.0062255859375
-0.021240234375
0.005126953125
-0.01318359375
-0.01025390625
-0.008056640625
0.008056640625
-0.022705078125
0.0303955078125
-0.030426025390625
0.0179443359375
-0.025665283203125
0.012451171875
0.002197265625
-0.0106201171875
0.0091552734375
-0.0201416015625
0.0010986328125
0.0205078125
-0.0069580078125
0.0556640625
-0.01904296875
0.049072265625
-0.01904296875
0.0406494140625
-0.0146484375
0.028564453125
-0.0076904296875
0.0791015625
0.0201416015625
0.069580078125
0.0230712890625
0.0194091796875
0.0128173828125
0.0322265625
0.031524658203125
0.020538330078125
0.0098876953125
0.052032470703125
-0.010650634765625
0.0911865234375
-0.0281982421875
0.1087646484375
-0.0618896484375
0.1160888671875
-0.0435791015625
0.1007080078125
-0.0142822265625
0.06298828125
-0.0113525390625
0.040679931640625
-0.0091552734375
0.042510986328125
0.0172119140625
0.0281982421875
0.04541015625
0.008056640625
0.03369140625
0.0157470703125
0.00732421875
0.021240234375
-0.01171875
0.1131591796875
-0.01025390625
0.0552978515625
0.0113525390625
-0.06005859375
0.018310546875
-0.005859375
0.0032958984375
0.0018310546875
-0.00439453125
0.0047607421875
-0.0018310546875
0.0150146484375
-0.0142822265625
0.02490234375
-0.016845703125
0.03369140625
-0.0025634765625
0.022705078125
0.000732421875
-0.012451171875
-0.010986328125
-0.034423828125
-0.0106201171875
-0.01318359375
0.0098876953125
0.0069580078125
0.0142822265625
-0.0113525390625
0.0025634765625
-0.0487060546875
0.0267333984375
-0.0604248046875
0.053131103515625
-0.031494140625
0.026397705078125
-0.0391845703125
-0.009918212890625
-0.063018798828125
-0.059722900390625
-0.0208740234375
-0.08203125
0.0
-0.0479736328125
-0.010650634765625
-0.0238037109375
-0.017578125
-0.0084228515625
-0.05126953125
0.0120849609375
-0.0809326171875
0.03955078125
-0.0875244140625
0.0545654296875
-0.091552734375
0.049072265625
-0.114990234375
0.057525634765625
-0.131500244140625
0.061553955078125
-0.122344970703125
0.03369140625
-0.091552734375
0.0186767578125
-0.0479736328125
0.01611328125
-0.0201416015625
-0.0084228515625
-0.0260009765625
-0.0267333984375
0.0509033203125
0.005126953125
-0.0098876953125
0.0281982421875
-0.1087646484375
0.005126953125
-0.0435791015625
0.01171875
-0.0347900390625
0.02197265625
-0.0428466796875
0.005126953125
-0.0369873046875
-0.0274658203125
0.0150146484375
-0.043212890625
0.044677734375
-0.012451171875
0.01171875
0.0098876953125
-0.0106201171875
0.0172119140625
-0.0164794921875
0.008056640625
0.00146484375
-0.013916015625
0.0439453125
-0.0164794921875
0.03662109375
-0.0076904296875
-0.0091552734375
0.012451171875
-0.018310546875
0.0018310546875
0.0263671875
-0.030029296875
0.016845703125
0.0098876953125
-0.06884765625
0.0380859375
-0.0677490234375
0.0106201171875
-0.008056640625
-0.000732421875
-0.0025634765625
-0.005859375
-0.032257080078125
0.017578125
-0.032257080078125
0.0120849609375
0.0186767578125
-0.019775390625
0.050201416015625
-0.0091552734375
0.027130126953125
0.0
-0.000732421875
0.0032958984375
-0.039215087890625
0.0040283203125
-0.048004150390625
0.01904296875
-0.021240234375
0.0230712890625
0.00732421875
0.0003662109375
0.040679931640625
-0.0281982421875
0.037017822265625
-0.0311279296875
0.0633544921875
0.0172119140625
-0.020172119140625
0.043212890625
-0.090850830078125
0.0150146484375
-0.012451171875
-0.0113525390625
0.024932861328125
-0.010986328125
-0.0029296875
0.005126953125
-0.027130126953125
-0.00146484375
0.0106201171875
-0.0238037109375
0.046173095703125
-0.0223388671875
0.036285400390625
-0.0120849609375
0.0003662109375
-0.028564453125
0.006591796875
-0.02490234375
-0.00439453125
-0.0018310546875
-0.024169921875
-0.0069580078125
0.0003662109375
-0.0098876953125
0.0157470703125
-0.035186767578125
0.0406494140625
-0.065216064453125
0.0234375
-0.0545654296875
0.07470703125
-0.0040283203125
0.029296875
0.025634765625
-0.065185546875
0.0120849609375
-0.0186767578125
0.0245361328125
-0.038818359375
0.030029296875
-0.0552978515625
0.0172119140625
-0.031158447265625
0.003662109375
0.0069580078125
0.005859375
0.010284423828125
0.034820556640625
-0.012451171875
0.035919189453125
-0.0018310546875
0.00439453125
0.0205078125
-0.000732421875
0.0106201171875
0.0281982421875
-0.0091552734375
0.031494140625
0.0025634765625
0.008056640625
0.0194091796875
-0.0128173828125
0.0205078125
-0.025634765625
0.06005859375
-0.009521484375
0.00146484375
0.009521484375
-0.068115234375
0.010986328125
-0.0296630859375
0.0025634765625
-0.005859375
0.012451171875
-0.018341064453125
0.0267333984375
-0.045074462890625
0.0084228515625
-0.02197265625
-0.006591796875
0.008056640625
-0.008056640625
0.038116455078125
-0.0018310546875
0.048004150390625
0.002197265625
0.00439453125
-0.0029296875
0.003662109375
-0.0018310546875
0.0274658203125
0.0113525390625
0.022705078125
0.0047607421875
0.0179443359375
-0.0098876953125
0.013916015625
-0.025634765625
0.01171875
-0.03369140625
0.1029052734375
-0.0025634765625
0.037353515625
0.0146484375
-0.0703125
-0.0029296875
-0.01025390625
-0.00146484375
-0.0029296875
0.0179443359375
-0.0340576171875
0.0194091796875
-0.050537109375
0.00146484375
-0.0091552734375
0.0
0.0267333984375
0.0091552734375
0.0322265625
0.009521484375
0.0
0.009521484375
-0.0263671875
0.0054931640625
0.0018310546875
-0.0069580078125
0.0443115234375
-0.0194091796875
0.052001953125
-0.0201416015625
0.0391845703125
-0.027099609375
0.041748046875
-0.046875
0.0955810546875
-0.040313720703125
0.09228515625
0.0106201171875
-0.00146484375
0.034454345703125
-0.0296630859375
0.0311279296875
-0.02783203125
0.047607421875
-0.05712890625
0.049072265625
-0.0787353515625
0.0333251953125
-0.071044921875
0.0076904296875
-0.022705078125
-0.0025634765625
0.02197265625
0.003662109375
0.012451171875
-0.0025634765625
-0.015380859375
-0.0069580078125
-0.0106201171875
-0.0040283203125
-0.00146484375
-0.0091552734375
0.005859375
-0.016845703125
0.0230712890625
-0.0098876953125
0.0267333984375
-0.0087890625
0.0025634765625
-0.0054931640625
0.050537109375
-0.012451171875
0.0106201171875
-0.009521484375
-0.0560302734375
-0.0062255859375
0.003662109375
0.00732421875
-0.000732421875
0.03369140625
-0.032958984375
0.0194091796875
-0.02783203125
0.0069580078125
-0.009521484375
0.0047607421875
-0.0087890625
0.029296875
-0.0238037109375
0.0245361328125
-0.0164794921875
0.0186767578125
-0.0289306640625
0.032958984375
-0.054931640625
0.0062255859375
-0.01025390625
0.0135498046875
-0.0069580078125
0.0303955078125
-0.051300048828125
0.016845703125
-0.047637939453125
-0.000732421875
-0.0443115234375
0.0054931640625
0.0238037109375
0.0479736328125
-0.0186767578125
0.0457763671875
-0.071044921875
0.0252685546875
-0.0047607421875
0.065216064453125
-0.0509033203125
0.055328369140625
-0.06591796875
-0.005859375
-0.022705078125
-0.034454345703125
0.018310546875
-0.074005126953125
0.0765380859375
-0.097412109375
0.09814453125
-0.0963134765625
0.096710205078125
-0.0831298828125
0.093414306640625
-0.02783203125
0.0560302734375
0.0234375
0.01318359375
0.0362548828125
-0.0029296875
0.0289306640625
-0.0164794921875
0.0128173828125
-0.0355224609375
-0.005859375
-0.0479736328125
-0.0439453125
0.0443115234375
-0.02783203125
0.0347900390625
0.0069580078125
-0.0391845703125
-0.00732421875
-0.00732421875
-0.00439453125
-0.0296630859375
0.0003662109375
-0.054229736328125
-0.01171875
-0.045806884765625
0.0003662109375
-0.03076171875
0.021240234375
-0.0267333984375
0.0186767578125
-0.015380859375
0.0010986328125
0.000732421875
-0.0311279296875
0.0157470703125
-0.0208740234375
0.0216064453125
0.0069580078125
0.0260009765625
0.0146484375
0.0234375
0.0208740234375
0.020904541015625
-0.0164794921875
0.050933837890625
-0.03369140625
0.0618896484375
-0.0146484375
0.066650390625
0.0091552734375
0.0362548828125
0.005126953125
0.0238037109375
-0.017578125
0.0582275390625
0.00439453125
0.043212890625
-0.00732421875
0.0556640625
-0.0179443359375
0.0919189453125
-0.00439453125
0.097442626953125
-0.00732421875
0.092681884765625
-0.009521484375
0.0699462890625
-0.008056640625
0.0267333984375
-0.01025390625
0.0157470703125
-0.0106201171875
0.0377197265625
0.0003662109375
0.0399169921875
0.0113525390625
0.0205078125
0.01318359375
0.0076904296875
-0.016845703125
0.01025390625
-0.0230712890625
0.0780029296875
0.00439453125
-0.0003662109375
0.0098876953125
-0.0736083984375
0.006591796875
0.006591796875
0.0018310546875
0.021240234375
0.00732421875
0.00146484375
0.0091552734375
-0.0062255859375
0.00439453125
0.01611328125
-0.0003662109375
0.0311279296875
-0.000732421875
0.0267333984375
0.0047607421875
0.009521484375
-0.006591796875
-0.0106201171875
0.0029296875
-0.0164794921875
-0.0029296875
0.0120849609375
-0.0186767578125
0.0238037109375
-0.0098876953125
-0.000732421875
-0.017578125
-0.01318359375
-0.0252685546875
-0.024169921875
-0.032989501953125
0.047607421875
0.0087890625
-0.017578125
0.036651611328125
-0.10546875
0.005859375
-0.0245361328125
-0.0069580078125
-0.00732421875
0.01171875
-0.04541015625
0.024169921875
-0.069580078125
0.0010986328125
-0.0311279296875
-0.01171875
0.0084228515625
0.0054931640625
-0.008056640625
0.0289306640625
-0.06884765625
0.04833984375
-0.089019775390625
0.0421142578125
-0.0084228515625
-0.005859375
0.106964111328125
-0.085693359375
0.1453857421875
-0.110626220703125
0.05859375
-0.051300048828125
-0.025634765625
-0.0205078125
0.0501708984375
-0.0509033203125
0.060791015625
-0.0732421875
0.002197265625
-0.076171875
0.0164794921875
-0.05859375
-0.01171875
-0.0289306640625
-0.040283203125
-0.0494384765625
-0.0238037109375
-0.04541015625
-0.027099609375
0.0347900390625
-0.066650390625
0.08349609375
-0.0908203125
0.09375
-0.113189697265625
0.0919189453125
-0.142852783203125
0.0908203125
-0.1549072265625
0.104034423828125
-0.1307373046875
0.069610595703125
-0.0692138671875
0.003662109375
-0.01318359375
0.002197265625
-0.015380859375
0.0223388671875
-0.029296875
-0.00439453125
0.0714111328125
-0.01611328125
0.0509033203125
0.000732421875
-0.0267333984375
0.0146484375
0.002197265625
0.038818359375
-0.0274658203125
0.0560302734375
-0.062255859375
0.04248046875
-0.064483642578125
0.0113525390625
-0.037017822265625
0.0062255859375
-0.0128173828125
0.032958984375
-0.017578125
0.038818359375
-0.0281982421875
0.0439453125
-0.05419921875
0.047607421875
-0.0772705078125
0.0406494140625
-0.0479736328125
0.037353515625
-0.022705078125
0.01318359375
-0.00439453125
-0.0303955078125
0.0263671875
-0.04833984375
0.0157470703125
-0.060791015625
0.1025390625
-0.0516357421875
0.0732421875
-0.0113525390625
-0.028564453125
-0.01904296875
0.032958984375
-0.032958984375
0.046875
-0.01611328125
0.0076904296875
0.01171875
-0.025634765625
0.013916015625
-0.01171875
0.0230712890625
-0.0084228515625
0.0589599609375
-0.0413818359375
0.075439453125
-0.0662841796875
0.097442626953125
-0.1146240234375
0.102203369140625
-0.1314697265625
0.087890625
-0.07763671875
0.0699462890625
-0.0443115234375
0.0479736328125
-0.039581298828125
0.015380859375
-0.004791259765625
-0.0205078125
0.0091552734375
-0.046875
0.109527587890625
-0.044677734375
0.086090087890625
-0.027099609375
-0.009521484375
-0.0245361328125
0.0406494140625
-0.0303955078125
0.0369873046875
-0.052734375
0.0325927734375
-0.088287353515625
0.0670166015625
-0.082794189453125
0.082763671875
-0.044677734375
0.0472412109375
-0.0340576171875
0.0205078125
-0.0091552734375
-0.0003662109375
0.0325927734375
-0.038818359375
0.04541015625
-0.0523681640625
0.0479736328125
-0.0267333984375
0.0172119140625
0.029296875
-0.0479736328125
0.0703125
-0.088623046875
0.073272705078125
-0.11279296875
0.086822509765625
-0.1153564453125
0.17724609375
-0.0648193359375
0.087890625
-0.0325927734375
-0.027099609375
-0.03369140625
0.038818359375
0.009521484375
0.0194091796875
0.0205078125
-0.029296875
-0.021240234375
-0.04833984375
-0.027862548828125
-0.016845703125
-0.0091552734375
0.0179443359375
0.001129150390625
0.01318359375
-0.004425048828125
-0.000732421875
-0.011016845703125
-0.010986328125
0.011383056640625
-0.0128173828125
0.022003173828125
-0.009521484375
0.00439453125
-0.0010986328125
0.0076904296875
0.002197265625
0.003662109375
0.0040283203125
-0.0150146484375
0.043212890625
-0.016143798828125
0.0340576171875
0.0157470703125
-0.0296630859375
0.024932861328125
-0.01904296875
-0.01025390625
0.0260009765625
0.01025390625
0.0010986328125
0.0234375
-0.0428466796875
0.012451171875
-0.053466796875
0.0281982421875
-0.0355224609375
0.0186767578125
0.00732421875
0.0172119140625
0.010986328125
0.0179443359375
-0.0245361328125
-0.005126953125
-0.0076904296875
-0.01025390625
0.0296630859375
0.005126953125
0.010986328125
0.0010986328125
0.0032958984375
-0.0076904296875
0.01611328125
-0.0289306640625
0.0347900390625
-0.0472412109375
0.11572265625
-0.029296875
0.054931640625
0.0025634765625
-0.0421142578125
0.0325927734375
-0.028564453125
0.02783203125
-0.0186767578125
0.0340576171875
-0.0234375
0.0274658203125
-0.03515625
0.005859375
-0.0205078125
0.015380859375
-0.0142822265625
0.010986328125
-0.0032958984375
0.022705078125
-0.0325927734375
0.0223388671875
-0.053466796875
0.016845703125
-0.03369140625
0.0216064453125
-0.0106201171875
0.0018310546875
0.01318359375
-0.013916015625
0.017578125
-0.012451171875
0.002197265625
-0.0076904296875
-0.021240234375
-0.0296630859375
0.0516357421875
-0.0113525390625
0.037353515625
0.0142822265625
-0.041015625
-0.0018310546875
-0.0201416015625
0.01611328125
-0.03076171875
0.0274658203125
-0.046142578125
0.0029296875
-0.0322265625
-0.0032958984375
-0.003662109375
-0.0157470703125
0.03369140625
-0.018310546875
0.0560302734375
0.000732421875
0.0135498046875
-0.0076904296875
-0.00146484375
-0.0003662109375
0.016845703125
0.0091552734375
0.0135498046875
-0.0146484375
0.030029296875
-0.0281982421875
0.0450439453125
-0.0267333984375
0.0391845703125
-0.0172119140625
0.079833984375
-0.0069580078125
0.0098876953125
0.0201416015625
-0.081298828125
0.0333251953125
-0.035888671875
0.013916015625
-0.018310546875
0.03076171875
-0.044677734375
0.0487060546875
-0.0703125
0.0201416015625
-0.0531005859375
-0.0098876953125
0.01171875
0.0029296875
0.034423828125
0.0263671875
-0.010986328125
0.0135498046875
-0.0208740234375
-0.012451171875
0.0142822265625
-0.0084228515625
0.0263671875
0.015380859375
-0.0018310546875
0.0263671875
-0.0186767578125
0.028564453125
-0.0142822265625
0.01611328125
-0.018310546875
-0.006591796875
0.0640869140625
0.019775390625
-0.003662109375
0.044677734375
-0.1021728515625
0.010986328125
-0.009521484375
-0.0076904296875
0.01904296875
-0.01025390625
0.0003662109375
-0.0179443359375
-0.0186767578125
-0.0157470703125
0.0076904296875
-0.0216064453125
0.0494384765625
-0.008056640625
0.03662109375
-0.0018310546875
0.0142822265625
0.0032958984375
-0.012451171875
0.0084228515625
-0.0201416015625
-0.0106201171875
0.015380859375
-0.0084228515625
0.0245361328125
-0.0076904296875
0.0120849609375
-0.0205078125
0.0146484375
-0.0260009765625
-0.0047607421875
-0.0230712890625
0.0560302734375
0.01171875
0.01318359375
0.02197265625
-0.0684814453125
-0.005859375
-0.0010986328125
-0.02490234375
0.017578125
-0.0362548828125
0.0010986328125
-0.0340576171875
-0.0047607421875
-0.022705078125
0.0106201171875
-0.0032958984375
0.021240234375
0.0076904296875
0.01025390625
0.0047607421875
0.002197265625
-0.0029296875
-0.0157470703125
-0.012451171875
-0.01904296875
-0.0069580078125
0.0062255859375
0.0054931640625
0.0091552734375
0.0
0.0047607421875
-0.016845703125
0.013916015625
-0.0150146484375
-0.0047607421875
-0.019775390625
0.0281982421875
-0.0003662109375
0.012451171875
0.0216064453125
-0.02783203125
-0.0069580078125
0.0186767578125
-0.0084228515625
0.008056640625
0.0040283203125
-0.031494140625
0.0018310546875
-0.0333251953125
-0.0029296875
0.005126953125
0.0040283203125
0.018310546875
0.0062255859375
-0.0076904296875
-0.0018310546875
-0.012451171875
-0.0003662109375
-0.0113525390625
0.0029296875
-0.01171875
-0.01025390625
0.0208740234375
0.0018310546875
0.0205078125
0.015380859375
-0.00146484375
-0.01904296875
0.0146484375
-0.01611328125
0.0406494140625
-0.0025634765625
0.000732421875
0.00732421875
-0.0421142578125
-0.000732421875
0.002197265625
-0.0230712890625
0.0384521484375
-0.0106201171875
0.010986328125
-0.01318359375
-0.0234375
-0.0186767578125
-0.010986328125
-0.006591796875
0.021240234375
0.0047607421875
0.0194091796875
0.02490234375
-0.01025390625
0.0186767578125
-0.03076171875
0.013916015625
-0.029296875
0.0340576171875
-0.031494140625
0.0274658203125
-0.03076171875
0.0205078125
-0.0186767578125
0.017578125
0.0
0.0205078125
0.0018310546875
0.05859375
0.0296630859375
0.0823974609375
-0.0699462890625
0.05126953125
-0.142852783203125
0.025634765625
-0.051666259765625
0.028564453125
-0.017578125
0.017578125
-0.0230712890625
-0.010986328125
-0.0274658203125
-0.0391845703125
0.0106201171875
-0.0333251953125
0.0413818359375
-0.0157470703125
0.038818359375
-0.0216064453125
0.0263671875
-0.0245361328125
0.000732421875
-0.0172119140625
0.005859375
-0.019775390625
0.037017822265625
-0.0098876953125
0.028228759765625
-0.0186767578125
0.03955078125
-0.0355224609375
0.0391845703125
-0.022705078125
-0.0128173828125
-0.0289306640625
0.053466796875
0.0091552734375
0.0120849609375
0.03369140625
-0.0728759765625
-0.005126953125
0.0018310546875
-0.0032958984375
0.017578125
0.0084228515625
-0.024169921875
-0.0186767578125
-0.02783203125
-0.0384521484375
0.019775390625
-0.0333251953125
0.052734375
-0.0303955078125
0.0567626953125
0.0029296875
-0.0018310546875
0.017578125
-0.037353515625
0.0032958984375
-0.0054931640625
0.016845703125
0.0076904296875
0.0054931640625
0.0091552734375
-0.008056640625
0.0069580078125
0.0054931640625
-0.0076904296875
0.012451171875
0.0340576171875
-0.00146484375
0.0179443359375
-0.0040283203125
-0.0274658203125
-0.0054931640625
0.003662109375
-0.0234375
0.035888671875
-0.0186767578125
0.037353515625
-0.0029296875
-0.0032958984375
-0.005126953125
-0.0135498046875
-0.0062255859375
0.0106201171875
0.0018310546875
0.022705078125
0.0120849609375
-0.000732421875
0.0208740234375
-0.0406494140625
0.0172119140625
-0.027099609375
0.0164794921875
0.0003662109375
0.0260009765625
-0.01318359375
0.0274658203125
-0.028564453125
0.0267333984375
-0.028564453125
-0.006591796875
0.016845703125
-0.047607421875
0.1534423828125
-0.0582275390625
0.1343994140625
-0.04541015625
0.0355224609375
-0.021240234375
0.0391845703125
-0.02197265625
0.037750244140625
-0.0186767578125
0.034088134765625
0.01318359375
-0.023468017578125
0.034423828125
-0.078399658203125
0.034423828125
-0.0750732421875
0.0318603515625
-0.053466796875
0.043212890625
-0.071044921875
0.0494384765625
-0.0933837890625
0.038818359375
-0.07470703125
0.0296630859375
-0.03076171875
0.00439453125
0.008056640625
-0.0201416015625
0.0347900390625
-0.027099609375
0.041015625
-0.0274658203125
0.005859375
-0.0223388671875
0.0615234375
0.00439453125
0.0325927734375
0.0146484375
-0.0538330078125
-0.0029296875
-0.01318359375
-0.0076904296875
0.0076904296875
-0.01171875
0.0076904296875
-0.01171875
-0.0150146484375
0.009521484375
-0.02490234375
0.005859375
0.0142822265625
-0.008056640625
0.0421142578125
0.002197265625
0.008056640625
-0.005859375
-0.0098876953125
-0.01904296875
0.0260009765625
-0.017578125
0.0509033203125
0.0032958984375
0.0230712890625
0.0205078125
-0.0069580078125
0.01611328125
-0.01318359375
0.0040283203125
-0.01904296875
-0.009521484375
0.01611328125
0.009521484375
-0.0186767578125
0.0267333984375
-0.053466796875
0.0010986328125
0.003662109375
-0.013916015625
0.009521484375
-0.029296875
0.00439453125
-0.0380859375
0.00732421875
-0.02490234375
0.0216064453125
-0.0172119140625
0.035888671875
-0.0003662109375
0.0120849609375
0.0113525390625
-0.0164794921875
0.0201416015625
-0.0457763671875
0.01611328125
-0.0399169921875
0.00439453125
0.0029296875
-0.0040283203125
0.02197265625
-0.0150146484375
0.0230712890625
-0.0142822265625
0.012451171875
-0.0047607421875
-0.018310546875
-0.01318359375
0.032958984375
0.0062255859375
0.012451171875
0.021240234375
-0.0391845703125
-0.0113525390625
0.010986328125
-0.0087890625
0.006591796875
0.006591796875
-0.0201416015625
0.0032958984375
-0.0274658203125
-0.016845703125
0.0062255859375
-0.01171875
0.0230712890625
0.01611328125
-0.002197265625
0.00732421875
0.0018310546875
-0.0208740234375
0.0223388671875
-0.0186767578125
0.02783203125
0.0091552734375
0.0296630859375
0.0032958984375
0.034423828125
-0.0113525390625
0.0322265625
-0.0087890625
0.0230712890625
-0.0062255859375
0.003662109375
0.0040283203125
-0.0076904296875
0.02490234375
-0.035888671875
0.031494140625
-0.050537109375
0.006591796875
-0.0091552734375
-0.003662109375
0.003662109375
0.000732421875
-0.0201416015625
-0.006591796875
-0.0281982421875
-0.018310546875
0.012451171875
-0.0186767578125
0.0465087890625
-0.002197265625
0.0208740234375
0.0098876953125
-0.030029296875
0.019775390625
-0.0494384765625
0.0263671875
-0.0274658203125
0.01611328125
0.0
0.0047607421875
0.0025634765625
-0.0032958984375
-0.0040283203125
-0.0146484375
0.0128173828125
-0.0150146484375
0.079833984375
-0.0076904296875
0.018310546875
0.0106201171875
-0.071044921875
0.0186767578125
-0.0296630859375
-0.0010986328125
-0.0010986328125
0.000732421875
-0.0120849609375
0.0164794921875
-0.0380859375
0.0106201171875
-0.0318603515625
-0.0054931640625
0.0029296875
0.008056640625
0.0263671875
0.0142822265625
0.02197265625
-0.0084228515625
0.000732421875
-0.0032958984375
-0.0062255859375
0.008056640625
0.003662109375
0.0047607421875
0.00439453125
0.005126953125
0.0087890625
-0.0032958984375
0.009521484375
-0.0128173828125
0.0091552734375
0.002197265625
0.0611572265625
-0.00439453125
0.0150146484375
-0.009521484375
-0.0399169921875
0.0054931640625
0.0003662109375
-0.01171875
0.01171875
-0.009521484375
-0.000732421875
0.0098876953125
-0.0325927734375
-0.0010986328125
-0.0281982421875
-0.0076904296875
0.008056640625
0.003662109375
0.03076171875
-0.0003662109375
0.019775390625
-0.0113525390625
-0.00146484375
-0.015380859375
0.0040283203125
-0.0106201171875
0.0267333984375
0.0032958984375
0.0172119140625
0.00146484375
0.0010986328125
-0.0029296875
-0.0029296875
-0.005126953125
-0.013916015625
-0.005859375
0.0611572265625
0.0025634765625
0.01611328125
0.012451171875
-0.0721435546875
0.003662109375
-0.012451171875
-0.005126953125
0.0029296875
0.0150146484375
-0.0208740234375
0.0106201171875
-0.040283203125
-0.0076904296875
-0.0186767578125
-0.0150146484375
0.0179443359375
0.0025634765625
0.0238037109375
0.0172119140625
-0.0032958984375
0.005859375
-0.022705078125
-0.0076904296875
-0.0010986328125
-0.01025390625
0.0230712890625
0.01025390625
0.0128173828125
0.0076904296875
-0.002197265625
0.000732421875
-0.012451171875
0.0091552734375
-0.038818359375
-0.006591796875
0.047607421875
0.005126953125
0.030029296875
0.0054931640625
-0.041015625
-0.022705078125
0.0252685546875
-0.0091552734375
0.021240234375
0.0029296875
-0.0128173828125
0.005859375
-0.0340576171875
-0.0003662109375
-0.016845703125
-0.018310546875
0.0311279296875
-0.0084228515625
0.029296875
0.0128173828125
-0.018310546875
0.009521484375
-0.029296875
0.006591796875
-0.0157470703125
0.00732421875
-0.0010986328125
0.0076904296875
0.0010986328125
0.01904296875
-0.013916015625
0.01611328125
-0.0113525390625
-0.01171875
-0.005126953125
-0.03955078125
0.0919189453125
-0.008056640625
0.0399169921875
0.027099609375
-0.08203125
0.0120849609375
-0.028564453125
0.0135498046875
-0.017578125
0.0208740234375
-0.0450439453125
0.015380859375
-0.0509033203125
-0.0018310546875
-0.006591796875
-0.025634765625
0.0421142578125
-0.0234375
0.0362548828125
-0.0025634765625
0.0098876953125
0.0
-0.006591796875
-0.0003662109375
-0.0186767578125
0.01171875
-0.0054931640625
0.0208740234375
-0.000732421875
0.0252685546875
-0.0164794921875
0.0069580078125
-0.002197265625
-0.01904296875
-0.0010986328125
-0.03955078125
0.0849609375
-0.01318359375
0.0274658203125
0.0340576171875
-0.0904541015625
0.012451171875
-0.0205078125
0.005126953125
-0.01904296875
0.027099609375
-0.049072265625
0.016845703125
-0.043212890625
-0.006591796875
-0.0003662109375
-0.012451171875
0.0289306640625
0.016845703125
0.000732421875
0.030029296875
-0.022705078125
0.0010986328125
-0.0120849609375
-0.00146484375
0.0032958984375
0.0
0.0296630859375
-0.012451171875
0.0421142578125
-0.024169921875
0.0399169921875
-0.02197265625
0.0384521484375
-0.0263671875
0.017578125
-0.0435791015625
0.0904541015625
-0.00732421875
0.046875
0.0069580078125
-0.038818359375
-0.0164794921875
0.0234375
-0.022705078125
0.052001953125
-0.01318359375
0.029296875
0.006591796875
-0.0311279296875
0.0084228515625
-0.0263671875
-0.003662109375
0.0263671875
0.000732421875
0.0322265625
0.0234375
-0.0303955078125
0.0252685546875
-0.0721435546875
0.010986328125
-0.030029296875
0.005126953125
0.0164794921875
0.0010986328125
0.0146484375
0.0029296875
-0.0087890625
0.00146484375
-0.0223388671875
-0.0098876953125
-0.0322265625
-0.0230712890625
0.0380859375
0.0128173828125
-0.002197265625
0.04833984375
-0.087158203125
-0.0032958984375
0.0025634765625
-0.028564453125
0.0556640625
-0.000732421875
-0.0003662109375
0.0047607421875
-0.049072265625
0.0113525390625
-0.0245361328125
0.0325927734375
0.0098876953125
0.0794677734375
-0.02490234375
0.122314453125
-0.120849609375
0.100738525390625
-0.130767822265625
0.037017822265625
-0.053131103515625
0.0069580078125
0.00146484375
-0.0062255859375
0.025634765625
-0.0172119140625
0.0322265625
-0.005859375
0.0157470703125
-0.021270751953125
-0.0146484375
-0.042510986328125
0.049835205078125
-0.01171875
0.044708251953125
0.017578125
-0.0263671875
0.01611328125
-0.025299072265625
0.017974853515625
-0.043243408203125
0.0018310546875
-0.0369873046875
-0.026397705078125
-0.00732421875
-0.0516357421875
0.042877197265625
-0.043212890625
0.055694580078125
-0.009521484375
0.0120849609375
-0.01318359375
0.00146484375
-0.0098876953125
0.000732421875
0.003662109375
-0.00439453125
-0.0128173828125
0.022705078125
-0.0179443359375
0.0322265625
-0.0146484375
0.0311279296875
-0.0457763671875
0.0791015625
-0.054931640625
0.078369140625
-0.0274658203125
0.053466796875
0.0230712890625
-0.0296630859375
0.041015625
-0.0831298828125
0.0091552734375
-0.0047607421875
0.0032958984375
-0.005859375
0.0205078125
-0.071044921875
0.01171875
-0.072509765625
-0.0087890625
-0.0091552734375
-0.0087890625
0.0172119140625
0.005859375
-0.0047607421875
-0.0003662109375
-0.01171875
-0.017578125
-0.0040283203125
0.01025390625
-0.015380859375
0.0194091796875
-0.005126953125
-0.0054931640625
0.0234375
-0.01025390625
0.015380859375
-0.0098876953125
0.010986328125
-0.0179443359375
0.01318359375
-0.0296630859375
0.0450439453125
-0.010986328125
0.0223388671875
0.0150146484375
-0.0311279296875
0.002197265625
-0.0032958984375
-0.0106201171875
0.0
-0.010986328125
-0.01611328125
-0.0084228515625
-0.009521484375
-0.0172119140625
0.0205078125
-0.02490234375
0.0380859375
0.0
0.0128173828125
0.006591796875
-0.009521484375
-0.0128173828125
-0.0186767578125
0.00732421875
-0.0325927734375
0.034423828125
-0.017578125
0.0164794921875
0.0087890625
-0.0098876953125
0.0142822265625
-0.0029296875
0.00439453125
-0.009521484375
0.008056640625
-0.024169921875
0.040283203125
0.015380859375
0.00146484375
0.034423828125
-0.047607421875
-0.0040283203125
0.0003662109375
-0.01025390625
0.01904296875
0.0087890625
-0.018310546875
-0.0010986328125
-0.0128173828125
-0.02197265625
0.041015625
-0.0223388671875
0.06005859375
-0.009521484375
0.0340576171875
0.0062255859375
-0.0076904296875
-0.0003662109375
-0.01318359375
-0.0047607421875
0.0172119140625
0.0084228515625
0.0179443359375
0.008056640625
0.0029296875
0.00439453125
0.002197265625
0.002197265625
0.0172119140625
-0.0084228515625
0.0802001953125
-0.006591796875
0.0252685546875
0.0054931640625
-0.054931640625
0.0018310546875
-0.009521484375
-0.005859375
0.01171875
0.01171875
-0.00439453125
0.0084228515625
-0.0172119140625
-0.02490234375
0.008056640625
-0.0238037109375
0.032958984375
-0.0069580078125
0.0399169921875
0.01611328125
0.0098876953125
0.0274658203125
-0.0377197265625
0.00439453125
-0.0157470703125
-0.01318359375
0.031494140625
0.0003662109375
0.021240234375
0.01171875
-0.0040283203125
0.002197265625
0.0
-0.006591796875
0.013916015625
0.0003662109375
0.063720703125
-0.0069580078125
0.0106201171875
-0.01171875
-0.046875
-0.0084228515625
0.0076904296875
-0.017578125
0.0252685546875
0.000732421875
-0.0003662109375
0.017578125
-0.038818359375
0.012451171875
-0.035888671875
-0.0054931640625
0.00732421875
-0.009521484375
0.0384521484375
0.002197265625
0.01904296875
0.01025390625
-0.028564453125
-0.005126953125
-0.0113525390625
-0.00732421875
0.0303955078125
0.002197265625
0.0263671875
-0.0120849609375
0.02490234375
-0.0238037109375
0.0325927734375
-0.0377197265625
0.041046142578125
-0.0142822265625
0.083160400390625
0.0040283203125
0.00439453125
0.00439453125
-0.081329345703125
0.00146484375
-0.017578125
-0.0146484375
0.015777587890625
-0.0047607421875
0.0
0.006591796875
-0.039215087890625
0.003662109375
-0.051300048828125
0.0003662109375
-0.01025390625
0.0003662109375
0.0194091796875
0.017578125
-0.0128173828125
0.0146484375
-0.040283203125
0.018310546875
-0.0380859375
0.0340576171875
-0.0252685546875
0.00732421875
-0.015380859375
0.00732421875
-0.0369873046875
0.022705078125
-0.04541015625
0.0018310546875
-0.0238037109375
-0.0201416015625
0.07177734375
-0.005859375
0.02197265625
0.017578125
-0.0662841796875
0.0120849609375
-0.005126953125
-0.010986328125
0.0087890625
-0.005126953125
-0.008056640625
0.0135498046875
-0.03515625
0.00146484375
-0.01611328125
-0.019775390625
0.03662109375
-0.0128173828125
0.04248046875
0.00146484375
0.00439453125
-0.0032958984375
-0.0201416015625
0.01171875
-0.025634765625
0.019775390625
-0.0146484375
0.013916015625
-0.00732421875
0.0146484375
-0.015380859375
0.0
-0.005126953125
-0.0146484375
-0.009521484375
-0.0157470703125
0.06005859375
0.0245361328125
0.003662109375
0.022705078125
-0.063720703125
-0.01611328125
0.0142822265625
-0.01025390625
0.012451171875
-0.0025634765625
-0.00439453125
0.0091552734375
-0.0325927734375
0.0032958984375
-0.030029296875
-0.022705078125
0.031494140625
-0.024169921875
0.062255859375
-0.0146484375
0.0377197265625
-0.0230712890625
0.0260009765625
-0.015380859375
0.01904296875
-0.0029296875
0.02197265625
0.0069580078125
0.0208740234375
0.0047607421875
0.0106201171875
-0.005859375
0.01318359375
-0.013916015625
0.0010986328125
-0.016845703125
0.06591796875
0.0274658203125
-0.00439453125
0.0479736328125
-0.1058349609375
0.0234375
-0.03662109375
0.0157470703125
-0.0062255859375
0.00439453125
0.0010986328125
-0.0010986328125
-0.0157470703125
-0.009521484375
-0.008056640625
-0.02490234375
0.02490234375
0.0098876953125
-0.0010986328125
0.0296630859375
-0.0263671875
0.0084228515625
-0.0201416015625
0.02783203125
-0.0538330078125
0.0516357421875
-0.0743408203125
0.02490234375
-0.038818359375
0.0084228515625
-0.0062255859375
0.0025634765625
0.006591796875
-0.0303955078125
0.0281982421875
-0.0322265625
0.0889892578125
-0.008056640625
0.01611328125
0.0150146484375
-0.0706787109375
0.0091552734375
-0.0106201171875
-0.0087890625
0.010986328125
-0.0010986328125
-0.01025390625
0.005859375
-0.0450439453125
0.0106201171875
-0.0355224609375
0.0069580078125
-0.0040283203125
0.00732421875
0.015380859375
0.00146484375
0.0303955078125
-0.024169921875
0.0263671875
-0.01904296875
0.008056640625
-0.0029296875
0.01025390625
0.006591796875
0.00732421875
0.024169921875
-0.0238037109375
0.022705078125
-0.0303955078125
0.00146484375
-0.0150146484375
-0.005126953125
0.0567626953125
0.000732421875
0.0120849609375
-0.0010986328125
-0.06005859375
-0.0032958984375
-0.002197265625
-0.009521484375
0.006591796875
-0.00146484375
-0.018310546875
-0.00439453125
-0.021240234375
-0.0135498046875
-0.003662109375
-0.00732421875
0.013916015625
-0.008056640625
0.016845703125
-0.015380859375
0.0146484375
-0.0194091796875
0.01611328125
-0.0157470703125
0.0098876953125
-0.008056640625
0.01025390625
-0.0010986328125
0.0230712890625
0.0040283203125
0.0157470703125
0.008056640625
-0.00146484375
-0.0087890625
0.0098876953125
-0.0142822265625
0.0450439453125
-0.0157470703125
0.0201416015625
-0.0054931640625
-0.0245361328125
-0.006591796875
0.0010986328125
-0.0296630859375
0.02197265625
-0.02197265625
0.005859375
-0.01171875
-0.012451171875
-0.0238037109375
0.009521484375
-0.0238037109375
0.0274658203125
0.003662109375
0.0076904296875
0.0076904296875
0.0029296875
-0.002197265625
0.002197265625
-0.008056640625
-0.01171875
0.0054931640625
-0.016845703125
0.0157470703125
-0.0062255859375
0.0098876953125
0.0047607421875
0.0040283203125
0.01025390625
0.00439453125
-0.00146484375
0.0003662109375
0.013916015625
-0.0054931640625
0.006591796875
0.03515625
-0.065185546875
0.0494384765625
-0.073974609375
0.01171875
-0.01318359375
-0.00146484375
0.005126953125
0.0069580078125
-0.029296875
0.008056640625
-0.0289306640625
-0.006591796875
0.0194091796875
-0.0069580078125
0.041015625
0.003662109375
0.0260009765625
0.01318359375
-0.003662109375
-0.006591796875
0.002197265625
-0.00732421875
0.0128173828125
0.028564453125
-0.0054931640625
0.0135498046875
0.0076904296875
0.0
0.0245361328125
-0.0054931640625
0.030029296875
-0.02490234375
0.103271484375
-0.06591796875
0.12890625
-0.0633544921875
0.093780517578125
0.0281982421875
0.009185791015625
0.062255859375
-0.097076416015625
0.052734375
-0.090850830078125
0.024169921875
-0.0523681640625
0.00439453125
-0.04248046875
0.016845703125
-0.0428466796875
-0.0032958984375
0.0029296875
0.0
0.028564453125
0.0087890625
-0.0205078125
-0.0062255859375
-0.0281982421875
0.005859375
-0.0029296875
0.012451171875
-0.00146484375
0.0032958984375
0.0087890625
0.0113525390625
-0.0076904296875
0.000732421875
-0.015380859375
-0.0201416015625
0.0662841796875
-0.0238037109375
0.027099609375
0.00439453125
-0.0684814453125
0.0164794921875
-0.0303955078125
-0.0062255859375
-0.0040283203125
0.0076904296875
-0.0164794921875
0.0098876953125
-0.032958984375
-0.00732421875
-0.0318603515625
-0.0076904296875
-0.0087890625
-0.00146484375
0.0201416015625
0.0062255859375
0.0146484375
0.0172119140625
-0.03369140625
0.0146484375
-0.032958984375
-0.00732421875
0.008056640625
-0.005859375
0.012451171875
0.008056640625
-0.0062255859375
0.0084228515625
-0.0245361328125
-0.00439453125
-0.0032958984375
-0.016845703125
0.0791015625
-0.0179443359375
0.0223388671875
0.0040283203125
-0.056396484375
0.00732421875
-0.0098876953125
-0.012451171875
0.0106201171875
0.0047607421875
-0.006591796875
0.021240234375
-0.0479736328125
0.0040283203125
-0.0333251953125
-0.0263671875
0.0303955078125
-0.0245361328125
0.05419921875
0.0032958984375
0.01171875
0.0091552734375
-0.024169921875
0.0032958984375
-0.01318359375
0.0025634765625
0.00439453125
0.0010986328125
0.0201416015625
-0.009521484375
0.030029296875
-0.0230712890625
0.0186767578125
-0.0186767578125
0.019775390625
-0.006591796875
0.0684814453125
-0.0032958984375
0.0025634765625
0.0172119140625
-0.07470703125
0.0164794921875
-0.0216064453125
-0.0172119140625
0.0157470703125
-0.0120849609375
0.0172119140625
-0.0032958984375
-0.0076904296875
-0.0098876953125
-0.01171875
-0.0032958984375
0.006591796875
-0.002197265625
0.0289306640625
0.01025390625
0.0205078125
0.01025390625
-0.0054931640625
0.0157470703125
-0.01904296875
0.0318603515625
-0.0238037109375
0.0340576171875
-0.017578125
0.0325927734375
-0.02197265625
0.028564453125
-0.0322265625
0.0333251953125
-0.0325927734375
0.022705078125
0.0260009765625
0.0076904296875
-0.008056640625
0.031494140625
-0.08203125
0.0443115234375
-0.042144775390625
0.032989501953125
-0.023101806640625
0.031158447265625
-0.0318603515625
0.01171875
-0.0333251953125
-0.0025634765625
-0.0267333984375
0.0025634765625
0.000732421875
0.025634765625
0.0113525390625
0.0289306640625
-0.0098876953125
-0.0010986328125
-0.0054931640625
-0.0069580078125
-0.0084228515625
-0.0047607421875
0.005859375
-0.0032958984375
0.029296875
-0.0032958984375
0.0157470703125
-0.0084228515625
0.002197265625
-0.0040283203125
0.0029296875
-0.0062255859375
-0.00439453125
-0.0267333984375
0.052764892578125
-0.0040283203125
0.029296875
0.0164794921875
-0.034088134765625
-0.008056640625
0.00732421875
-0.01318359375
0.0098876953125
-0.00146484375
-0.0186767578125
-0.0084228515625
-0.03076171875
-0.026031494140625
-0.0029296875
-0.022369384765625
0.027099609375
-0.025634765625
0.030059814453125
-0.03076171875
0.020538330078125
-0.0146484375
-0.0054931640625
-0.00732421875
-0.01611328125
-0.0084228515625
0.01611328125
-0.005126953125
0.025634765625
-0.0106201171875
0.0157470703125
-0.01171875
0.01904296875
-0.02783203125
0.0076904296875
-0.044677734375
0.0838623046875
-0.009521484375
0.027099609375
0.0205078125
-0.0736083984375
-0.01025390625
0.005859375
-0.008056640625
0.01171875
0.005859375
-0.01611328125
-0.0208740234375
-0.015380859375
-0.01904296875
0.0018310546875
-0.0010986328125
0.015380859375
-0.0010986328125
0.0142822265625
-0.00732421875
0.0091552734375
-0.0172119140625
0.003662109375
-0.0164794921875
0.0032958984375
-0.01318359375
0.0146484375
-0.0029296875
0.028564453125
0.0040283203125
0.01025390625
-0.00439453125
-0.005859375
-0.0223388671875
0.0106201171875
-0.030029296875
0.0706787109375
-0.013916015625
0.0274658203125
0.0010986328125
-0.0333251953125
0.0025634765625
0.01318359375
-0.0106201171875
0.01904296875
-0.009521484375
-0.00146484375
0.0018310546875
-0.028564453125
-0.0054931640625
-0.0172119140625
-0.0142822265625
0.01611328125
-0.0084228515625
0.016845703125
-0.0091552734375
0.010986328125
-0.01318359375
0.0106201171875
-0.01025390625
-0.006591796875
0.0025634765625
-0.008056640625
-0.000732421875
0.0223388671875
-0.0010986328125
0.0194091796875
-0.0047607421875
0.0142822265625
-0.013916015625
0.0234375
-0.0076904296875
0.0208740234375
-0.0010986328125
0.009521484375
0.0355224609375
-0.0413818359375
0.04833984375
-0.0582275390625
0.0421142578125
-0.041015625
0.04541015625
-0.0498046875
0.0333251953125
-0.060791015625
0.017578125
-0.05126953125
-0.0098876953125
-0.01025390625
0.000732421875
0.0069580078125
0.0234375
-0.005126953125
0.013916015625
-0.027099609375
0.012451171875
-0.046875
0.0120849609375
-0.0201416015625
0.01318359375
0.015380859375
0.002197265625
0.0296630859375
-0.021240234375
0.0413818359375
-0.0289306640625
0.04833984375
-0.0150146484375
0.041015625
-0.0029296875
0.0260009765625
0.0146484375
-0.00732421875
0.0179443359375
-0.016845703125
-0.0087890625
0.0205078125
0.0
0.0146484375
0.0054931640625
-0.032958984375
-0.0142822265625
-0.0439453125
-0.0322265625
0.0025634765625
-0.0428466796875
0.0567626953125
-0.0216064453125
0.054931640625
0.00439453125
0.0010986328125
-0.0047607421875
-0.0029296875
-0.0047607421875
0.02490234375
0.013916015625
0.01611328125
0.00732421875
0.00146484375
0.0
-0.0003662109375
-0.005859375
0.0069580078125
-0.010986328125
-0.0003662109375
-0.01318359375
0.0263671875
0.005859375
-0.003662109375
0.025634765625
-0.046142578125
0.0076904296875
-0.006591796875
0.006591796875
-0.003662109375
0.0157470703125
-0.0234375
0.0018310546875
-0.0263671875
-0.006591796875
-0.01025390625
0.000732421875
0.021240234375
-0.002197265625
0.040283203125
-0.0091552734375
0.0098876953125
-0.0186767578125
-0.002197265625
-0.0172119140625
0.0267333984375
-0.0032958984375
0.030029296875
-0.0018310546875
0.01611328125
0.0018310546875
0.008056640625
0.01318359375
-0.0084228515625
0.0054931640625
-0.043212890625
-0.017578125
0.0322265625
-0.00439453125
0.032958984375
0.00146484375
-0.0252685546875
-0.018310546875
0.0234375
-0.017578125
0.0186767578125
0.00439453125
-0.016845703125
0.0157470703125
-0.038818359375
0.002197265625
-0.0194091796875
-0.0135498046875
0.03369140625
-0.0091552734375
0.0435791015625
0.0032958984375
-0.005859375
0.0018310546875
-0.0230712890625
-0.0047607421875
0.005859375
-0.0069580078125
0.0186767578125
0.0032958984375
0.005859375
0.0098876953125
-0.0113525390625
0.0150146484375
-0.01904296875
-0.0003662109375
-0.0252685546875
-0.0238037109375
0.062255859375
0.0054931640625
0.02490234375
0.0179443359375
-0.06298828125
-0.002197265625
-0.005859375
0.0
-0.0025634765625
0.015380859375
-0.0245361328125
0.0208740234375
-0.0380859375
0.0087890625
-0.0311279296875
-0.0098876953125
0.0186767578125
-0.0040283203125
0.050537109375
0.01171875
0.0194091796875
0.013916015625
-0.0164794921875
0.017578125
-0.0208740234375
0.0194091796875
-0.0032958984375
0.028564453125
-0.003662109375
0.0172119140625
-0.0087890625
-0.00732421875
0.000732421875
-0.022705078125
0.00146484375
-0.025634765625
0.0772705078125
-0.0047607421875
0.02783203125
0.0150146484375
-0.0640869140625
0.0186767578125
-0.0201416015625
0.0194091796875
-0.01904296875
0.0142822265625
-0.0303955078125
0.005859375
-0.049072265625
-0.0087890625
-0.0263671875
-0.0179443359375
0.0245361328125
0.00439453125
0.0186767578125
0.0296630859375
-0.01318359375
0.028564453125
-0.0252685546875
0.0205078125
-0.0355224609375
0.0208740234375
-0.030029296875
0.024169921875
-0.0106201171875
0.018310546875
-0.0018310546875
0.00732421875
0.003662109375
-0.009521484375
0.0098876953125
-0.005859375
0.0567626953125
-0.0098876953125
0.0062255859375
-0.0076904296875
-0.0556640625
0.0150146484375
-0.0230712890625
0.0047607421875
-0.005859375
-0.01611328125
0.0069580078125
-0.01611328125
-0.02490234375
-0.0150146484375
-0.0355224609375
-0.0216064453125
0.0091552734375
-0.0091552734375
0.0311279296875
-0.0047607421875
0.0179443359375
-0.01171875
0.016845703125
-0.018310546875
0.0076904296875
-0.027099609375
0.0062255859375
-0.0084228515625
0.01171875
-0.0003662109375
0.0135498046875
-0.0084228515625
0.0164794921875
-0.02490234375
0.0238037109375
-0.031494140625
-0.002197265625
-0.02783203125
0.037353515625
0.0087890625
0.0201416015625
0.0238037109375
-0.0377197265625
-0.0076904296875
0.0120849609375
-0.0106201171875
0.0164794921875
-0.009521484375
-0.0146484375
-0.0010986328125
-0.028564453125
0.0040283203125
-0.0054931640625
0.0128173828125
0.005126953125
0.010986328125
0.002197265625
-0.00732421875
0.000732421875
-0.00439453125
-0.01904296875
0.0087890625
-0.0245361328125
0.00732421875
0.0018310546875
0.006591796875
0.00732421875
0.0087890625
-0.0054931640625
-0.00146484375
-0.0032958984375
-0.019775390625
0.0003662109375
-0.0238037109375
0.08203125
-0.0047607421875
0.0340576171875
0.0120849609375
-0.0626220703125
0.002197265625
-0.0029296875
0.0032958984375
-0.000732421875
-0.0010986328125
-0.013916015625
-0.010986328125
-0.01025390625
-0.0054931640625
-0.0062255859375
-0.00146484375
0.0091552734375
0.0076904296875
0.015380859375
0.000732421875
0.0062255859375
-0.0164794921875
0.00146484375
0.00439453125
-0.0205078125
0.0128173828125
-0.017578125
-0.0142822265625
0.0311279296875
-0.017578125
0.0281982421875
-0.0025634765625
-0.002197265625
-0.01318359375
0.0062255859375
-0.0208740234375
0.04248046875
-0.0205078125
0.02490234375
0.00146484375
-0.029296875
0.0150146484375
-0.0303955078125
-0.01318359375
-0.0010986328125
0.0029296875
-0.0146484375
0.0340576171875
-0.0611572265625
0.0201416015625
-0.0501708984375
-0.0018310546875
-0.000732421875
0.0032958984375
0.021240234375
0.01171875
0.005859375
0.0230712890625
-0.025634765625
0.008056640625
-0.017578125
-0.00146484375
0.01025390625
0.016845703125
0.0069580078125
0.0205078125
-0.0003662109375
0.009521484375
0.0076904296875
-0.0010986328125
0.01025390625
-0.0157470703125
0.0289306640625
-0.0205078125
0.0355224609375
0.000732421875
-0.0076904296875
0.0113525390625
-0.018310546875
-0.0054931640625
0.0164794921875
-0.0087890625
0.0238037109375
0.005859375
-0.002197265625
-0.002197265625
-0.00146484375
-0.021240234375
0.0362548828125
-0.025634765625
0.0655517578125
-0.01025390625
0.04833984375
0.010986328125
0.0029296875
-0.003662109375
-0.00732421875
-0.012451171875
0.017578125
0.012451171875
0.0216064453125
0.01171875
0.0062255859375
0.00146484375
0.0018310546875
0.0003662109375
-0.0010986328125
-0.0146484375
-0.0120849609375
-0.0263671875
0.047607421875
0.002197265625
0.0325927734375
0.01025390625
-0.0245361328125
-0.016845703125
0.01171875
-0.01318359375
0.01025390625
0.008056640625
-0.0201416015625
0.0113525390625
-0.0380859375
-0.0032958984375
-0.0172119140625
-0.0091552734375
0.016845703125
0.0076904296875
0.0194091796875
0.01611328125
-0.01318359375
0.0120849609375
-0.0303955078125
-0.0029296875
0.0003662109375
-0.0010986328125
0.013916015625
0.0087890625
-0.0032958984375
0.01171875
-0.008056640625
0.012451171875
-0.010986328125
-0.0076904296875
-0.0289306640625
-0.0186767578125
0.0523681640625
0.0113525390625
0.0113525390625
0.02197265625
-0.0758056640625
0.0047607421875
-0.0186767578125
0.0029296875
-0.0106201171875
0.016845703125
-0.0322265625
0.0179443359375
-0.047607421875
-0.0018310546875
-0.0289306640625
-0.0047607421875
0.0054931640625
0.0003662109375
0.0274658203125
0.0098876953125
0.0047607421875
0.0062255859375
-0.0205078125
-0.00146484375
-0.01318359375
-0.006591796875
0.0157470703125
0.0076904296875
0.01171875
0.02490234375
-0.0223388671875
0.015380859375
-0.02490234375
-0.01025390625
0.01611328125
-0.022705078125
0.0948486328125
-0.010986328125
0.027099609375
0.009521484375
-0.0640869140625
0.01025390625
-0.0087890625
-0.010986328125
0.0234375
-0.005126953125
0.005126953125
0.018310546875
-0.0303955078125
0.021240234375
-0.0303955078125
-0.008056640625
0.0274658203125
-0.027099609375
0.0677490234375
-0.0340576171875
0.0618896484375
-0.0274658203125
0.0289306640625
-0.0113525390625
0.0040283203125
-0.0069580078125
0.0069580078125
0.0047607421875
0.005859375
0.003662109375
0.0106201171875
-0.0032958984375
0.015380859375
0.0018310546875
0.0062255859375
0.0
0.0062255859375
-0.0047607421875
0.024169921875
0.0252685546875
-0.027099609375
0.0399169921875
-0.057861328125
0.021240234375
-0.02197265625
0.0296630859375
-0.025634765625
0.0347900390625
-0.0479736328125
0.019775390625
-0.0552978515625
0.010986328125
-0.035888671875
0.01171875
-0.0040283203125
0.0135498046875
0.0040283203125
0.0029296875
-0.003662109375
-0.005859375
-0.0098876953125
-0.00732421875
-0.0054931640625
-0.005859375
0.0150146484375
0.0010986328125
0.009521484375
0.0084228515625
-0.0076904296875
0.005859375
-0.0106201171875
-0.012451171875
-0.0113525390625
-0.0164794921875
0.0582275390625
-0.0040283203125
0.0157470703125
0.0029296875
-0.05419921875
-0.000732421875
0.0084228515625
-0.0003662109375
0.008056640625
0.0076904296875
-0.01904296875
0.003662109375
-0.030029296875
-0.010986328125
-0.0106201171875
-0.010986328125
0.0146484375
0.0010986328125
0.0113525390625
0.0
0.0003662109375
-0.0054931640625
-0.00439453125
-0.0032958984375
-0.017578125
-0.005859375
-0.009521484375
-0.0069580078125
0.018310546875
-0.002197265625
0.0186767578125
-0.0062255859375
0.00732421875
-0.0091552734375
0.0003662109375
-0.01611328125
-0.0238037109375
-0.025634765625
0.0487060546875
0.0047607421875
0.030029296875
0.0245361328125
-0.0498046875
-0.013916015625
0.006591796875
-0.0157470703125
0.01904296875
-0.0054931640625
-0.000732421875
-0.0128173828125
-0.0150146484375
-0.0062255859375
0.0040283203125
-0.00439453125
0.0186767578125
0.005859375
-0.0010986328125
0.002197265625
-0.00439453125
-0.0062255859375
-0.0087890625
0.0018310546875
-0.0205078125
0.0084228515625
-0.0084228515625
0.0018310546875
0.0142822265625
-0.0106201171875
0.0245361328125
-0.0172119140625
0.0194091796875
-0.0263671875
0.00732421875
-0.0040283203125
0.0406494140625
0.0146484375
-0.0120849609375
0.010986328125
-0.068115234375
0.0032958984375
-0.00439453125
-0.0098876953125
0.017578125
-0.0054931640625
-0.0032958984375
0.0
-0.0325927734375
-0.0047607421875
-0.0172119140625
-0.015380859375
0.013916015625
-0.01611328125
0.0238037109375
0.0142822265625
-0.008056640625
0.0179443359375
-0.0205078125
0.0029296875
-0.017578125
0.01904296875
-0.031494140625
0.0087890625
0.01318359375
-0.0157470703125
0.041748046875
-0.021240234375
0.029296875
-0.012451171875
0.0128173828125
-0.00732421875
-0.016845703125
-0.0047607421875
0.053466796875
0.010986328125
0.006591796875
0.016845703125
-0.0732421875
0.0
-0.00732421875
-0.008056640625
0.000732421875
-0.009521484375
-0.0098876953125
-0.00439453125
-0.0201416015625
-0.0040283203125
-0.0025634765625
-0.0120849609375
0.0208740234375
-0.0069580078125
0.0234375
0.0
0.01025390625
-0.0003662109375
-0.0062255859375
0.0076904296875
-0.0311279296875
0.0142822265625
-0.018310546875
0.01171875
0.0135498046875
0.0047607421875
0.0135498046875
0.0040283203125
-0.0029296875
0.0106201171875
-0.01611328125
0.0003662109375
-0.0296630859375
-0.0186767578125
0.0435791015625
0.00439453125
0.0281982421875
0.0274658203125
-0.049072265625
0.0098876953125
-0.0029296875
0.006591796875
0.0098876953125
0.0069580078125
-0.0128173828125
-0.003662109375
-0.017578125
-0.01611328125
0.012451171875
-0.0230712890625
0.040283203125
0.0010986328125
0.02490234375
0.0120849609375
-0.0010986328125
0.00146484375
-0.0263671875
0.006591796875
-0.0208740234375
0.008056640625
0.01611328125
0.0029296875
0.0201416015625
-0.0018310546875
0.012451171875
-0.00439453125
0.0098876953125
-0.013916015625
0.0054931640625
0.000732421875
0.0648193359375
0.0205078125
0.005859375
0.01025390625
-0.0556640625
-0.00146484375
0.0216064453125
-0.025634765625
0.04541015625
-0.02197265625
0.029296875
-0.00146484375
-0.0025634765625
-0.005126953125
-0.005126953125
-0.005859375
0.015380859375
0.003662109375
0.030029296875
0.019775390625
0.00732421875
0.0172119140625
-0.024169921875
-0.005126953125
-0.0142822265625
-0.0040283203125
0.0098876953125
0.0172119140625
0.0157470703125
0.013916015625
0.0135498046875
0.0054931640625
0.01318359375
-0.0003662109375
0.021240234375
-0.010986328125
0.002197265625
-0.022705078125
0.064483642578125
0.005126953125
0.0303955078125
0.022705078125
-0.046905517578125
0.008056640625
0.0025634765625
0.005126953125
0.0146484375
-0.0003662109375
0.0113525390625
-0.0025634765625
0.0032958984375
-0.0084228515625
0.015380859375
-0.01171875
0.039215087890625
-0.006591796875
0.041412353515625
0.00439453125
0.01171875
0.0087890625
-0.0146484375
0.0032958984375
-0.0029296875
-0.0054931640625
0.027099609375
-0.0003662109375
0.0289306640625
0.005126953125
0.01171875
-0.003662109375
0.01171875
-0.019775390625
0.0201416015625
-0.0238037109375
0.0263671875
-0.00439453125
0.0164794921875
0.0263671875
-0.034423828125
0.019775390625
-0.0369873046875
-0.0106201171875
0.005859375
-0.0062255859375
0.003662109375
0.0062255859375
-0.017578125
0.0
-0.0186767578125
-0.010986328125
0.0032958984375
-0.0069580078125
0.017578125
0.005126953125
0.010986328125
0.005126953125
-0.009521484375
0.0003662109375
-0.02783203125
-0.0054931640625
-0.0146484375
-0.0047607421875
0.0098876953125
0.0032958984375
0.0084228515625
0.0047607421875
-0.0003662109375
-0.0069580078125
0.0040283203125
-0.0172119140625
0.009521484375
-0.0029296875
0.049072265625
-0.0040283203125
-0.00439453125
-0.00439453125
-0.06884765625
-0.0018310546875
-0.0245361328125
-0.010986328125
-0.0040283203125
-0.005859375
-0.0076904296875
-0.00439453125
-0.0234375
-0.000732421875
-0.028961181640625
-0.00439453125
-0.007354736328125
-0.01171875
0.018341064453125
0.0010986328125
0.008819580078125
0.0010986328125
-0.006591796875
-0.0076904296875
-0.017608642578125
-0.00439453125
-0.008453369140625
0.0069580078125
0.002197265625
0.0106201171875
-0.0164794921875
0.0194091796875
-0.0355224609375
0.0274658203125
-0.0355224609375
0.0025634765625
-0.02197265625
-0.0091552734375
0.0531005859375
0.0128173828125
-0.0047607421875
0.0076904296875
-0.0743408203125
0.0018310546875
-0.01318359375
-0.0040283203125
-0.0032958984375
-0.0018310546875
-0.0208740234375
0.0172119140625
-0.0413818359375
-0.0040283203125
-0.01611328125
-0.017578125
0.0179443359375
-0.0025634765625
0.022705078125
0.0018310546875
0.0010986328125
0.0
-0.01171875
0.0120849609375
-0.02783203125
0.008056640625
-0.016845703125
-0.0076904296875
0.0223388671875
-0.0062255859375
0.025634765625
-0.003662109375
0.0084228515625
-0.0003662109375
-0.000732421875
-0.0087890625
-0.0216064453125
-0.0142822265625
0.0567626953125
0.015380859375
0.005859375
0.0274658203125
-0.0831298828125
-0.003662109375
0.0032958984375
-0.01025390625
0.00439453125
0.01171875
-0.034423828125
0.018310546875
-0.0498046875
0.0087890625
-0.03076171875
-0.00439453125
0.0018310546875
-0.0018310546875
0.01318359375
-0.0025634765625
0.0076904296875
-0.013916015625
0.005126953125
-0.005126953125
-0.0157470703125
0.012451171875
-0.01904296875
0.0062255859375
0.009521484375
-0.0032958984375
0.008056640625
-0.0032958984375
0.0018310546875
-0.0091552734375
0.0106201171875
-0.02197265625
-0.0128173828125
-0.017578125
0.05712890625
0.015380859375
0.0069580078125
0.0322265625
-0.0838623046875
-0.0018310546875
0.003662109375
-0.0205078125
0.02197265625
0.00146484375
-0.0146484375
0.0069580078125
-0.031494140625
-0.0106201171875
0.003662109375
-0.0113525390625
0.027099609375
0.012451171875
0.0032958984375
0.01611328125
-0.0113525390625
0.0
-0.000732421875
0.0010986328125
-0.0146484375
-0.0040283203125
-0.0087890625
-0.0135498046875
0.0311279296875
-0.0084228515625
0.0230712890625
0.002197265625
0.000732421875
0.0135498046875
-0.00439453125
0.0
-0.032958984375
-0.0084228515625
0.0443115234375
0.0135498046875
0.013916015625
0.0230712890625
-0.06591796875
-0.0054931640625
0.0098876953125
-0.013916015625
0.0142822265625
-0.0029296875
-0.0142822265625
-0.0025634765625
-0.022705078125
-0.00439453125
0.0
-0.0087890625
0.019775390625
0.01318359375
0.00146484375
0.0194091796875
-0.0179443359375
-0.005126953125
-0.0084228515625
0.0
-0.0194091796875
0.009521484375
-0.0230712890625
0.0047607421875
0.0128173828125
0.01025390625
0.0087890625
0.0146484375
-0.0186767578125
0.016845703125
-0.0245361328125
0.0025634765625
-0.02783203125
-0.0234375
0.076171875
0.00146484375
0.0369873046875
0.01611328125
-0.0574951171875
-0.0208740234375
0.0186767578125
-0.0208740234375
0.028564453125
0.0047607421875
-0.0098876953125
0.0106201171875
-0.0391845703125
-0.002197265625
-0.0113525390625
-0.015380859375
0.0377197265625
-0.0091552734375
0.046875
-0.003662109375
0.02783203125
-0.0040283203125
-0.005859375
-0.00732421875
-0.01318359375
0.003662109375
0.006591796875
0.021240234375
0.0018310546875
0.017578125
-0.008056640625
0.0135498046875
-0.0120849609375
0.0032958984375
-0.0106201171875
-0.0205078125
0.0421142578125
-0.016845703125
0.04541015625
