-0.749725341796875
0.747894287109375
-0.749725341796875
-0.749725341796875
0.0
0.0010986328125
0.0
1.0
0.0
-0.0010986328125
0.0
-1.0
0.046905517578125
0.0003662109375
0.093780517578125
1.0
0.0860595703125
0.0
0.0655517578125
0.0
0.052001953125
0.0
0.0703125
-0.0003662109375
0.073974609375
0.0
0.106231689453125
0.0003662109375
0.116119384765625
0.0
0.0655517578125
0.0
-0.080230712890625
0.0
-0.0194091796875
0.0
0.281646728515625
0.0
0.331451416015625
0.0003662109375
0.45379638671875
0.0003662109375
0.72259521484375
0.0003662109375
0.46917724609375
0.0003662109375
0.063385009765625
-0.0003662109375
0.0
0.0
0.0
0.0
0.0
0.0
-0.0223388671875
0.0
-0.41827392578125
-0.0003662109375
-1.0
-0.0003662109375
-1.0
-1.0
-0.272491455078125
0.0003662109375
0.251983642578125
1.0
0.662200927734375
-1.0
0.653045654296875
0.0010986328125
0.434356689453125
1.0
-0.686737060546875
-0.0010986328125
-1.0
-0.000732421875
-0.218292236328125
-0.041046142578125
0.0
-1.0
0.0
-0.69219970703125
0.282012939453125
1.0
0.41058349609375
0.733245849609375
0.232208251953125
0.0
0.154541015625
0.0
0.0626220703125
0.0003662109375
0.005126953125
0.0
-0.0421142578125
-0.0003662109375
-0.1051025390625
0.0
-0.056396484375
-1.0
-0.049072265625
-1.0
-0.0146484375
0.0
0.08203125
0.0
0.169219970703125
0.0
0.191192626953125
0.0
0.0728759765625
0.0
-0.000732421875
0.0
-0.024169921875
0.0
-0.019775390625
0.0
-0.0106201171875
0.0
0.0018310546875
0.0
0.0087890625
0.0
0.0157470703125
0.0
-0.019775390625
0.0
-0.035888671875
0.0
-0.003662109375
0.0
0.002197265625
0.0
0.0003662109375
0.0
-0.000732421875
0.0
-0.006591796875
0.0
-0.006591796875
0.0
-0.008056640625
0.0
-0.0029296875
0.0
-0.0069580078125
0.0
-0.0091552734375
0.0
-0.0040283203125
0.0
-0.0032958984375
0.0
-0.0029296875
0.0
0.00146484375
0.0
0.0106201171875
0.0
0.00732421875
0.0
0.00439453125
0.0
0.0106201171875
0.0
0.005859375
0.0
0.0010986328125
0.0
0.0032958984375
0.0
-0.0025634765625
0.0
0.000732421875
0.0
0.01025390625
0.0076904296875
0.002197265625
0.005859375
-0.0205078125
0.0194091796875
-0.0076904296875
-0.005859375
0.008056640625
-0.027099609375
-0.005859375
0.0
0.002197265625
0.0
0.010986328125
0.0
0.0010986328125
0.0
-0.003662109375
0.0
0.0
0.0
0.0029296875
0.0
0.0047607421875
0.0
0.0010986328125
0.0
0.0025634765625
0.008056640625
0.012451171875
0.01611328125
0.009521484375
0.033721923828125
0.000732421875
0.026031494140625
0.005859375
0.0201416015625
0.008056640625
0.0311279296875
0.005859375
0.02490234375
0.0040283203125
0.0450439453125
-0.00146484375
0.05419921875
-0.0069580078125
0.057861328125
-0.009521484375
0.0501708984375
0.0003662109375
0.0347900390625
0.0062255859375
0.027099609375
0.0084228515625
0.0391845703125
0.009521484375
0.090087890625
0.017578125
0.073638916015625
-0.00439453125
0.050567626953125
-0.0135498046875
0.005859375
0.0135498046875
-0.037353515625
0.00732421875
-0.030792236328125
0.0003662109375
-0.016143798828125
0.0
-0.00732421875
-0.005859375
-0.0289306640625
-0.01025390625
-0.017578125
-0.005126953125
-0.0091552734375
0.0120849609375
0.0047607421875
0.01171875
0.012451171875
0.0018310546875
0.0084228515625
0.0003662109375
0.0054931640625
-0.005859375
0.01171875
-0.00146484375
0.0146484375
0.0010986328125
0.00732421875
0.002197265625
0.0186767578125
0.0025634765625
0.017608642578125
-0.002197265625
0.021270751953125
-0.0029296875
0.01025390625
0.000732421875
0.01318359375
0.0062255859375
0.0216064453125
0.0018310546875
0.015380859375
-0.0025634765625
0.0194091796875
-0.005126953125
0.0252685546875
-0.0032958984375
0.053466796875
0.00732421875
0.044677734375
0.0087890625
0.040283203125
-0.0010986328125
0.0479736328125
-0.00439453125
0.03955078125
0.0087890625
0.05712890625
0.0084228515625
0.0794677734375
0.0040283203125
0.126373291015625
-0.0098876953125
0.055328369140625
0.0040283203125
-0.0362548828125
0.03662109375
-0.041778564453125
0.0120849609375
-0.0164794921875
-0.0164794921875
0.043243408203125
-0.0135498046875
0.0450439453125
-0.00439453125
0.0234375
-0.0062255859375
0.00146484375
-0.0032958984375
0.02490234375
0.0025634765625
0.05859375
0.0032958984375
0.0615234375
0.009521484375
0.030029296875
0.0098876953125
0.0113525390625
-0.0003662109375
0.029296875
-0.003662109375
0.0296630859375
0.0
0.029296875
0.0025634765625
0.0260009765625
0.0087890625
0.01171875
0.0146484375
0.005126953125
0.0062255859375
0.110260009765625
-0.0025634765625
0.221221923828125
-0.0003662109375
0.0787353515625
0.0040283203125
-0.1278076171875
-0.0054931640625
-0.208770751953125
-0.0296630859375
-0.258575439453125
-0.0252685546875
-0.396270751953125
-0.0054931640625
-0.48236083984375
0.0179443359375
-0.289337158203125
0.0281982421875
-0.179107666015625
-0.0025634765625
-0.117218017578125
-0.02197265625
0.0
-0.0098876953125
0.0
0.005126953125
0.0
0.0113525390625
0.0
0.0
0.0
-0.0135498046875
0.0
-0.016845703125
0.0
-0.0098876953125
0.0
-0.0018310546875
0.0
0.0040283203125
0.0
0.0106201171875
0.0
0.010986328125
0.0
0.0146484375
0.076202392578125
0.006591796875
0.46624755859375
-0.00146484375
0.53143310546875
-0.0040283203125
0.0523681640625
0.00732421875
-0.31170654296875
0.0322265625
-0.51861572265625
0.0322265625
-0.295928955078125
0.0029296875
0.0
-0.0098876953125
0.0
-0.0106201171875
0.0
-0.0238037109375
0.0
-0.0333251953125
0.0
-0.0377197265625
0.0
-0.0076904296875
0.0
0.0120849609375
0.0
-0.0703125
0.0
-0.043212890625
0.0
0.1212158203125
0.0
0.250152587890625
0.0
0.243194580078125
0.0
0.0941162109375
1.0
-0.063720703125
1.0
-0.08056640625
-1.0
-0.0146484375
-1.0
-0.0047607421875
0.0
-0.0018310546875
1.0
-0.105499267578125
0.0
-0.167022705078125
-1.0
-0.1036376953125
0.0
0.02783203125
0.000732421875
0.0128173828125
1.0
-0.769134521484375
0.088287353515625
-0.714935302734375
-0.0003662109375
0.0
1.0
0.0
0.0
0.0
0.0003662109375
0.0
-0.0003662109375
0.0
0.0
0.0
0.0
0.0
0.0
0.0
0.0003662109375
0.51165771484375
0.0010986328125
0.721160888671875
0.0
0.39520263671875
-0.000732421875
0.324859619140625
0.0003662109375
0.2186279296875
0.0
0.1080322265625
0.0
0.018310546875
0.0
-0.1322021484375
0.0
0.094146728515625
0.0
0.275787353515625
0.0
0.08935546875
0.0
0.062255859375
0.0003662109375
0.0574951171875
0.0
0.04541015625
0.0
0.015380859375
0.0
0.022705078125
-0.0003662109375
0.0179443359375
0.0
-0.005126953125
0.0
0.01611328125
0.0
0.005126953125
0.0003662109375
-0.0084228515625
0.0003662109375
-0.012451171875
-0.0003662109375
-0.0208740234375
0.0
-0.0194091796875
0.0003662109375
-0.01318359375
-0.0003662109375
-0.02490234375
-0.0003662109375
-0.0380859375
0.0003662109375
-0.01171875
0.0
-0.013916015625
-0.0003662109375
-0.029296875
0.0003662109375
-0.0439453125
0.0
-0.060791015625
-0.0003662109375
-0.030029296875
0.0
0.0018310546875
0.0
0.013916015625
0.0
0.0040283203125
0.0
-0.005126953125
0.0
-0.00146484375
0.0
0.000732421875
0.0
-0.000732421875
0.0
-0.01171875
0.0
-0.00732421875
0.0
-0.0029296875
0.0
-0.0135498046875
0.0
-0.027099609375
0.0
-0.0322265625
0.0
-0.019775390625
0.0
-0.01611328125
0.0
-0.018310546875
0.0
-0.0194091796875
0.0
-0.021270751953125
0.0
-0.022735595703125
0.0003662109375
-0.016845703125
0.0
-0.0281982421875
-0.0003662109375
-0.0263671875
0.0
-0.0106201171875
0.0
-0.017578125
0.0
-0.0194091796875
0.0
-0.019775390625
0.0
-0.0201416015625
0.0
-0.0172119140625
-0.039215087890625
-0.02197265625
-0.086822509765625
-0.0311279296875
-0.101806640625
-0.0333251953125
-0.090087890625
-0.0289306640625
-0.040283203125
-0.025634765625
-0.0186767578125
-0.0252685546875
-0.047607421875
-0.0238037109375
-0.05859375
-0.024169921875
-0.0498046875
-0.0216064453125
-0.0421142578125
-0.0186767578125
-0.0355224609375
-0.0179443359375
-0.034088134765625
-0.0179443359375
-0.041778564453125
-0.0172119140625
-0.0465087890625
-0.0146484375
-0.046875
-0.0135498046875
-0.0391845703125
-0.015380859375
-0.0296630859375
-0.01318359375
-0.0384521484375
-0.009552001953125
-0.03955078125
-0.013214111328125
-0.030029296875
-0.0106201171875
-0.027099609375
-0.01025390625
-0.019775390625
-0.0267333984375
-0.0252685546875
-0.021240234375
-0.0552978515625
-0.0032958984375
0.0186767578125
-0.000732421875
0.0003662109375
-0.0025634765625
-0.062255859375
-0.003662109375
-0.022705078125
-0.005859375
-0.0252685546875
-0.0091552734375
-0.01904296875
-0.00732421875
-0.016143798828125
-0.00146484375
-0.023101806640625
-0.0047607421875
-0.0322265625
-0.0146484375
-0.0223388671875
-0.0120849609375
-0.0010986328125
-0.0054931640625
-0.0003662109375
-0.0029296875
-0.015380859375
-0.003662109375
-0.0223388671875
-0.0069580078125
-0.003662109375
-0.0087890625
0.0098876953125
-0.0076904296875
-0.003662109375
-0.000732421875
-0.029296875
-0.0018310546875
-0.0311279296875
-0.02197265625
0.0
-0.0245361328125
-0.0135498046875
-0.0032958984375
0.005859375
0.005859375
-0.0223388671875
0.0150146484375
-0.0889892578125
0.0128173828125
-0.0545654296875
0.0018310546875
0.00732421875
-0.0047607421875
0.038818359375
-0.009521484375
0.0201416015625
-0.0076904296875
0.0003662109375
-0.012451171875
0.002197265625
-0.0120849609375
0.0113525390625
-0.0054931640625
0.002197265625
-0.000732421875
-0.0069580078125
-0.00146484375
-0.0018310546875
-0.005126953125
0.009521484375
-0.00439453125
0.0091552734375
-0.00439453125
0.0029296875
-0.0018310546875
-0.0087890625
-0.0010986328125
-0.0069580078125
-0.0157470703125
0.02490234375
-0.0179443359375
0.00146484375
-0.0025634765625
0.0062255859375
0.005859375
0.052734375
0.0098876953125
-0.021240234375
0.009521484375
-0.053466796875
0.00732421875
-0.01171875
0.0029296875
-0.0032958984375
-0.00146484375
0.008056640625
0.0029296875
0.00732421875
0.0087890625
-0.0098876953125
0.0010986328125
-0.0150146484375
-0.002197265625
-0.0003662109375
0.0040283203125
0.0025634765625
0.0040283203125
0.00439453125
0.0062255859375
-0.0025634765625
0.0054931640625
-0.00439453125
0.000732421875
0.0029296875
0.0
0.0010986328125
-0.0003662109375
0.0029296875
-0.0018310546875
0.0076904296875
0.0029296875
-0.002197265625
0.005126953125
-0.0216064453125
0.00146484375
-0.0076904296875
0.00439453125
-0.0032958984375
0.0025634765625
0.008056640625
-0.01025390625
0.03662109375
-0.0150146484375
-0.003662109375
-0.00146484375
-0.041748046875
0.0029296875
0.0472412109375
0.0025634765625
0.0281982421875
0.003662109375
-0.03955078125
-0.000732421875
0.0018310546875
0.0003662109375
0.0
-0.0003662109375
-0.0054931640625
-0.0025634765625
-0.000732421875
-0.005859375
0.0098876953125
-0.005126953125
0.002197265625
-0.0032958984375
-0.006591796875
-0.005126953125
0.0040283203125
-0.0040283203125
-0.0003662109375
-0.003662109375
0.0018310546875
-0.00439453125
0.0106201171875
-0.003662109375
0.006591796875
-0.00439453125
0.0018310546875
-0.00732421875
-0.002197265625
-0.0069580078125
-0.0010986328125
-0.0040283203125
-0.010986328125
-0.008056640625
-0.0135498046875
-0.010986328125
-0.0029296875
-0.0084228515625
-0.003662109375
-0.005859375
0.0010986328125
-0.0113525390625
0.017578125
-0.0201416015625
-0.0047607421875
-0.0062255859375
-0.0443115234375
0.00732421875
0.05126953125
0.0084228515625
0.029296875
0.0062255859375
-0.046142578125
0.0003662109375
0.005859375
0.00146484375
0.002197265625
0.002197265625
0.0076904296875
0.0018310546875
0.005859375
0.002197265625
-0.0087890625
-0.002197265625
-0.0087890625
-0.0029296875
-0.0010986328125
0.0
0.01171875
-0.00146484375
0.01025390625
-0.00146484375
-0.0003662109375
-0.0003662109375
-0.0054931640625
0.002197265625
-0.0047607421875
0.0018310546875
-0.00146484375
-0.000732421875
-0.00146484375
-0.0018310546875
-0.0025634765625
-0.00146484375
0.000732421875
0.0
0.0062255859375
0.0003662109375
-0.0018310546875
0.0003662109375
-0.0106201171875
0.0010986328125
-0.0091552734375
0.00146484375
0.00146484375
-0.0003662109375
0.0047607421875
0.000732421875
-0.00146484375
-0.000732421875
0.0003662109375
-0.000732421875
0.0
0.002197265625
-0.000732421875
0.002197265625
-0.0084228515625
0.002197265625
0.0047607421875
-0.008056640625
0.0450439453125
-0.01171875
0.030029296875
0.0054931640625
0.0
0.01025390625
-0.0501708984375
0.0003662109375
-0.050537109375
-0.002197265625
0.008056640625
-0.0018310546875
0.0091552734375
-0.002197265625
-0.01025390625
-0.0018310546875
-0.0245361328125
-0.0025634765625
-0.0252685546875
0.0018310546875
-0.0128173828125
0.0047607421875
0.0252685546875
0.0025634765625
0.0322265625
0.0018310546875
0.0084228515625
-0.0003662109375
0.0003662109375
-0.0003662109375
0.0069580078125
0.0029296875
0.000732421875
0.00439453125
-0.005859375
0.0
0.006591796875
-0.003662109375
0.0087890625
-0.000732421875
0.002197265625
0.00146484375
-0.0047607421875
0.0018310546875
-0.005859375
0.00146484375
0.0
-0.0010986328125
0.01025390625
-0.0025634765625
0.005126953125
0.000732421875
-0.00439453125
0.0032958984375
-0.002197265625
0.0003662109375
0.00146484375
-0.0018310546875
0.00439453125
-0.0003662109375
-0.0010986328125
0.0018310546875
-0.0047607421875
0.000732421875
-0.0054931640625
0.000732421875
-0.005859375
0.0018310546875
0.0003662109375
-0.005126953125
0.021240234375
-0.015380859375
0.0091552734375
-0.00439453125
-0.0216064453125
0.01025390625
0.03662109375
0.0084228515625
0.0091552734375
0.0054931640625
-0.0435791015625
0.00146484375
-0.00732421875
-0.0003662109375
0.0010986328125
0.00146484375
0.005126953125
0.0010986328125
0.000732421875
0.0003662109375
-0.0069580078125
-0.0010986328125
-0.016845703125
-0.0018310546875
-0.0091552734375
0.0010986328125
0.01171875
0.0029296875
0.0091552734375
0.0003662109375
-0.0029296875
0.000732421875
-0.0029296875
0.0018310546875
-0.000732421875
0.0
0.0047607421875
0.0
0.002197265625
-0.0018310546875
-0.00146484375
0.00146484375
-0.0032958984375
0.003662109375
-0.00439453125
0.0010986328125
-0.0003662109375
0.002197265625
-0.005126953125
0.00146484375
0.00146484375
-0.0106201171875
0.0230712890625
-0.015380859375
-0.010986328125
-0.0029296875
-0.0205078125
0.0047607421875
0.0428466796875
0.01171875
0.0084228515625
0.01171875
-0.0333251953125
0.005126953125
-0.0098876953125
0.0018310546875
-0.009521484375
0.0
-0.0032958984375
0.000732421875
0.00732421875
0.00146484375
0.0054931640625
-0.002197265625
-0.012451171875
-0.005859375
-0.0120849609375
-0.0010986328125
0.0054931640625
0.00146484375
0.009521484375
0.0003662109375
0.0062255859375
0.0003662109375
-0.0032958984375
-0.00146484375
-0.0032958984375
0.000732421875
0.0032958984375
0.0054931640625
-0.0025634765625
-0.0003662109375
0.013916015625
-0.018310546875
0.00439453125
-0.0142822265625
-0.0281982421875
0.008056640625
0.0413818359375
0.01611328125
0.0164794921875
0.010986328125
-0.0413818359375
0.000732421875
-0.003662109375
-0.0018310546875
-0.005126953125
-0.000732421875
-0.003662109375
0.0025634765625
0.005126953125
0.0047607421875
0.0010986328125
-0.0029296875
-0.0087890625
-0.005859375
-0.0032958984375
-0.0025634765625
0.006591796875
-0.00146484375
0.005859375
-0.000732421875
-0.0032958984375
-0.000732421875
-0.00146484375
-0.0003662109375
0.00146484375
0.0047607421875
-0.000732421875
0.002197265625
0.005859375
-0.0194091796875
0.009521484375
-0.01611328125
-0.0146484375
0.010986328125
0.030029296875
0.01318359375
0.0164794921875
0.0040283203125
-0.037353515625
0.00146484375
-0.005859375
0.0
-0.0018310546875
-0.0032958984375
0.0087890625
0.0018310546875
0.0076904296875
0.0076904296875
-0.01171875
0.0
-0.0164794921875
-0.005859375
-0.0087890625
-0.002197265625
0.01171875
0.0
0.0084228515625
-0.0003662109375
-0.003662109375
0.0003662109375
-0.0010986328125
-0.00146484375
0.0084228515625
-0.0010986328125
0.0128173828125
0.0040283203125
-0.0054931640625
0.0054931640625
-0.0179443359375
0.00146484375
-0.00732421875
-0.0106201171875
0.0289306640625
-0.017578125
0.0062255859375
0.0018310546875
-0.0377197265625
0.01025390625
0.0369873046875
0.008056640625
0.01025390625
0.005859375
-0.0362548828125
-0.000732421875
0.0098876953125
0.0018310546875
0.0010986328125
0.00146484375
-0.0054931640625
0.0040283203125
-0.0010986328125
0.00439453125
0.0010986328125
-0.0025634765625
-0.0146484375
-0.00439453125
-0.0069580078125
-0.0032958984375
0.0128173828125
-0.0003662109375
0.016845703125
0.0029296875
0.0076904296875
0.0025634765625
-0.0025634765625
0.0
-0.005126953125
-0.0010986328125
-0.0010986328125
0.0
0.0062255859375
0.0010986328125
0.0003662109375
0.0003662109375
-0.0010986328125
-0.0010986328125
-0.000732421875
0.0
0.0003662109375
0.0010986328125
0.0003662109375
0.00146484375
-0.0062255859375
0.0047607421875
-0.009521484375
0.0018310546875
0.00439453125
-0.018310546875
0.02783203125
-0.018310546875
0.00439453125
0.01025390625
0.0157470703125
0.0146484375
-0.0098876953125
0.003662109375
-0.0377197265625
-0.000732421875
0.0091552734375
0.0
0.012451171875
0.0025634765625
0.006591796875
0.0003662109375
-0.0032958984375
-0.0018310546875
-0.0025634765625
-0.0047607421875
-0.0032958984375
-0.002197265625
0.0
0.0032958984375
0.010986328125
0.0029296875
0.0047607421875
0.0003662109375
-0.005126953125
0.000732421875
-0.006591796875
0.000732421875
0.005126953125
-0.00146484375
0.0076904296875
0.0025634765625
-0.00146484375
0.0029296875
0.0054931640625
-0.0128173828125
-0.0018310546875
-0.01611328125
-0.031494140625
0.0018310546875
0.016845703125
0.012451171875
0.0245361328125
0.0098876953125
-0.0179443359375
0.0047607421875
-0.0010986328125
0.00146484375
0.0025634765625
-0.0003662109375
0.0010986328125
-0.000732421875
-0.0069580078125
0.00439453125
-0.0135498046875
0.0018310546875
-0.008056640625
-0.0047607421875
-0.005126953125
-0.0025634765625
0.003662109375
-0.002197265625
0.0091552734375
0.0
0.008056640625
0.0018310546875
0.0032958984375
0.0003662109375
-0.005126953125
-0.0010986328125
-0.0054931640625
-0.002197265625
0.005126953125
0.0010986328125
0.0076904296875
0.0018310546875
-0.00439453125
-0.00146484375
-0.006591796875
-0.00146484375
-0.0029296875
0.0003662109375
0.0025634765625
0.0
0.00439453125
0.0018310546875
-0.005126953125
0.00146484375
-0.0062255859375
-0.0025634765625
0.009521484375
0.00146484375
0.040283203125
0.0106201171875
0.0399169921875
0.005859375
0.0413818359375
-0.0120849609375
-0.00732421875
-0.005126953125
-0.0589599609375
0.0
-0.04833984375
-0.005126953125
-0.0391845703125
0.0
-0.018310546875
-0.0029296875
-0.01171875
-0.0076904296875
-0.0223388671875
-0.008056640625
-0.0296630859375
0.002197265625
0.006591796875
0.00732421875
0.03662109375
0.0062255859375
0.035888671875
0.00439453125
0.0201416015625
0.0
0.0018310546875
-0.000732421875
-0.0010986328125
0.0
0.00439453125
0.0032958984375
0.0018310546875
0.0010986328125
-0.003662109375
-0.0025634765625
0.0
-0.0018310546875
-0.00146484375
0.002197265625
-0.0003662109375
0.0032958984375
-0.0010986328125
0.0
-0.0018310546875
-0.0032958984375
0.0
-0.00732421875
0.0076904296875
0.0032958984375
-0.0032958984375
0.005126953125
-0.01025390625
-0.0164794921875
0.005859375
-0.016845703125
-0.01611328125
0.0054931640625
0.0289306640625
0.015380859375
0.021240234375
0.008056640625
-0.03515625
0.00146484375
-0.005126953125
0.0
0.0040283203125
0.0
0.0084228515625
0.0029296875
0.00146484375
0.005859375
-0.01171875
0.0018310546875
-0.0157470703125
-0.0062255859375
-0.00146484375
-0.003662109375
0.018310546875
-0.0010986328125
0.0025634765625
0.0
-0.0164794921875
0.0010986328125
-0.0106201171875
-0.000732421875
0.0098876953125
0.0003662109375
0.017578125
0.0
0.0054931640625
0.0
-0.005126953125
-0.0003662109375
-0.0098876953125
0.0
0.0
0.00146484375
0.0087890625
0.002197265625
0.00732421875
0.002197265625
-0.003662109375
0.000732421875
-0.006591796875
-0.0003662109375
-0.0003662109375
0.0010986328125
0.008056640625
0.0018310546875
0.012451171875
-0.0010986328125
0.0
0.002197265625
-0.0054931640625
0.0
0.008056640625
-0.01611328125
0.0098876953125
-0.0106201171875
-0.018310546875
0.005859375
0.031494140625
0.0098876953125
0.0087890625
0.006591796875
-0.0406494140625
0.000732421875
0.0087890625
0.0
0.0069580078125
0.0025634765625
-0.0062255859375
0.0032958984375
-0.01171875
0.0025634765625
-0.0098876953125
-0.000732421875
-0.0062255859375
-0.0054931640625
0.0003662109375
-0.00146484375
0.00439453125
0.0010986328125
0.0025634765625
-0.0018310546875
0.0084228515625
-0.0010986328125
0.005859375
0.0018310546875
-0.0003662109375
0.00146484375
-0.0054931640625
-0.0003662109375
-0.005126953125
-0.0018310546875
0.0054931640625
-0.00146484375
0.0069580078125
0.0003662109375
-0.0010986328125
0.0029296875
-0.0120849609375
0.0040283203125
-0.008056640625
0.0029296875
0.0010986328125
-0.0010986328125
0.015380859375
-0.018310546875
0.0164794921875
-0.016845703125
-0.028564453125
0.0054931640625
0.0098876953125
0.0150146484375
0.0245361328125
0.01025390625
-0.015380859375
0.0018310546875
-0.006591796875
0.0018310546875
-0.009521484375
0.0018310546875
-0.006591796875
0.000732421875
0.0029296875
0.002197265625
0.005126953125
0.0018310546875
-0.01171875
-0.003662109375
-0.017578125
-0.0069580078125
0.0076904296875
-0.002197265625
0.0238037109375
0.000732421875
0.006591796875
0.0018310546875
-0.0040283203125
0.0029296875
-0.008056640625
0.0
-0.0040283203125
-0.002197265625
0.0040283203125
-0.0018310546875
0.008056640625
0.000732421875
0.0062255859375
0.00146484375
-0.00439453125
0.0018310546875
-0.005859375
0.0018310546875
-0.00439453125
0.0003662109375
-0.0003662109375
0.0029296875
-0.005126953125
0.002197265625
0.0
-0.0128173828125
0.0230712890625
-0.01904296875
-0.003662109375
-0.002197265625
0.003662109375
0.0087890625
0.038818359375
0.0113525390625
-0.0179443359375
0.008056640625
-0.0362548828125
0.000732421875
-0.0010986328125
-0.002197265625
0.002197265625
-0.00146484375
0.0
0.005126953125
-0.0054931640625
0.0029296875
-0.01171875
-0.00439453125
-0.01171875
-0.0062255859375
0.0003662109375
-0.0018310546875
0.0054931640625
0.002197265625
-0.0025634765625
0.0
0.0087890625
-0.000732421875
0.0128173828125
-0.0032958984375
0.0
-0.0003662109375
-0.006591796875
0.002197265625
-0.0069580078125
-0.0010986328125
0.0018310546875
-0.0018310546875
0.000732421875
0.00146484375
-0.0054931640625
0.00146484375
-0.0084228515625
-0.0010986328125
-0.0084228515625
0.0003662109375
-0.002197265625
-0.006591796875
0.022705078125
-0.017578125
0.0128173828125
-0.0098876953125
-0.0322265625
0.0091552734375
0.046875
0.012451171875
0.017578125
0.0084228515625
-0.052001953125
0.005859375
0.0003662109375
0.000732421875
-0.000732421875
0.000732421875
0.0018310546875
0.0018310546875
0.0062255859375
0.0032958984375
-0.000732421875
0.0003662109375
-0.0150146484375
-0.0054931640625
-0.01025390625
-0.003662109375
0.0076904296875
-0.000732421875
0.0146484375
0.0010986328125
0.0069580078125
0.000732421875
0.0
-0.0003662109375
0.0029296875
-0.0003662109375
0.003662109375
-0.000732421875
0.0018310546875
0.0003662109375
-0.00146484375
0.0003662109375
-0.0047607421875
0.0003662109375
-0.006591796875
0.0025634765625
-0.005859375
0.0047607421875
0.003662109375
-0.009521484375
0.01611328125
-0.01611328125
-0.008056640625
-0.000732421875
-0.025634765625
0.00732421875
0.0245361328125
0.008056640625
0.01171875
0.0040283203125
-0.0179443359375
0.002197265625
0.0018310546875
0.0025634765625
-0.003662109375
0.0040283203125
-0.0032958984375
0.0029296875
0.003662109375
-0.000732421875
0.0025634765625
-0.002197265625
-0.006591796875
-0.0003662109375
-0.0032958984375
0.0029296875
0.0076904296875
0.0003662109375
0.008056640625
-0.0010986328125
0.0069580078125
0.000732421875
0.0054931640625
-0.0003662109375
0.01025390625
-0.002197265625
0.005126953125
-0.00146484375
-0.0032958984375
-0.0003662109375
0.0018310546875
0.000732421875
0.0025634765625
0.0029296875
-0.0047607421875
0.0010986328125
-0.008056640625
-0.00146484375
-0.00146484375
-0.002197265625
0.0018310546875
0.0
0.0025634765625
0.0040283203125
-0.0018310546875
0.000732421875
0.0025634765625
-0.016845703125
0.0069580078125
-0.013916015625
-0.018310546875
0.0087890625
0.022705078125
0.01171875
0.0179443359375
0.005859375
-0.0238037109375
0.0003662109375
0.0018310546875
0.0003662109375
0.0003662109375
-0.0003662109375
-0.0091552734375
0.0018310546875
-0.0047607421875
0.0047607421875
0.005859375
0.0010986328125
-0.008056640625
-0.0029296875
-0.012451171875
-0.0047607421875
0.005126953125
-0.00146484375
0.0040283203125
0.0018310546875
0.00439453125
0.0018310546875
0.0091552734375
-0.0003662109375
0.0025634765625
-0.002197265625
-0.0010986328125
-0.00146484375
-0.0040283203125
0.0018310546875
-0.0069580078125
0.0018310546875
-0.002197265625
-0.0010986328125
0.0025634765625
-0.0010986328125
0.0069580078125
0.00146484375
0.01171875
0.0010986328125
0.0040283203125
-0.0032958984375
0.0
-0.0054931640625
0.0025634765625
-0.00146484375
0.0106201171875
-0.0032958984375
0.025634765625
-0.0194091796875
0.03515625
-0.0157470703125
0.0252685546875
-0.0018310546875
0.0787353515625
0.0047607421875
0.0531005859375
0.0029296875
-0.0113525390625
-0.0076904296875
0.0230712890625
-0.0091552734375
0.028594970703125
-0.013916015625
0.031524658203125
-0.027099609375
0.0333251953125
-0.0234375
0.01171875
-0.0106201171875
-0.0157470703125
-0.0091552734375
-0.0216064453125
-0.0069580078125
0.006591796875
-0.0047607421875
0.0201416015625
-0.002197265625
-0.0029296875
-0.000732421875
-0.0150146484375
0.0010986328125
-0.0172119140625
0.00146484375
-0.0128173828125
0.0025634765625
-0.011749267578125
0.0032958984375
-0.016143798828125
0.00732421875
-0.0223388671875
0.0069580078125
-0.008056640625
-0.015380859375
0.0
-0.01318359375
-0.0322265625
0.01171875
0.01904296875
0.0172119140625
0.0
0.013916015625
-0.0556640625
0.0076904296875
-0.0087890625
0.0018310546875
-0.00146484375
0.0029296875
-0.005859375
0.0062255859375
-0.0113525390625
0.008056640625
-0.0216064453125
0.008056640625
-0.01904296875
-0.0003662109375
-0.0069580078125
-0.003662109375
0.00439453125
0.0029296875
-0.002197265625
0.0040283203125
-0.0076904296875
0.0032958984375
0.0018310546875
0.000732421875
0.0106201171875
0.0047607421875
-0.003662109375
0.006591796875
-0.012451171875
-0.0106201171875
0.01318359375
-0.01611328125
-0.0128173828125
0.003662109375
-0.01904296875
0.0113525390625
0.03955078125
0.0084228515625
-0.006591796875
0.0054931640625
-0.0421142578125
0.0018310546875
-0.002197265625
0.0040283203125
0.0084228515625
0.003662109375
0.0087890625
0.005859375
-0.005859375
0.003662109375
-0.01025390625
-0.0018310546875
-0.005859375
-0.0029296875
0.0047607421875
-0.0010986328125
0.0098876953125
0.0029296875
0.003662109375
0.002197265625
0.0047607421875
0.0018310546875
0.005859375
0.000732421875
0.0040283203125
-0.00146484375
0.002197265625
0.0029296875
0.0
0.0029296875
-0.0003662109375
0.000732421875
-0.0025634765625
0.0010986328125
-0.0062255859375
0.0
0.0
0.0018310546875
-0.0003662109375
0.0047607421875
-0.003662109375
0.00732421875
0.012451171875
0.0018310546875
0.0413818359375
-0.0003662109375
0.0889892578125
-0.0106201171875
0.0135498046875
0.005126953125
-0.075439453125
0.0120849609375
-0.057861328125
-0.0040283203125
-0.05126953125
0.000732421875
-0.027099609375
-0.0029296875
-0.003662109375
-0.0029296875
-0.01171875
-0.00439453125
-0.0355224609375
-0.00146484375
-0.01611328125
0.0032958984375
0.027099609375
0.002197265625
0.044677734375
0.005859375
0.0260009765625
0.006591796875
0.0010986328125
0.0018310546875
-0.00146484375
-0.0029296875
0.005126953125
-0.003662109375
0.00732421875
-0.000732421875
0.000732421875
0.002197265625
-0.006591796875
0.0025634765625
-0.0076904296875
0.0
-0.00146484375
0.0025634765625
0.0018310546875
0.0040283203125
-0.005859375
-0.0010986328125
-0.01025390625
0.0
-0.012451171875
0.00146484375
0.0032958984375
-0.0146484375
0.0289306640625
-0.0164794921875
-0.01171875
0.0018310546875
-0.030029296875
0.008056640625
0.031494140625
0.0084228515625
0.0091552734375
0.009521484375
-0.02197265625
0.0062255859375
-0.00439453125
0.0003662109375
-0.0098876953125
-0.000732421875
-0.00439453125
0.0
0.0010986328125
0.0003662109375
0.0087890625
-0.0018310546875
0.0029296875
-0.0029296875
-0.0120849609375
-0.0003662109375
-0.008056640625
-0.000732421875
-0.0018310546875
0.0003662109375
0.008056640625
0.0018310546875
0.009521484375
0.0018310546875
0.000732421875
0.000732421875
0.000732421875
-0.0010986328125
0.0
0.0
-0.00439453125
-0.0003662109375
0.0
-0.0010986328125
0.0018310546875
0.00146484375
-0.0106201171875
0.002197265625
-0.005859375
-0.0135498046875
0.0157470703125
-0.0201416015625
0.0
-0.0040283203125
-0.0142822265625
0.0018310546875
0.0325927734375
0.005859375
-0.000732421875
0.00439453125
-0.0384521484375
-0.00146484375
0.0040283203125
0.00146484375
0.0084228515625
0.0047607421875
-0.000732421875
0.0047607421875
-0.0076904296875
0.0040283203125
-0.01171875
-0.000732421875
-0.0098876953125
-0.0040283203125
0.00732421875
-0.00146484375
0.018310546875
0.0010986328125
0.00439453125
0.0032958984375
-0.000732421875
0.002197265625
-0.0054931640625
0.002197265625
-0.003662109375
0.0
0.0084228515625
0.000732421875
0.0047607421875
0.0054931640625
-0.006591796875
-0.002197265625
0.0120849609375
-0.0146484375
0.000732421875
-0.01025390625
-0.0380859375
0.005859375
0.0457763671875
0.015380859375
0.030029296875
0.0113525390625
-0.0428466796875
0.0025634765625
-0.00732421875
-0.0018310546875
0.0032958984375
-0.0018310546875
0.0084228515625
0.003662109375
-0.0032958984375
0.00732421875
-0.0087890625
0.0
-0.01025390625
-0.006591796875
0.0025634765625
-0.003662109375
0.0128173828125
0.000732421875
0.0018310546875
0.0029296875
-0.01025390625
0.00146484375
-0.0054931640625
-0.00146484375
0.0128173828125
-0.0032958984375
0.01611328125
0.000732421875
0.0
0.0018310546875
-0.0157470703125
0.0
-0.009521484375
0.0010986328125
0.0032958984375
0.0025634765625
0.0069580078125
0.0003662109375
0.0003662109375
-0.0018310546875
-0.0069580078125
-0.00146484375
-0.0003662109375
-0.000732421875
0.00439453125
0.009521484375
-0.0029296875
0.005126953125
0.030029296875
-0.012451171875
0.05859375
-0.0194091796875
0.025634765625
0.0032958984375
-0.0472412109375
0.0142822265625
-0.0670166015625
0.0010986328125
-0.02783203125
-0.0003662109375
-0.0106201171875
-0.0025634765625
-0.0040283203125
-0.0032958984375
-0.0091552734375
-0.0047607421875
-0.0245361328125
-0.000732421875
-0.0128173828125
0.0069580078125
0.022705078125
0.005859375
0.03662109375
0.0003662109375
0.0274658203125
-0.002197265625
0.0120849609375
-0.00146484375
0.0047607421875
0.0
0.0010986328125
0.0018310546875
-0.0018310546875
0.008056640625
-0.0128173828125
0.0047607421875
-0.0029296875
-0.013916015625
0.03369140625
-0.019775390625
0.002197265625
-0.003662109375
-0.0098876953125
0.0120849609375
0.038818359375
0.015380859375
-0.010986328125
0.0069580078125
-0.0369873046875
0.0
0.0029296875
0.00146484375
0.00439453125
0.0025634765625
-0.000732421875
0.002197265625
-0.0069580078125
-0.0018310546875
-0.0062255859375
-0.0062255859375
-0.009521484375
-0.0040283203125
-0.0003662109375
-0.0010986328125
0.0106201171875
-0.000732421875
-0.00146484375
-0.000732421875
-0.00732421875
0.0
-0.00146484375
-0.00146484375
0.0076904296875
0.0040283203125
-0.0010986328125
0.0029296875
-0.006591796875
-0.0172119140625
0.0062255859375
-0.013916015625
-0.0186767578125
0.005859375
0.0054931640625
0.0091552734375
0.021240234375
0.005859375
-0.0238037109375
0.0010986328125
-0.01025390625
-0.0003662109375
0.009521484375
0.002197265625
0.0091552734375
0.0018310546875
-0.0003662109375
0.00146484375
-0.010986328125
0.0
-0.01025390625
-0.0025634765625
0.0
-0.0010986328125
0.0106201171875
0.0018310546875
-0.0018310546875
0.0018310546875
-0.0047607421875
0.000732421875
0.0084228515625
0.0010986328125
0.0113525390625
0.0003662109375
0.005859375
0.0
-0.0032958984375
0.0
-0.0062255859375
0.002197265625
-0.0025634765625
0.0025634765625
0.0047607421875
0.000732421875
-0.0025634765625
0.0
-0.0047607421875
-0.00439453125
0.00146484375
-0.002197265625
0.0054931640625
0.0047607421875
0.0230712890625
0.005126953125
0.02783203125
-0.0010986328125
0.060791015625
-0.0186767578125
0.005126953125
-0.0029296875
-0.0706787109375
0.01025390625
-0.053466796875
-0.00439453125
-0.02783203125
-0.0032958984375
-0.008056640625
-0.0025634765625
-0.0172119140625
-0.0025634765625
-0.0267333984375
-0.0018310546875
-0.027099609375
-0.0003662109375
0.0091552734375
0.0032958984375
0.0362548828125
0.0054931640625
0.0311279296875
0.0025634765625
0.022705078125
0.0003662109375
0.015380859375
0.0003662109375
0.0025634765625
0.0
-0.0069580078125
0.0010986328125
-0.0087890625
0.002197265625
-0.005859375
0.0003662109375
0.002197265625
-0.00146484375
0.0029296875
0.002197265625
-0.0018310546875
0.0003662109375
0.01171875
-0.0164794921875
0.0135498046875
-0.0157470703125
-0.0274658203125
0.0054931640625
0.0186767578125
0.0179443359375
0.0142822265625
0.0113525390625
-0.0260009765625
0.0025634765625
0.005859375
-0.0003662109375
0.0
-0.0018310546875
-0.00146484375
0.0018310546875
-0.0062255859375
0.0054931640625
-0.0054931640625
0.0018310546875
-0.0032958984375
-0.0062255859375
-0.0032958984375
-0.005859375
0.0047607421875
-0.00146484375
0.0018310546875
0.0003662109375
0.0040283203125
0.0003662109375
0.0135498046875
0.0
0.0098876953125
0.000732421875
0.000732421875
0.00146484375
-0.0076904296875
0.00146484375
-0.008056640625
0.002197265625
-0.0032958984375
-0.0003662109375
0.002197265625
-0.0025634765625
0.0025634765625
-0.00146484375
0.00439453125
-0.0025634765625
-0.00439453125
0.0010986328125
-0.0194091796875
-0.003662109375
0.010986328125
-0.0186767578125
0.0164794921875
-0.01171875
-0.018310546875
0.0062255859375
0.04833984375
0.012451171875
0.0062255859375
0.00732421875
-0.05712890625
0.0025634765625
-0.00146484375
0.0010986328125
-0.00146484375
-0.00146484375
-0.0003662109375
0.0003662109375
0.002197265625
0.0018310546875
-0.00146484375
0.0018310546875
-0.0164794921875
-0.003662109375
-0.01318359375
-0.005126953125
0.0113525390625
-0.0025634765625
0.021240234375
-0.002197265625
0.0084228515625
0.0029296875
-0.008056640625
0.0025634765625
-0.0018310546875
-0.00146484375
0.0087890625
-0.0010986328125
0.0054931640625
0.0018310546875
-0.003662109375
0.0032958984375
-0.0076904296875
-0.005859375
0.0179443359375
-0.016845703125
0.0091552734375
-0.005859375
-0.0333251953125
0.010986328125
0.0494384765625
0.0135498046875
0.0146484375
0.009521484375
-0.0574951171875
0.00146484375
0.005859375
0.0
0.0113525390625
0.0032958984375
0.0040283203125
0.0047607421875
-0.003662109375
0.00439453125
-0.0084228515625
-0.0018310546875
-0.0084228515625
-0.005859375
-0.00146484375
-0.0010986328125
0.0054931640625
0.0029296875
0.0054931640625
-0.0003662109375
0.005859375
-0.0018310546875
0.0032958984375
-0.0010986328125
0.0029296875
0.0
0.0018310546875
0.0025634765625
-0.0047607421875
0.0018310546875
-0.00732421875
-0.00146484375
0.0018310546875
0.00146484375
-0.0010986328125
0.0025634765625
0.0047607421875
-0.0150146484375
0.0091552734375
-0.015380859375
-0.02490234375
0.0040283203125
0.0216064453125
0.0106201171875
0.021240234375
0.0106201171875
-0.028564453125
0.00439453125
-0.006591796875
-0.0003662109375
0.0025634765625
-0.000732421875
0.0025634765625
0.000732421875
-0.00146484375
0.00439453125
-0.01171875
0.0010986328125
-0.0186767578125
-0.005859375
0.00439453125
-0.005859375
0.0164794921875
0.0
0.006591796875
0.00146484375
0.0003662109375
0.0018310546875
-0.005126953125
-0.0003662109375
0.0
-0.00439453125
0.0087890625
-0.0018310546875
0.0025634765625
0.000732421875
0.0
0.0040283203125
-0.000732421875
0.00146484375
-0.008056640625
-0.0029296875
-0.002197265625
0.0018310546875
-0.005126953125
0.0047607421875
0.00146484375
-0.01318359375
0.0267333984375
-0.01904296875
-0.0076904296875
-0.00146484375
-0.0186767578125
0.01318359375
0.01611328125
0.01318359375
0.003662109375
0.002197265625
-0.00439453125
0.0029296875
-0.005859375
0.0018310546875
-0.00732421875
0.0010986328125
0.0018310546875
0.005859375
-0.00146484375
-0.0010986328125
-0.005859375
-0.0084228515625
-0.005126953125
-0.0054931640625
0.00439453125
0.0032958984375
0.010986328125
0.0040283203125
0.003662109375
-0.002197265625
0.0
-0.002197265625
-0.00146484375
0.00146484375
-0.002197265625
0.0047607421875
-0.0062255859375
0.0018310546875
0.0029296875
-0.0113525390625
0.0303955078125
-0.0205078125
0.0029296875
-0.0047607421875
-0.02197265625
0.0069580078125
0.0494384765625
0.0120849609375
-0.0040283203125
0.0087890625
-0.0582275390625
-0.000732421875
-0.00146484375
0.0003662109375
-0.000732421875
-0.002197265625
-0.000732421875
0.0003662109375
0.00732421875
0.00439453125
-0.0054931640625
-0.0018310546875
-0.01904296875
-0.005859375
-0.0054931640625
-0.0029296875
0.000732421875
-0.000732421875
0.0069580078125
-0.000732421875
0.0091552734375
-0.0010986328125
0.0076904296875
0.000732421875
0.002197265625
-0.000732421875
-0.0025634765625
0.0
-0.00439453125
0.0040283203125
-0.0098876953125
-0.0003662109375
0.0
-0.0172119140625
0.00732421875
-0.0146484375
-0.018310546875
0.0087890625
0.016845703125
0.0135498046875
0.018310546875
0.0069580078125
-0.025634765625
0.00146484375
-0.00146484375
0.0
0.0106201171875
0.0032958984375
0.00439453125
0.005859375
-0.005126953125
0.005126953125
-0.0091552734375
0.0
-0.01318359375
-0.005859375
0.0087890625
-0.0029296875
0.0194091796875
0.00146484375
-0.0003662109375
0.003662109375
-0.0091552734375
0.0040283203125
-0.006591796875
-0.000732421875
0.012451171875
-0.0010986328125
0.0157470703125
0.0
-0.0025634765625
0.0
-0.006591796875
0.0
-0.0062255859375
0.0018310546875
-0.008056640625
0.0010986328125
0.0113525390625
-0.0120849609375
0.0252685546875
-0.0164794921875
-0.0113525390625
-0.0010986328125
-0.02197265625
0.0084228515625
0.0303955078125
0.0098876953125
0.008056640625
0.0087890625
-0.0201416015625
0.0025634765625
-0.002197265625
-0.0003662109375
-0.0040283203125
0.0010986328125
-0.0047607421875
0.00146484375
-0.0003662109375
0.0010986328125
-0.0032958984375
-0.0025634765625
-0.0142822265625
-0.0032958984375
-0.0018310546875
-0.0003662109375
0.010986328125
0.0
0.013916015625
-0.002197265625
0.006591796875
0.0
-0.0054931640625
0.0
-0.0032958984375
-0.002197265625
0.0018310546875
0.0029296875
-0.0047607421875
0.0029296875
-0.0040283203125
-0.0091552734375
0.0238037109375
-0.018310546875
-0.0003662109375
-0.00732421875
-0.0296630859375
0.005859375
0.0552978515625
0.0157470703125
0.0098876953125
0.0120849609375
-0.052001953125
0.0
0.002197265625
0.0003662109375
0.0047607421875
0.0018310546875
-0.00146484375
0.005126953125
-0.01025390625
0.0040283203125
-0.0113525390625
-0.005859375
-0.00146484375
-0.0084228515625
0.0106201171875
0.0
0.0054931640625
0.0025634765625
-0.000732421875
0.000732421875
-0.0025634765625
0.0
0.00146484375
-0.005126953125
0.012451171875
-0.0029296875
0.0076904296875
0.0025634765625
-0.00439453125
0.0029296875
-0.005126953125
0.0032958984375
-0.0113525390625
0.002197265625
-0.0010986328125
-0.009521484375
0.032958984375
-0.0164794921875
-0.000732421875
-0.0025634765625
-0.0091552734375
0.0062255859375
0.0413818359375
0.0106201171875
-0.01171875
0.008056640625
-0.03515625
0.0
0.0010986328125
0.0
0.0
0.0003662109375
-0.0040283203125
0.005126953125
-0.01025390625
0.0040283203125
-0.01025390625
-0.0076904296875
-0.008056640625
-0.0091552734375
0.0076904296875
-0.0032958984375
0.015380859375
0.000732421875
0.0054931640625
0.003662109375
-0.0040283203125
0.00146484375
-0.00439453125
-0.0010986328125
0.0
-0.0029296875
0.005859375
-0.0018310546875
0.0029296875
-0.0003662109375
-0.0054931640625
-0.000732421875
-0.00439453125
0.0003662109375
-0.00146484375
-0.000732421875
0.0040283203125
-0.0010986328125
0.0025634765625
0.0
-0.00146484375
-0.000732421875
-0.002197265625
-0.0003662109375
-0.0040283203125
0.003662109375
-0.009521484375
0.0069580078125
0.0084228515625
-0.015380859375
0.0509033203125
-0.013916015625
0.04541015625
0.0062255859375
-0.0054931640625
0.0062255859375
-0.0556640625
0.00732421875
-0.0421142578125
0.0018310546875
-0.00732421875
-0.0010986328125
-0.00146484375
-0.0025634765625
0.003662109375
-0.00146484375
-0.0091552734375
0.0010986328125
-0.0274658203125
0.0025634765625
-0.0128173828125
0.0047607421875
0.030029296875
0.0054931640625
0.03076171875
0.0032958984375
0.0091552734375
0.0
0.000732421875
-0.0029296875
0.0010986328125
-0.002197265625
0.0069580078125
0.000732421875
0.0029296875
0.0025634765625
-0.006591796875
0.002197265625
-0.0113525390625
0.0003662109375
-0.0029296875
-0.0087890625
0.022705078125
-0.01904296875
0.0062255859375
-0.006591796875
-0.02783203125
0.0069580078125
0.0428466796875
0.01318359375
0.01025390625
0.0113525390625
-0.046875
0.00146484375
0.006591796875
0.0
0.006591796875
0.002197265625
-0.0084228515625
0.005859375
-0.0142822265625
0.002197265625
-0.0032958984375
-0.005859375
0.0113525390625
-0.006591796875
0.0062255859375
0.0
-0.0047607421875
0.002197265625
-0.0087890625
0.0
0.0018310546875
0.0
0.010986328125
0.0
0.0025634765625
0.0
-0.008056640625
-0.002197265625
-0.0084228515625
-0.0025634765625
0.002197265625
0.002197265625
0.009521484375
0.0029296875
0.0040283203125
-0.00146484375
-0.00439453125
-0.0029296875
-0.00146484375
-0.0018310546875
-0.002197265625
0.0025634765625
0.0
0.006591796875
-0.005859375
0.000732421875
0.00146484375
-0.01904296875
0.010986328125
-0.016845703125
-0.0150146484375
0.0040283203125
0.0406494140625
0.01611328125
0.0128173828125
0.0128173828125
-0.046142578125
0.000732421875
-0.0018310546875
0.0
0.0010986328125
0.002197265625
0.0032958984375
0.0018310546875
0.002197265625
0.0029296875
-0.009521484375
-0.000732421875
-0.0194091796875
-0.005859375
-0.0054931640625
-0.0054931640625
0.0252685546875
0.00146484375
0.0146484375
0.00439453125
-0.005859375
-0.0010986328125
-0.003662109375
-0.0010986328125
-0.0018310546875
-0.0029296875
0.009521484375
-0.0018310546875
0.0135498046875
0.00439453125
-0.010986328125
0.0047607421875
-0.0164794921875
-0.0135498046875
0.01904296875
-0.0223388671875
0.0032958984375
-0.002197265625
-0.008056640625
0.01025390625
0.047607421875
0.01171875
-0.0032958984375
0.0054931640625
-0.0465087890625
-0.0018310546875
-0.0040283203125
0.003662109375
-0.0029296875
0.0018310546875
0.00439453125
0.0
0.0040283203125
0.002197265625
-0.012451171875
-0.0040283203125
-0.015380859375
-0.00439453125
0.0032958984375
0.0
0.0150146484375
0.0
0.005859375
-0.0003662109375
-0.005859375
0.0010986328125
-0.012451171875
0.0
0.00439453125
-0.005126953125
0.01904296875
-0.00439453125
0.0069580078125
-0.0003662109375
-0.000732421875
0.0029296875
-0.009521484375
0.0032958984375
-0.006591796875
0.0
0.0010986328125
-0.00146484375
-0.002197265625
0.0
-0.002197265625
0.0025634765625
-0.000732421875
0.000732421875
0.0010986328125
0.00146484375
0.0047607421875
0.000732421875
0.03955078125
0.006591796875
0.054931640625
-0.005859375
0.0245361328125
-0.0076904296875
-0.0267333984375
0.006591796875
-0.0615234375
-0.000732421875
-0.0523681640625
-0.002197265625
-0.0223388671875
-0.0003662109375
-0.01025390625
-0.00146484375
-0.027099609375
-0.0040283203125
-0.0325927734375
-0.0025634765625
-0.01611328125
0.0032958984375
0.01904296875
0.006591796875
0.0399169921875
0.0018310546875
0.04248046875
0.0010986328125
0.0325927734375
0.0018310546875
0.0076904296875
0.002197265625
-0.0142822265625
0.002197265625
-0.0172119140625
0.0
-0.0010986328125
-0.0025634765625
0.019775390625
0.0
0.0084228515625
0.0025634765625
-0.01025390625
-0.002197265625
-0.00732421875
-0.0029296875
-0.002197265625
0.0032958984375
-0.0025634765625
0.0047607421875
0.0040283203125
-0.0142822265625
0.013916015625
-0.0201416015625
-0.01611328125
0.0025634765625
-0.006591796875
0.0186767578125
0.0142822265625
0.012451171875
-0.002197265625
0.0
-0.0003662109375
-0.000732421875
0.0
-0.0003662109375
0.0010986328125
0.0029296875
0.0032958984375
0.005859375
-0.0018310546875
0.0010986328125
-0.0135498046875
-0.0047607421875
-0.015380859375
-0.00732421875
0.0047607421875
0.000732421875
0.0128173828125
0.002197265625
0.01025390625
-0.0018310546875
0.009521484375
0.0
-0.0018310546875
0.0
-0.00732421875
0.0003662109375
-0.005126953125
0.0003662109375
0.0018310546875
-0.0025634765625
0.0054931640625
-0.0047607421875
0.0018310546875
0.002197265625
-0.00439453125
0.0069580078125
-0.0069580078125
0.0003662109375
0.0010986328125
-0.0047607421875
0.003662109375
-0.0025634765625
-0.0029296875
0.002197265625
-0.0062255859375
0.002197265625
0.0
-0.0025634765625
0.0029296875
-0.00146484375
-0.0084228515625
0.0032958984375
-0.005126953125
-0.01318359375
0.0150146484375
-0.016845703125
-0.0025634765625
0.003662109375
0.0142822265625
0.0084228515625
0.0120849609375
0.0069580078125
-0.0289306640625
0.0040283203125
-0.0120849609375
-0.0018310546875
0.00732421875
-0.0029296875
0.0040283203125
0.0
-0.00146484375
0.0018310546875
-0.005126953125
0.002197265625
-0.015380859375
-0.0047607421875
-0.01025390625
-0.006591796875
0.0062255859375
0.0003662109375
0.0120849609375
-0.000732421875
0.005859375
-0.00146484375
0.0032958984375
-0.00439453125
0.0098876953125
-0.006591796875
0.0113525390625
-0.002197265625
0.003662109375
0.0
-0.000732421875
0.0069580078125
-0.010986328125
0.0069580078125
0.0010986328125
-0.0120849609375
0.0146484375
-0.0179443359375
-0.0399169921875
-0.00439453125
-0.10546875
0.005126953125
-0.0380859375
0.01025390625
0.0582275390625
0.006591796875
0.0736083984375
0.0025634765625
0.0750732421875
0.0054931640625
0.0596923828125
0.0069580078125
0.049072265625
0.010986328125
0.0626220703125
0.0113525390625
0.093780517578125
-0.002197265625
0.103668212890625
-0.009521484375
0.0831298828125
-0.000732421875
0.0443115234375
0.0
0.0128173828125
0.00146484375
0.0032958984375
0.003662109375
0.00439453125
0.00146484375
-0.01318359375
0.0018310546875
-0.0142822265625
-0.0142822265625
-0.0186767578125
-0.0142822265625
-0.0032958984375
0.0047607421875
0.0831298828125
0.0098876953125
-0.00439453125
0.006591796875
-0.0791015625
0.00439453125
-0.0267333984375
0.0003662109375
-0.0245361328125
-0.0087890625
-0.0384521484375
-0.0091552734375
-0.054931640625
-0.009521484375
-0.057525634765625
-0.01171875
-0.052398681640625
-0.0098876953125
-0.0369873046875
-0.005859375
-0.02783203125
0.0
-0.00439453125
-0.009521484375
0.0205078125
-0.012451171875
0.017578125
-0.000732421875
-0.0150146484375
-0.0010986328125
-0.0347900390625
-0.0047607421875
-0.03955078125
-0.012451171875
-0.034423828125
-0.0238037109375
-0.032958984375
-0.01025390625
-0.0882568359375
0.0120849609375
-0.110595703125
0.0029296875
-0.334381103515625
-0.0018310546875
-0.52960205078125
0.0069580078125
-0.35784912109375
0.005859375
-0.117950439453125
0.0062255859375
0.0
0.010986328125
0.0
0.0230712890625
0.269561767578125
0.017578125
0.44024658203125
0.005859375
0.200714111328125
0.0062255859375
0.0146484375
0.005859375
-0.0362548828125
0.0098876953125
0.021240234375
0.0106201171875
0.1036376953125
0.0054931640625
0.11865234375
-0.0029296875
0.078033447265625
-0.0040283203125
0.030426025390625
0.00146484375
0.0172119140625
0.00439453125
0.015380859375
0.00439453125
0.008056640625
0.003662109375
-0.01025390625
0.003662109375
-0.0062255859375
-0.00439453125
0.0289306640625
-0.0113525390625
0.0157470703125
0.0040283203125
-0.0135498046875
0.0076904296875
0.078369140625
0.0025634765625
0.0340576171875
0.0018310546875
-0.027099609375
-0.0128173828125
0.0743408203125
-0.0010986328125
0.062255859375
0.0230712890625
0.0501708984375
0.015380859375
0.1036376953125
-0.000732421875
0.094512939453125
-0.0120849609375
0.041412353515625
-0.019775390625
0.008056640625
-0.0172119140625
-0.0029296875
-0.0069580078125
0.0018310546875
-0.000732421875
-0.0010986328125
-0.0018310546875
-0.005859375
0.002197265625
-0.0076904296875
0.003662109375
-0.019439697265625
0.000732421875
-0.029693603515625
-0.0047607421875
-0.040283203125
-0.0054931640625
-0.040283203125
-0.000732421875
-0.0325927734375
0.0025634765625
-0.034423828125
0.0032958984375
-0.0230712890625
-0.000732421875
-0.0106201171875
0.00146484375
-0.012451171875
0.0062255859375
-0.0164794921875
0.000732421875
0.00439453125
-0.01171875
-0.0062255859375
-0.0054931640625
-0.0509033203125
0.0084228515625
0.037353515625
0.0098876953125
0.0238037109375
0.0069580078125
-0.041015625
0.003662109375
0.0
0.0047607421875
-0.0076904296875
0.00146484375
-0.01025390625
0.0003662109375
-0.0120849609375
0.0032958984375
-0.006591796875
-0.0003662109375
-0.009521484375
-0.003662109375
-0.0098876953125
-0.002197265625
0.0040283203125
0.0018310546875
0.008056640625
0.0032958984375
-0.0018310546875
0.0003662109375
-0.00439453125
-0.0010986328125
-0.002197265625
0.0
-0.003662109375
0.005859375
-0.006591796875
0.0062255859375
-0.0003662109375
-0.01318359375
0.0194091796875
-0.018310546875
-0.013916015625
-0.00146484375
-0.0146484375
0.01171875
0.0318603515625
0.012451171875
0.0029296875
0.0029296875
-0.0164794921875
-0.0018310546875
-0.0010986328125
0.0032958984375
-0.006591796875
0.005859375
-0.0091552734375
0.0032958984375
-0.0069580078125
-0.000732421875
-0.0084228515625
-0.0062255859375
-0.0032958984375
-0.005126953125
0.0091552734375
0.0003662109375
0.0084228515625
0.0018310546875
-0.0010986328125
-0.00146484375
0.0010986328125
0.0
0.003662109375
0.00146484375
0.008056640625
0.0025634765625
0.005859375
0.000732421875
-0.0054931640625
0.000732421875
-0.0142822265625
0.00146484375
-0.002197265625
-0.0069580078125
0.029296875
-0.016845703125
0.0091552734375
-0.0069580078125
-0.0179443359375
0.005859375
0.05712890625
0.0120849609375
-0.00439453125
0.01171875
-0.062255859375
0.000732421875
0.0032958984375
-0.000732421875
-0.000732421875
-0.000732421875
-0.0018310546875
0.0018310546875
-0.0098876953125
0.003662109375
0.0
-0.0025634765625
0.0018310546875
-0.00439453125
0.000732421875
-0.0018310546875
0.0087890625
-0.0003662109375
-0.00146484375
0.000732421875
0.0010986328125
0.0
0.0032958984375
0.0003662109375
0.0029296875
-0.0018310546875
0.0054931640625
-0.0003662109375
0.005859375
0.0010986328125
0.003662109375
-0.000732421875
-0.003662109375
-0.0003662109375
-0.0029296875
0.0
-0.0032958984375
0.00146484375
0.005126953125
0.0029296875
0.00439453125
0.00146484375
-0.00439453125
0.0003662109375
-0.0084228515625
0.000732421875
0.000732421875
-0.0062255859375
0.037353515625
-0.0106201171875
0.01904296875
0.0091552734375
0.030029296875
0.0091552734375
-0.019775390625
-0.00439453125
-0.0618896484375
0.0025634765625
-0.003662109375
0.002197265625
-0.00146484375
-0.0018310546875
-0.0025634765625
-0.0025634765625
-0.00439453125
-0.0025634765625
-0.012451171875
-0.00146484375
-0.01171875
0.0003662109375
0.0091552734375
0.0003662109375
0.019775390625
-0.00146484375
0.0194091796875
0.0
0.005126953125
0.0010986328125
-0.000732421875
-0.0025634765625
0.003662109375
-0.002197265625
-0.003662109375
0.0
-0.0025634765625
0.000732421875
0.003662109375
0.000732421875
0.003662109375
0.0003662109375
-0.008056640625
0.0040283203125
-0.0186767578125
0.0018310546875
-0.0047607421875
-0.0128173828125
0.028564453125
-0.012451171875
-0.0029296875
0.0047607421875
-0.03662109375
0.0084228515625
0.0263671875
0.006591796875
0.0084228515625
0.005859375
-0.0230712890625
0.002197265625
0.0062255859375
0.0029296875
-0.005126953125
0.002197265625
-0.0076904296875
0.0018310546875
-0.0025634765625
0.0029296875
-0.002197265625
-0.0032958984375
-0.00146484375
-0.0054931640625
0.00146484375
-0.00146484375
0.003662109375
0.0003662109375
0.005126953125
-0.0003662109375
0.005126953125
-0.000732421875
0.0047607421875
-0.0010986328125
0.0
-0.0025634765625
0.0003662109375
-0.002197265625
0.0069580078125
-0.0003662109375
0.0062255859375
0.0025634765625
0.0
0.000732421875
-0.0087890625
-0.000732421875
-0.005126953125
-0.000732421875
0.0040283203125
0.003662109375
-0.00146484375
0.0062255859375
0.0084228515625
-0.0106201171875
0.02490234375
-0.0186767578125
-0.015380859375
-0.0025634765625
-0.021240234375
0.006591796875
0.0391845703125
0.01025390625
0.0084228515625
0.0087890625
-0.0234375
0.0
-0.002197265625
0.0
-0.0076904296875
0.000732421875
-0.00439453125
0.0025634765625
0.005859375
0.0032958984375
0.0
-0.003662109375
-0.0205078125
-0.0054931640625
-0.0069580078125
-0.0018310546875
0.01171875
0.0010986328125
0.0135498046875
0.000732421875
0.0106201171875
-0.000732421875
-0.005126953125
-0.000732421875
-0.0018310546875
-0.00146484375
0.0069580078125
0.000732421875
0.0018310546875
0.002197265625
-0.0054931640625
0.0
-0.0047607421875
-0.0018310546875
0.0010986328125
-0.000732421875
0.009521484375
0.0018310546875
0.0054931640625
0.000732421875
-0.0040283203125
-0.0010986328125
-0.0025634765625
-0.000732421875
0.000732421875
0.0032958984375
-0.0003662109375
0.0
0.01171875
-0.017578125
0.0025634765625
-0.0128173828125
-0.0208740234375
0.0062255859375
0.0552978515625
0.0128173828125
0.0146484375
0.0084228515625
-0.0516357421875
0.000732421875
-0.0040283203125
0.0
0.0018310546875
0.0003662109375
0.002197265625
0.000732421875
-0.0029296875
0.0025634765625
-0.0069580078125
-0.000732421875
-0.0150146484375
-0.0040283203125
-0.0062255859375
-0.0010986328125
0.013916015625
-0.000732421875
0.012451171875
-0.0018310546875
0.005126953125
-0.0018310546875
0.0018310546875
0.0010986328125
-0.0025634765625
0.0029296875
0.0018310546875
-0.0003662109375
0.00439453125
-0.0010986328125
-0.0010986328125
-0.0010986328125
-0.0029296875
0.0010986328125
-0.002197265625
0.008056640625
-0.0142822265625
0.0054931640625
-0.000732421875
-0.01611328125
0.017578125
-0.019775390625
-0.0142822265625
0.0040283203125
0.0084228515625
0.0146484375
0.0201416015625
0.010986328125
-0.015380859375
0.0025634765625
-0.00439453125
0.0003662109375
-0.0003662109375
0.0003662109375
-0.0025634765625
0.0
0.0
0.0054931640625
-0.0069580078125
0.0025634765625
-0.0142822265625
-0.006591796875
-0.005126953125
-0.008056640625
0.0113525390625
-0.0029296875
0.01904296875
0.000732421875
0.008056640625
0.0040283203125
-0.0098876953125
0.0029296875
-0.013916015625
-0.00146484375
-0.0032958984375
-0.003662109375
0.0062255859375
-0.00146484375
0.010986328125
0.000732421875
0.009521484375
-0.0010986328125
-0.0032958984375
0.0040283203125
-0.01611328125
0.0047607421875
-0.0040283203125
-0.013916015625
0.03076171875
-0.017578125
-0.005126953125
-0.0010986328125
-0.0128173828125
0.0084228515625
0.03076171875
0.012451171875
-0.01171875
0.0069580078125
-0.024169921875
0.0
0.0029296875
0.0010986328125
0.00146484375
0.000732421875
0.0032958984375
0.0032958984375
-0.003662109375
0.0040283203125
-0.0164794921875
-0.0040283203125
-0.01318359375
-0.005859375
0.0084228515625
-0.00146484375
0.0234375
0.00146484375
0.01171875
0.000732421875
-0.0040283203125
0.00146484375
-0.0106201171875
0.0025634765625
-0.0128173828125
0.0054931640625
-0.01025390625
0.0054931640625
0.0062255859375
-0.0146484375
0.031494140625
-0.0223388671875
-0.003662109375
-0.0054931640625
-0.008056640625
0.0098876953125
0.0428466796875
0.01171875
-0.0106201171875
0.0018310546875
-0.037353515625
-0.0032958984375
-0.002197265625
-0.003662109375
0.0
0.0
0.00732421875
0.0018310546875
0.0029296875
0.000732421875
-0.015380859375
-0.005859375
-0.0142822265625
-0.0062255859375
0.006591796875
0.0010986328125
0.012451171875
-0.0003662109375
0.0040283203125
-0.0003662109375
-0.0025634765625
-0.0029296875
0.0003662109375
0.000732421875
0.01025390625
0.0091552734375
0.0150146484375
0.013916015625
-0.0194091796875
0.0010986328125
-0.0758056640625
0.0010986328125
-0.0816650390625
0.038818359375
-0.084259033203125
-0.0106201171875
0.114990234375
-0.046142578125
0.172149658203125
-0.009521484375
0.012451171875
-0.005859375
0.01904296875
-0.005126953125
0.0369873046875
-0.00439453125
0.0355224609375
-0.0040283203125
0.0186767578125
-0.0029296875
-0.0032958984375
0.0120849609375
-0.05859375
0.0216064453125
-0.073974609375
0.0142822265625
-0.03662109375
0.0047607421875
-0.0157470703125
-0.00146484375
0.0029296875
-0.00146484375
0.0128173828125
0.0
0.0018310546875
-0.0010986328125
-0.005859375
-0.0003662109375
-0.0054931640625
-0.0010986328125
0.003662109375
-0.00146484375
0.0054931640625
0.0010986328125
-0.0032958984375
0.0
-0.0098876953125
-0.000732421875
-0.0003662109375
-0.0003662109375
0.0106201171875
-0.000732421875
0.0025634765625
-0.0003662109375
-0.0040283203125
0.0
-0.005126953125
0.00732421875
-0.0018310546875
0.0047607421875
0.0362548828125
-0.0098876953125
0.057861328125
-0.0186767578125
0.019775390625
0.0018310546875
-0.04833984375
0.0106201171875
-0.0618896484375
-0.0025634765625
-0.0194091796875
0.0010986328125
-0.0054931640625
-0.0003662109375
-0.010986328125
-0.0040283203125
-0.0172119140625
-0.006591796875
-0.0234375
-0.0010986328125
-0.00732421875
0.0084228515625
0.0267333984375
0.0069580078125
0.0347900390625
0.00146484375
0.0194091796875
0.0018310546875
-0.002197265625
0.0010986328125
0.0003662109375
-0.0025634765625
0.010986328125
-0.0018310546875
0.006591796875
0.000732421875
0.00146484375
0.0003662109375
-0.002197265625
0.0018310546875
-0.00732421875
0.0018310546875
-0.00732421875
-0.0003662109375
0.006591796875
-0.000732421875
0.0069580078125
-0.0003662109375
0.0003662109375
0.0
-0.002197265625
0.002197265625
-0.0054931640625
-0.0010986328125
0.005126953125
-0.00439453125
0.0054931640625
0.0
-0.0040283203125
0.0076904296875
-0.005126953125
0.005126953125
0.030029296875
-0.0084228515625
0.043212890625
-0.0135498046875
0.0216064453125
0.000732421875
-0.0399169921875
0.0087890625
-0.0604248046875
0.0018310546875
-0.013916015625
-0.0003662109375
-0.0069580078125
-0.0010986328125
-0.008056640625
-0.0029296875
-0.015380859375
-0.0076904296875
-0.017578125
-0.0025634765625
-0.0069580078125
0.008056640625
0.0234375
0.0069580078125
0.0347900390625
0.002197265625
0.01318359375
-0.0003662109375
0.005859375
-0.002197265625
0.00732421875
0.0003662109375
0.0
0.00146484375
-0.00439453125
0.0003662109375
0.0
-0.0003662109375
0.0047607421875
0.0
0.005859375
0.0010986328125
-0.0003662109375
-0.00146484375
-0.005859375
-0.0010986328125
-0.0003662109375
0.00439453125
-0.0040283203125
0.0047607421875
0.000732421875
-0.0164794921875
0.0164794921875
-0.0223388671875
-0.0091552734375
0.005859375
0.0230712890625
0.0146484375
0.01611328125
0.0091552734375
-0.0340576171875
0.003662109375
-0.00439453125
-0.00146484375
0.0
-0.0010986328125
-0.00439453125
0.0025634765625
-0.0010986328125
0.0069580078125
-0.005859375
0.0025634765625
-0.01171875
-0.0076904296875
-0.0120849609375
-0.00732421875
0.0029296875
0.0010986328125
0.0128173828125
0.000732421875
0.0054931640625
-0.0003662109375
0.000732421875
-0.0025634765625
0.00439453125
-0.000732421875
0.0025634765625
0.0010986328125
0.0003662109375
-0.000732421875
-0.0029296875
0.000732421875
-0.0069580078125
0.000732421875
0.000732421875
0.0
0.005859375
-0.0025634765625
0.0029296875
-0.0010986328125
-0.0029296875
0.0018310546875
-0.0029296875
0.0003662109375
0.003662109375
0.0
0.0047607421875
0.000732421875
-0.000732421875
0.0054931640625
-0.0172119140625
0.005859375
-0.006591796875
-0.0135498046875
0.0325927734375
-0.0223388671875
0.005859375
-0.00146484375
-0.00439453125
0.010986328125
0.0340576171875
0.0106201171875
-0.0128173828125
0.008056640625
-0.0340576171875
0.00146484375
0.0
0.0018310546875
-0.0025634765625
0.0010986328125
-0.0087890625
0.0
-0.00146484375
0.0003662109375
-0.002197265625
-0.0025634765625
-0.0157470703125
-0.0025634765625
-0.0047607421875
-0.002197265625
0.01025390625
0.0003662109375
0.0113525390625
-0.0003662109375
0.009521484375
-0.0010986328125
0.0047607421875
0.0010986328125
-0.0010986328125
0.00146484375
-0.0029296875
0.0003662109375
-0.002197265625
-0.0010986328125
-0.000732421875
-0.0010986328125
0.00146484375
-0.0018310546875
0.0010986328125
0.00146484375
0.000732421875
0.00439453125
-0.0135498046875
0.0040283203125
-0.00439453125
-0.0113525390625
0.0311279296875
-0.021240234375
-0.0003662109375
-0.0091552734375
-0.00732421875
0.005859375
0.0545654296875
0.0179443359375
-0.0098876953125
0.0106201171875
-0.0509033203125
0.0003662109375
0.00146484375
0.0003662109375
0.0010986328125
0.003662109375
-0.010986328125
0.0054931640625
-0.01025390625
0.000732421875
-0.002197265625
-0.0054931640625
-0.0003662109375
-0.005859375
0.005126953125
-0.0003662109375
0.0029296875
0.0
-0.003662109375
-0.0003662109375
0.0018310546875
0.0010986328125
0.0091552734375
0.0003662109375
0.009521484375
-0.00146484375
-0.0003662109375
-0.002197265625
-0.008056640625
-0.0018310546875
0.0018310546875
0.000732421875
0.0018310546875
0.0025634765625
-0.0029296875
-0.00146484375
-0.000732421875
-0.00146484375
-0.0029296875
0.0010986328125
-0.0010986328125
0.0062255859375
-0.0047607421875
0.003662109375
0.002197265625
-0.0205078125
0.021240234375
-0.0223388671875
-0.003662109375
0.0029296875
0.01318359375
0.0194091796875
0.015380859375
0.0142822265625
-0.0303955078125
-0.0003662109375
-0.0113525390625
-0.0025634765625
0.0029296875
0.000732421875
0.0029296875
0.0029296875
0.00146484375
0.003662109375
-0.0106201171875
0.000732421875
-0.0157470703125
-0.005859375
-0.008056640625
-0.00439453125
0.0150146484375
0.002197265625
0.0128173828125
0.000732421875
-0.0018310546875
0.0
0.0010986328125
0.0
0.0047607421875
0.0
0.0084228515625
0.0018310546875
-0.0040283203125
0.000732421875
-0.0062255859375
-0.0010986328125
0.0062255859375
-0.0010986328125
0.0054931640625
-0.002197265625
0.0
-0.0018310546875
-0.0047607421875
0.0
-0.0018310546875
0.0
-0.0018310546875
0.0
-0.0018310546875
0.0
0.0069580078125
0.0
0.006591796875
-0.00146484375
-0.005126953125
-0.002197265625
-0.009521484375
0.003662109375
-0.0091552734375
0.000732421875
0.01318359375
-0.0172119140625
0.0172119140625
-0.0120849609375
-0.0179443359375
0.00732421875
0.0494384765625
0.01171875
0.0087890625
0.008056640625
-0.0567626953125
0.002197265625
0.0025634765625
0.0018310546875
-0.0018310546875
0.0018310546875
-0.0032958984375
0.0
-0.0010986328125
0.0054931640625
-0.0135498046875
0.0025634765625
-0.0186767578125
-0.0054931640625
-0.005126953125
-0.0047607421875
0.017578125
-0.00146484375
0.01904296875
0.0018310546875
0.0003662109375
0.0025634765625
-0.0087890625
0.00146484375
-0.005859375
-0.00146484375
0.0120849609375
0.000732421875
0.0054931640625
0.0040283203125
-0.005859375
-0.009521484375
0.016845703125
-0.02197265625
-0.008056640625
-0.0087890625
-0.01171875
0.0076904296875
0.0633544921875
0.01904296875
-0.008056640625
0.01318359375
-0.0596923828125
-0.0010986328125
0.0
0.000732421875
0.00146484375
0.0
0.0098876953125
0.0003662109375
0.0054931640625
0.0032958984375
-0.018310546875
-0.003662109375
-0.018310546875
-0.005859375
0.00732421875
-0.0003662109375
0.01904296875
0.002197265625
0.0047607421875
0.0010986328125
-0.0087890625
-0.0018310546875
-0.0003662109375
0.0
0.005126953125
0.0003662109375
0.0025634765625
-0.000732421875
0.0025634765625
-0.0003662109375
0.0010986328125
-0.002197265625
0.005126953125
0.0
-0.0003662109375
0.0010986328125
-0.0025634765625
-0.00146484375
-0.0010986328125
-0.0003662109375
-0.0003662109375
0.0029296875
-0.0025634765625
0.0010986328125
0.00732421875
0.0010986328125
0.03662109375
0.008056640625
0.0355224609375
-0.006591796875
0.0362548828125
-0.0084228515625
-0.006591796875
0.006591796875
-0.06005859375
-0.00146484375
-0.0567626953125
-0.0084228515625
-0.0296630859375
-0.003662109375
-0.002197265625
-0.00146484375
-0.015380859375
-0.005859375
-0.028564453125
-0.0069580078125
-0.0205078125
0.000732421875
0.0120849609375
0.0091552734375
0.034423828125
0.0087890625
0.0267333984375
0.00439453125
0.019775390625
0.000732421875
0.0113525390625
0.0
0.009521484375
0.00146484375
-0.0018310546875
0.0018310546875
-0.010986328125
-0.00146484375
0.0
-0.0010986328125
0.0040283203125
0.00146484375
0.0
0.003662109375
-0.0025634765625
0.000732421875
0.0
-0.003662109375
0.00146484375
-0.00146484375
0.00439453125
0.0032958984375
0.002197265625
0.003662109375
0.0010986328125
0.0010986328125
-0.0091552734375
-0.0018310546875
0.0010986328125
-0.01904296875
0.0340576171875
-0.0120849609375
0.0106201171875
0.0194091796875
0.0289306640625
0.0087890625
-0.0098876953125
-0.0076904296875
-0.0501708984375
0.000732421875
-0.006591796875
0.0047607421875
-0.0062255859375
-0.000732421875
0.0025634765625
-0.0062255859375
0.0003662109375
-0.0040283203125
-0.01171875
-0.0010986328125
-0.0186767578125
0.0018310546875
0.000732421875
0.002197265625
0.0179443359375
-0.0018310546875
0.0113525390625
-0.0010986328125
0.0029296875
-0.0010986328125
0.0025634765625
-0.0029296875
0.0032958984375
-0.003662109375
0.0025634765625
-0.003662109375
0.0032958984375
-0.003662109375
0.0040283203125
-0.00439453125
0.0069580078125
-0.000732421875
0.00146484375
-0.00146484375
0.005126953125
-0.0025634765625
0.0062255859375
0.0069580078125
-0.0120849609375
0.008056640625
-0.005126953125
-0.0135498046875
0.0135498046875
-0.01904296875
-0.0113525390625
0.00146484375
0.0091552734375
0.01171875
0.016845703125
0.0087890625
-0.0216064453125
0.005126953125
-0.0087890625
0.002197265625
0.0098876953125
0.00146484375
0.00439453125
0.003662109375
-0.0106201171875
0.0069580078125
-0.017578125
0.008056640625
-0.0216064453125
0.00146484375
-0.0091552734375
-0.0054931640625
0.0208740234375
0.0010986328125
0.01318359375
0.0076904296875
-0.0120849609375
0.008056640625
-0.01171875
0.0091552734375
-0.005126953125
0.00439453125
0.0025634765625
-0.0010986328125
0.0010986328125
-0.0010986328125
0.0
-0.0003662109375
-0.0018310546875
0.0003662109375
0.0003662109375
0.0032958984375
-0.002197265625
-0.0003662109375
0.0
-0.005126953125
0.0069580078125
-0.0029296875
0.0003662109375
0.00146484375
-0.002197265625
0.0029296875
-0.006591796875
-0.00146484375
-0.0025634765625
-0.0047607421875
0.00732421875
-0.002197265625
0.0076904296875
0.0010986328125
0.002197265625
0.0047607421875
-0.0113525390625
0.0032958984375
0.0062255859375
-0.0234375
0.040283203125
-0.0069580078125
0.046142578125
0.01318359375
-0.02197265625
0.000732421875
-0.06298828125
0.002197265625
-0.016845703125
-0.00146484375
0.0054931640625
-0.0010986328125
0.000732421875
-0.002197265625
-0.0047607421875
-0.0018310546875
-0.01318359375
-0.002197265625
-0.0216064453125
-0.0010986328125
-0.0029296875
0.00146484375
0.024169921875
0.0029296875
0.0208740234375
0.0025634765625
0.0010986328125
0.0003662109375
-0.0003662109375
-0.0003662109375
0.01025390625
0.002197265625
-0.00146484375
0.005126953125
-0.005859375
-0.0146484375
0.00439453125
-0.01904296875
-0.017578125
0.0040283203125
0.031494140625
0.016845703125
0.0164794921875
0.0142822265625
-0.0380859375
0.000732421875
0.0010986328125
-0.0010986328125
0.0040283203125
0.000732421875
0.0
-0.0018310546875
-0.0029296875
0.0
-0.0076904296875
-0.000732421875
-0.0062255859375
-0.0040283203125
0.0010986328125
-0.0029296875
0.0172119140625
-0.0003662109375
0.013916015625
-0.00146484375
0.002197265625
-0.0032958984375
0.0069580078125
-0.0018310546875
0.0047607421875
-0.0003662109375
0.0003662109375
0.0
-0.0003662109375
0.0
0.002197265625
0.0
0.0054931640625
-0.0025634765625
-0.002197265625
0.0
-0.005859375
0.0010986328125
-0.005859375
0.0
0.0
0.0047607421875
0.00146484375
0.0076904296875
0.0205078125
-0.0128173828125
0.043212890625
-0.009521484375
0.0633544921875
0.0076904296875
-0.0157470703125
0.0018310546875
-0.09375
0.0018310546875
-0.03515625
0.0
-0.0029296875
0.0003662109375
-0.01171875
-0.0040283203125
-0.01171875
-0.00732421875
-0.01171875
-0.0032958984375
-0.0205078125
0.0029296875
0.0032958984375
0.005859375
0.0362548828125
0.00439453125
0.0263671875
0.0025634765625
0.006591796875
0.0003662109375
0.00146484375
-0.0025634765625
0.0
-0.0032958984375
0.0029296875
0.00146484375
-0.0025634765625
0.0040283203125
0.0003662109375
0.0
0.0018310546875
-0.00146484375
-0.0003662109375
0.003662109375
-0.00732421875
0.0032958984375
0.0
-0.013916015625
0.02783203125
-0.021240234375
-0.0025634765625
-0.0087890625
-0.005126953125
0.009521484375
0.038818359375
0.0201416015625
-0.01171875
0.005859375
-0.032958984375
0.000732421875
0.000732421875
0.0054931640625
-0.0084228515625
0.00146484375
-0.0091552734375
0.002197265625
-0.003662109375
0.0
-0.0040283203125
-0.003662109375
-0.005859375
-0.0032958984375
0.0
-0.0029296875
0.01025390625
-0.0029296875
0.01171875
-0.0029296875
0.008056640625
0.0029296875
-0.0040283203125
0.00439453125
-0.0069580078125
-0.0029296875
-0.0003662109375
-0.0040283203125
0.003662109375
-0.0003662109375
0.0069580078125
0.0010986328125
-0.0040283203125
-0.0018310546875
-0.00732421875
0.000732421875
-0.0098876953125
0.005126953125
-0.000732421875
-0.0113525390625
0.0267333984375
-0.0194091796875
-0.0010986328125
-0.0029296875
0.01025390625
0.0106201171875
0.0263671875
0.0142822265625
-0.0303955078125
0.005859375
-0.0274658203125
0.002197265625
0.0025634765625
0.0032958984375
0.0
0.000732421875
-0.00439453125
0.0040283203125
-0.0091552734375
0.002197265625
-0.013916015625
-0.00439453125
-0.005859375
-0.0018310546875
0.002197265625
0.0003662109375
0.0087890625
-0.0010986328125
0.0040283203125
-0.0003662109375
0.0091552734375
0.0018310546875
0.0062255859375
0.002197265625
-0.0087890625
-0.0010986328125
-0.00146484375
-0.00439453125
0.0029296875
-0.0029296875
0.0098876953125
0.0025634765625
0.0029296875
0.0032958984375
-0.0084228515625
0.00146484375
-0.0106201171875
-0.0010986328125
-0.0025634765625
-0.0018310546875
0.0106201171875
0.0010986328125
0.005126953125
0.0025634765625
-0.0025634765625
0.0032958984375
-0.0120849609375
-0.0018310546875
0.003662109375
-0.01904296875
0.0164794921875
-0.013916015625
-0.0087890625
0.0069580078125
0.0406494140625
0.0135498046875
0.002197265625
0.0091552734375
-0.052734375
0.00146484375
0.0032958984375
0.002197265625
0.00439453125
0.0025634765625
-0.0032958984375
0.0
-0.0062255859375
0.000732421875
-0.0040283203125
0.0010986328125
-0.0047607421875
-0.0040283203125
-0.0087890625
-0.00439453125
0.003662109375
-0.0003662109375
0.0128173828125
0.0003662109375
0.005859375
-0.0003662109375
0.00439453125
-0.000732421875
0.005859375
-0.0003662109375
0.0054931640625
0.0003662109375
0.00146484375
0.000732421875
-0.00732421875
0.00146484375
-0.0120849609375
-0.0003662109375
-0.0054931640625
-0.0018310546875
0.0087890625
0.0003662109375
0.0054931640625
0.0040283203125
-0.012451171875
0.0029296875
-0.0029296875
-0.01171875
0.0369873046875
-0.022705078125
0.0150146484375
-0.0084228515625
-0.0106201171875
0.005126953125
0.052001953125
0.01611328125
-0.0208740234375
0.01611328125
-0.062255859375
0.0029296875
0.0069580078125
0.0025634765625
-0.0010986328125
0.0018310546875
-0.0032958984375
0.0
-0.0032958984375
0.0018310546875
-0.00439453125
-0.0029296875
-0.005859375
-0.006591796875
0.00146484375
-0.0003662109375
0.0029296875
0.0
0.0047607421875
-0.00146484375
0.012451171875
0.0
0.00732421875
0.0040283203125
-0.00732421875
0.0040283203125
-0.00439453125
-0.01904296875
0.0157470703125
-0.0201416015625
-0.00439453125
0.0106201171875
0.0443115234375
0.0172119140625
0.0062255859375
0.0069580078125
-0.05712890625
-0.005859375
0.00732421875
-0.0047607421875
0.0087890625
0.005126953125
-0.0047607421875
0.005126953125
-0.0091552734375
0.0047607421875
-0.0106201171875
-0.00146484375
-0.00732421875
-0.0087890625
0.0047607421875
-0.0062255859375
0.0135498046875
0.0010986328125
0.0062255859375
0.0010986328125
0.002197265625
-0.00146484375
0.002197265625
-0.0003662109375
0.003662109375
-0.0025634765625
0.003662109375
-0.0029296875
0.006591796875
-0.00439453125
0.01025390625
0.0010986328125
-0.0025634765625
0.005859375
-0.002197265625
-0.0164794921875
0.0098876953125
-0.0179443359375
-0.008056640625
0.003662109375
0.0355224609375
0.01025390625
0.0106201171875
0.0091552734375
-0.0450439453125
0.0069580078125
-0.0025634765625
0.0029296875
0.0
-0.00146484375
0.000732421875
0.002197265625
-0.0018310546875
0.0054931640625
-0.01611328125
0.0018310546875
-0.0142822265625
-0.0069580078125
0.0084228515625
-0.0047607421875
0.013916015625
0.0018310546875
-0.0003662109375
0.000732421875
-0.0040283203125
0.0010986328125
-0.008056640625
0.0003662109375
0.008056640625
-0.0018310546875
0.0172119140625
-0.0025634765625
-0.0010986328125
-0.000732421875
-0.0098876953125
0.00146484375
-0.0084228515625
0.000732421875
0.0029296875
0.000732421875
0.000732421875
0.0032958984375
-0.0054931640625
-0.005126953125
0.0164794921875
-0.013916015625
-0.0084228515625
0.0
-0.03515625
0.008056640625
0.064453125
0.01318359375
0.01171875
0.0146484375
-0.0670166015625
0.0069580078125
-0.0029296875
0.0054931640625
-0.00146484375
0.0054931640625
-0.0054931640625
0.0069580078125
-0.0113525390625
0.003662109375
-0.0128173828125
-0.002197265625
-0.0084228515625
-0.005859375
0.00439453125
-0.0025634765625
0.0146484375
0.0010986328125
0.0003662109375
-0.0003662109375
-0.0025634765625
-0.0010986328125
0.005126953125
-0.0010986328125
0.00439453125
-0.0018310546875
0.003662109375
-0.0018310546875
-0.00146484375
-0.0010986328125
-0.0040283203125
0.0
-0.0003662109375
0.0010986328125
-0.0018310546875
0.0003662109375
-0.0010986328125
-0.002197265625
0.0098876953125
-0.0025634765625
0.0084228515625
0.0003662109375
-0.0098876953125
0.003662109375
-0.0120849609375
-0.00732421875
0.021240234375
-0.0186767578125
0.0040283203125
-0.006591796875
-0.0205078125
0.0025634765625
0.0673828125
0.01171875
0.0054931640625
0.0128173828125
-0.0670166015625
0.0
-0.0018310546875
-0.0010986328125
0.005126953125
0.000732421875
0.005859375
0.0018310546875
-0.0054931640625
0.00146484375
-0.016845703125
-0.0032958984375
-0.0142822265625
-0.0054931640625
0.0084228515625
-0.0010986328125
0.016845703125
-0.000732421875
0.0018310546875
-0.00146484375
-0.0003662109375
-0.0018310546875
0.002197265625
0.000732421875
0.0062255859375
0.0003662109375
0.0054931640625
-0.0025634765625
-0.0003662109375
-0.0025634765625
-0.002197265625
-0.0018310546875
-0.0040283203125
0.003662109375
-0.0040283203125
0.002197265625
0.00146484375
-0.0029296875
0.003662109375
-0.0029296875
0.0029296875
0.005859375
-0.009521484375
0.0047607421875
-0.0010986328125
-0.01611328125
0.0150146484375
-0.0164794921875
-0.0106201171875
0.00146484375
0.030029296875
0.0142822265625
0.0076904296875
0.0106201171875
-0.04248046875
0.0003662109375
0.0040283203125
0.0010986328125
0.00732421875
0.0018310546875
0.00146484375
0.0018310546875
-0.00146484375
0.0029296875
-0.00732421875
0.0010986328125
-0.01318359375
-0.00732421875
-0.010986328125
-0.0054931640625
0.0098876953125
0.002197265625
0.012451171875
0.003662109375
0.0018310546875
0.000732421875
0.002197265625
-0.0040283203125
0.00439453125
-0.000732421875
0.002197265625
0.002197265625
0.0
0.0003662109375
-0.0010986328125
-0.002197265625
-0.0029296875
-0.0003662109375
-0.0018310546875
0.0025634765625
0.000732421875
0.0040283203125
-0.0025634765625
0.0025634765625
0.0
-0.016845703125
0.0128173828125
-0.0201416015625
-0.010986328125
0.005126953125
0.005859375
0.0150146484375
0.02197265625
0.0087890625
-0.01611328125
0.0029296875
-0.010986328125
0.000732421875
0.002197265625
0.0025634765625
-0.0025634765625
0.0029296875
-0.002197265625
0.002197265625
-0.0062255859375
0.0010986328125
-0.01318359375
-0.0054931640625
-0.0032958984375
-0.0047607421875
0.0098876953125
0.0010986328125
0.0047607421875
0.0010986328125
0.0018310546875
0.0003662109375
0.0098876953125
0.00146484375
0.0029296875
0.0032958984375
-0.005859375
0.0003662109375
-0.008056640625
-0.003662109375
0.0010986328125
-0.002197265625
0.009521484375
0.0032958984375
0.0003662109375
0.013916015625
-0.0234375
0.0128173828125
-0.0142822265625
-0.015380859375
0.021240234375
-0.0230712890625
0.009521484375
0.0025634765625
0.0135498046875
0.016845703125
0.0047607421875
0.0106201171875
-0.03076171875
0.0003662109375
-0.012451171875
0.0
0.0113525390625
0.00146484375
0.008056640625
0.000732421875
-0.0040283203125
0.0010986328125
-0.009521484375
-0.0003662109375
-0.0113525390625
-0.005126953125
-0.0032958984375
-0.006591796875
0.0091552734375
-0.00146484375
0.0106201171875
0.0003662109375
0.0029296875
-0.00146484375
0.0113525390625
-0.0018310546875
0.0113525390625
-0.00146484375
0.0003662109375
-0.000732421875
-0.0003662109375
-0.0010986328125
-0.0076904296875
0.006591796875
-0.0142822265625
0.003662109375
0.006591796875
-0.022705078125
0.0234375
-0.030029296875
-0.00439453125
-0.0018310546875
0.0322265625
0.01318359375
0.0164794921875
0.0029296875
-0.0263671875
-0.00146484375
0.00439453125
-0.0018310546875
0.0010986328125
0.002197265625
-0.0029296875
0.0029296875
-0.009521484375
0.0032958984375
-0.01318359375
0.0010986328125
-0.0091552734375
-0.006591796875
-0.00439453125
-0.0025634765625
0.0076904296875
0.000732421875
0.0128173828125
-0.0010986328125
0.01025390625
0.0
0.0029296875
0.00146484375
-0.003662109375
0.002197265625
-0.0018310546875
0.002197265625
-0.002197265625
0.000732421875
0.0029296875
0.0003662109375
-0.0003662109375
0.0029296875
-0.006591796875
0.0025634765625
-0.002197265625
0.002197265625
0.00439453125
0.0010986328125
0.0040283203125
-0.0003662109375
-0.0018310546875
0.000732421875
-0.006591796875
0.0047607421875
-0.0087890625
0.01025390625
0.0205078125
-0.0157470703125
0.05126953125
-0.016845703125
0.0765380859375
0.0084228515625
-0.0274658203125
0.009521484375
-0.10400390625
0.005859375
-0.0267333984375
-0.003662109375
0.0018310546875
-0.0047607421875
-0.0018310546875
-0.002197265625
-0.0135498046875
-0.0018310546875
-0.024169921875
-0.003662109375
-0.021240234375
0.0
0.0069580078125
0.005126953125
0.03369140625
0.006591796875
0.01904296875
0.0054931640625
0.000732421875
-0.0018310546875
0.00439453125
-0.0032958984375
0.0054931640625
-0.00146484375
0.0032958984375
0.002197265625
-0.0018310546875
0.0018310546875
-0.0029296875
0.0
0.000732421875
-0.0010986328125
0.0032958984375
-0.00146484375
0.0
0.0025634765625
-0.0040283203125
0.00146484375
-0.00439453125
-0.0025634765625
0.0025634765625
-0.0029296875
0.006591796875
0.0010986328125
0.002197265625
0.0029296875
-0.0047607421875
0.00146484375
-0.0084228515625
-0.00146484375
0.0032958984375
0.002197265625
0.0146484375
0.00146484375
0.04248046875
0.0069580078125
0.04833984375
-0.0091552734375
0.0194091796875
-0.0076904296875
-0.0281982421875
0.0091552734375
-0.0556640625
-0.0054931640625
-0.04248046875
-0.0054931640625
-0.0245361328125
-0.0032958984375
-0.006591796875
-0.0025634765625
-0.021240234375
-0.0032958984375
-0.0413818359375
-0.00146484375
-0.0281982421875
0.0069580078125
0.018310546875
0.010986328125
0.0450439453125
0.0098876953125
0.0252685546875
0.0069580078125
0.00439453125
0.0010986328125
0.002197265625
-0.0025634765625
0.0146484375
-0.00146484375
0.01611328125
-0.0010986328125
0.0003662109375
-0.00146484375
-0.009521484375
-0.0010986328125
-0.0054931640625
0.000732421875
-0.003662109375
0.003662109375
0.002197265625
0.0018310546875
0.0106201171875
-0.0040283203125
0.0040283203125
-0.0032958984375
-0.0040283203125
0.0003662109375
-0.0069580078125
0.003662109375
-0.005126953125
-0.003662109375
0.015380859375
-0.0274658203125
0.034423828125
-0.028564453125
-0.0029296875
-0.0032958984375
0.0157470703125
0.012451171875
0.028564453125
0.0128173828125
-0.029296875
0.0029296875
-0.01904296875
-0.005126953125
0.0032958984375
-0.0029296875
0.0047607421875
0.0010986328125
0.000732421875
0.0062255859375
-0.01171875
0.0003662109375
-0.0076904296875
-0.0106201171875
-0.0069580078125
-0.0076904296875
0.0029296875
-0.002197265625
0.01611328125
0.0029296875
0.00439453125
0.0032958984375
-0.009521484375
-0.0018310546875
-0.00439453125
-0.003662109375
0.008056640625
-0.0047607421875
0.0084228515625
-0.00146484375
0.003662109375
0.000732421875
0.000732421875
-0.000732421875
0.000732421875
0.0003662109375
-0.002197265625
0.0018310546875
-0.000732421875
0.003662109375
-0.006591796875
0.0029296875
-0.0032958984375
0.0010986328125
-0.002197265625
-0.0010986328125
-0.000732421875
-0.01025390625
0.0263671875
-0.0135498046875
-0.01025390625
0.0025634765625
-0.0238037109375
0.00732421875
0.0655517578125
0.0091552734375
0.0018310546875
0.01025390625
-0.05712890625
0.0025634765625
-0.00439453125
0.003662109375
-0.0018310546875
0.0025634765625
0.00439453125
0.0062255859375
-0.0054931640625
0.01318359375
-0.0274658203125
0.00439453125
-0.02197265625
-0.0029296875
0.0018310546875
0.003662109375
0.0106201171875
0.005859375
0.005859375
0.00439453125
-0.0054931640625
0.0032958984375
0.000732421875
0.0010986328125
0.009521484375
-0.0010986328125
0.0098876953125
0.0010986328125
-0.0054931640625
0.0018310546875
-0.0098876953125
0.0003662109375
0.0010986328125
-0.000732421875
0.003662109375
-0.00146484375
0.0062255859375
0.0010986328125
-0.0040283203125
0.0018310546875
-0.0047607421875
-0.000732421875
0.0054931640625
-0.0018310546875
0.006591796875
0.0003662109375
-0.01318359375
0.0029296875
-0.015380859375
-0.0054931640625
0.027099609375
-0.0201416015625
0.016845703125
-0.009521484375
-0.02197265625
0.0054931640625
0.0538330078125
0.01171875
0.005859375
0.0098876953125
-0.0633544921875
-0.0003662109375
0.00439453125
-0.0003662109375
0.00732421875
-0.000732421875
0.005859375
0.0
-0.005126953125
0.0032958984375
-0.0201416015625
0.0025634765625
-0.019775390625
-0.0025634765625
-0.0091552734375
-0.00439453125
0.0230712890625
-0.0047607421875
0.0263671875
-0.0018310546875
-0.0025634765625
0.0029296875
-0.01318359375
0.002197265625
-0.00146484375
0.0010986328125
0.008056640625
-0.0018310546875
0.003662109375
-0.0003662109375
-0.003662109375
0.000732421875
-0.003662109375
-0.0003662109375
0.0010986328125
0.0003662109375
0.00146484375
0.0032958984375
-0.0069580078125
0.005126953125
-0.006591796875
-0.0135498046875
0.021240234375
-0.02197265625
0.0025634765625
-0.005859375
0.0010986328125
0.0128173828125
0.0391845703125
0.0164794921875
-0.01611328125
0.0054931640625
-0.0406494140625
0.0003662109375
-0.0003662109375
0.0047607421875
0.0025634765625
0.0062255859375
-0.00146484375
0.0029296875
-0.0047607421875
0.0040283203125
-0.0120849609375
0.0003662109375
-0.01611328125
-0.003662109375
-0.0010986328125
-0.0029296875
0.0135498046875
-0.0032958984375
0.008056640625
0.0003662109375
0.003662109375
0.0029296875
-0.00146484375
-0.0003662109375
0.0
-0.003662109375
0.0029296875
-0.0029296875
0.005126953125
0.000732421875
0.008056640625
0.0029296875
-0.006591796875
0.0029296875
-0.012451171875
-0.0098876953125
0.0223388671875
-0.0205078125
0.008056640625
-0.0069580078125
-0.016845703125
0.0029296875
0.0673828125
0.01171875
0.0025634765625
0.0146484375
-0.06591796875
0.0010986328125
-0.000732421875
-0.002197265625
0.0032958984375
0.0
0.0029296875
0.00439453125
-0.005859375
0.0062255859375
-0.0146484375
-0.0047607421875
-0.0106201171875
-0.01025390625
0.005859375
-0.002197265625
0.0142822265625
0.0010986328125
0.0128173828125
-0.000732421875
0.0054931640625
-0.000732421875
-0.0069580078125
-0.0003662109375
0.000732421875
0.0003662109375
0.003662109375
0.005859375
-0.01171875
0.002197265625
0.00146484375
-0.0194091796875
0.021240234375
-0.0194091796875
-0.008056640625
0.005859375
0.0087890625
0.0113525390625
0.0216064453125
0.002197265625
-0.01318359375
-0.00146484375
-0.0047607421875
-0.0003662109375
0.0032958984375
0.000732421875
-0.0018310546875
-0.0029296875
-0.0025634765625
-0.002197265625
0.0025634765625
0.0018310546875
-0.0084228515625
-0.0029296875
-0.008056640625
-0.00439453125
0.0029296875
-0.002197265625
0.0025634765625
-0.002197265625
0.005859375
-0.000732421875
0.0076904296875
-0.00146484375
0.0098876953125
-0.00146484375
0.0010986328125
0.0003662109375
-0.006591796875
0.003662109375
-0.0047607421875
-0.002197265625
0.009521484375
-0.0194091796875
0.013916015625
-0.01318359375
-0.016845703125
0.0076904296875
0.0205078125
0.0113525390625
0.013916015625
0.006591796875
-0.0245361328125
0.0032958984375
-0.003662109375
0.0025634765625
-0.005859375
0.0025634765625
-0.0054931640625
0.0025634765625
-0.00439453125
0.00146484375
0.0062255859375
-0.0010986328125
-0.006591796875
-0.0032958984375
-0.0186767578125
-0.00146484375
0.0003662109375
0.0018310546875
0.0142822265625
0.0010986328125
0.018310546875
0.0018310546875
-0.0010986328125
0.0029296875
-0.0172119140625
0.0
-0.0062255859375
-0.000732421875
0.0098876953125
0.0
0.006591796875
-0.0003662109375
-0.00439453125
0.0
-0.003662109375
0.00146484375
-0.002197265625
0.003662109375
-0.0018310546875
0.0018310546875
-0.0029296875
0.00146484375
-0.003662109375
0.003662109375
-0.0018310546875
0.0091552734375
0.0234375
-0.005126953125
0.0377197265625
-0.013916015625
0.07177734375
0.0029296875
-0.0142822265625
0.0084228515625
-0.10107421875
0.006591796875
-0.029296875
-0.0003662109375
-0.0032958984375
-0.0025634765625
-0.01611328125
-0.0032958984375
-0.013916015625
-0.0032958984375
-0.0128173828125
-0.002197265625
-0.0234375
0.0018310546875
-0.0025634765625
0.0047607421875
0.034423828125
0.00146484375
0.03515625
0.00146484375
0.01318359375
-0.0010986328125
0.005126953125
-0.00146484375
0.000732421875
0.000732421875
-0.0054931640625
-0.000732421875
-0.0003662109375
-0.0003662109375
0.0025634765625
0.0025634765625
-0.0084228515625
0.0040283203125
-0.000732421875
-0.01171875
0.0260009765625
-0.019775390625
-0.00146484375
-0.0025634765625
-0.0216064453125
0.009521484375
0.0340576171875
0.0128173828125
0.0029296875
0.0076904296875
-0.0318603515625
0.0029296875
0.005126953125
-0.0010986328125
0.0062255859375
0.0
-0.00439453125
0.0040283203125
-0.0120849609375
0.002197265625
-0.012451171875
-0.0029296875
-0.00439453125
-0.005126953125
0.016845703125
-0.000732421875
0.0120849609375
-0.000732421875
-0.0087890625
0.0
-0.005859375
0.00146484375
0.0018310546875
0.000732421875
0.0069580078125
-0.000732421875
0.0025634765625
-0.0003662109375
-0.00732421875
-0.0003662109375
-0.0084228515625
-0.002197265625
0.0032958984375
0.000732421875
0.0157470703125
0.00439453125
0.0032958984375
0.0040283203125
-0.013916015625
-0.0025634765625
-0.0003662109375
-0.0201416015625
0.010986328125
-0.0128173828125
-0.0142822265625
0.0087890625
0.0384521484375
0.015380859375
0.013916015625
0.0106201171875
-0.0479736328125
0.002197265625
-0.0054931640625
0.002197265625
0.0025634765625
0.003662109375
-0.0029296875
0.0032958984375
-0.0062255859375
0.0029296875
-0.00439453125
0.0003662109375
-0.0062255859375
-0.005126953125
-0.0054931640625
-0.0029296875
-0.000732421875
-0.000732421875
0.0040283203125
0.0
0.013916015625
0.000732421875
0.0135498046875
0.000732421875
-0.0025634765625
0.0010986328125
-0.0135498046875
0.0
-0.0047607421875
-0.0076904296875
0.0325927734375
-0.01611328125
0.0003662109375
-0.00732421875
-0.03369140625
0.0029296875
0.054931640625
0.01025390625
0.0128173828125
0.01025390625
-0.0377197265625
0.005859375
0.000732421875
0.003662109375
-0.0157470703125
-0.0010986328125
-0.01318359375
-0.0003662109375
-0.00439453125
0.0003662109375
0.0113525390625
-0.002197265625
0.0054931640625
-0.005126953125
-0.00732421875
-0.0018310546875
-0.0062255859375
-0.0018310546875
0.0025634765625
-0.002197265625
0.0205078125
0.0018310546875
0.01171875
0.00146484375
-0.0106201171875
0.0
-0.009521484375
-0.003662109375
-0.0003662109375
0.0018310546875
0.0040283203125
0.0054931640625
0.00732421875
-0.0120849609375
0.0146484375
-0.0205078125
-0.01171875
-0.005859375
0.01025390625
0.010986328125
0.038818359375
0.0113525390625
-0.0208740234375
0.002197265625
-0.0289306640625
-0.0003662109375
-0.0025634765625
0.00146484375
0.0029296875
0.0025634765625
-0.0018310546875
0.0047607421875
-0.0150146484375
0.0010986328125
-0.0146484375
-0.0084228515625
0.0
-0.01025390625
0.0186767578125
-0.0076904296875
0.015380859375
-0.0040283203125
0.0047607421875
-0.000732421875
0.000732421875
-0.0018310546875
0.005126953125
-0.0025634765625
0.0047607421875
-0.000732421875
-0.0010986328125
-0.0029296875
0.0054931640625
-0.00146484375
0.0003662109375
0.0025634765625
-0.0062255859375
0.0
-0.0032958984375
-0.0003662109375
0.0003662109375
-0.000732421875
0.0091552734375
0.0018310546875
-0.0003662109375
0.003662109375
-0.01025390625
0.000732421875
-0.0025634765625
0.005126953125
0.0113525390625
0.005126953125
0.0421142578125
0.0091552734375
0.0523681640625
-0.0087890625
0.0098876953125
-0.0087890625
-0.028564453125
0.01025390625
-0.0574951171875
0.0025634765625
-0.05712890625
0.00146484375
-0.0201416015625
-0.0010986328125
-0.0087890625
-0.0029296875
-0.018310546875
-0.005859375
-0.028564453125
-0.00146484375
-0.01611328125
0.006591796875
0.02197265625
0.00732421875
0.0399169921875
0.0047607421875
0.0296630859375
0.002197265625
0.012451171875
0.00146484375
0.0025634765625
0.0
0.002197265625
0.0003662109375
-0.0047607421875
0.0
-0.005126953125
-0.00146484375
0.0069580078125
-0.000732421875
0.0084228515625
0.0010986328125
-0.00146484375
0.0025634765625
-0.0040283203125
0.0003662109375
-0.003662109375
-0.0010986328125
0.0025634765625
0.0
-0.000732421875
0.005126953125
-0.0098876953125
0.0076904296875
-0.0025634765625
-0.005126953125
0.0238037109375
-0.0186767578125
-0.0047607421875
-0.0076904296875
-0.0369873046875
0.0054931640625
0.07177734375
0.0164794921875
0.013916015625
0.013916015625
-0.0703125
-0.0003662109375
-0.0054931640625
-0.0010986328125
0.0018310546875
-0.002197265625
0.009521484375
0.00146484375
0.0032958984375
0.0054931640625
-0.010986328125
-0.0003662109375
-0.0157470703125
-0.005859375
-0.0029296875
-0.005126953125
0.0113525390625
-0.0003662109375
0.0062255859375
0.002197265625
0.0040283203125
0.0003662109375
0.0091552734375
-0.00146484375
0.0018310546875
-0.002197265625
-0.0047607421875
-0.000732421875
-0.0047607421875
-0.0003662109375
0.0032958984375
0.00146484375
0.0054931640625
0.00146484375
-0.0032958984375
-0.000732421875
-0.0069580078125
-0.0018310546875
-0.0010986328125
-0.005126953125
0.0113525390625
-0.002197265625
0.012451171875
0.0040283203125
-0.005126953125
0.003662109375
-0.0128173828125
0.0025634765625
-0.0113525390625
0.0
0.0069580078125
-0.018310546875
0.02197265625
-0.0150146484375
-0.0146484375
0.006591796875
0.032958984375
0.0113525390625
0.01171875
0.0069580078125
-0.0384521484375
0.000732421875
0.0106201171875
0.0032958984375
0.0
0.00146484375
-0.0087890625
-0.000732421875
-0.0098876953125
0.002197265625
-0.0054931640625
-0.0003662109375
-0.005859375
-0.0069580078125
-0.0098876953125
-0.0054931640625
0.0032958984375
0.0018310546875
0.009521484375
0.000732421875
0.0106201171875
-0.000732421875
0.0120849609375
0.0
0.0018310546875
-0.0018310546875
-0.0040283203125
-0.0029296875
0.0
-0.0062255859375
0.0025634765625
-0.00732421875
0.0040283203125
-0.0047607421875
0.0003662109375
-0.0029296875
0.000732421875
-0.0047607421875
0.0076904296875
-0.0029296875
0.0054931640625
0.0018310546875
0.00146484375
-0.0029296875
0.00146484375
-0.0054931640625
0.00146484375
-0.00146484375
-0.0025634765625
0.002197265625
-0.0025634765625
0.0040283203125
-0.002197265625
0.00146484375
0.0029296875
0.0010986328125
-0.0029296875
0.003662109375
-0.0054931640625
-0.0087890625
0.0157470703125
-0.01611328125
-0.005126953125
0.0003662109375
0.0003662109375
0.008056640625
0.04541015625
0.0106201171875
-0.0150146484375
0.009521484375
-0.0465087890625
0.0040283203125
-0.0010986328125
0.005126953125
0.0054931640625
0.003662109375
-0.0010986328125
0.0040283203125
-0.01171875
0.0029296875
-0.016845703125
-0.0018310546875
-0.0040283203125
-0.00439453125
0.013916015625
0.002197265625
0.0084228515625
0.006591796875
-0.0084228515625
0.0091552734375
-0.017578125
0.0098876953125
-0.0047607421875
0.0018310546875
0.0106201171875
0.000732421875
0.00732421875
0.0
-0.002197265625
0.0
-0.00439453125
0.00146484375
-0.0032958984375
-0.0003662109375
-0.002197265625
-0.0018310546875
0.002197265625
0.0018310546875
-0.008056640625
0.0040283203125
0.0010986328125
-0.01611328125
0.0216064453125
-0.018310546875
-0.0106201171875
0.0029296875
0.0084228515625
0.01025390625
0.0172119140625
0.01025390625
-0.021240234375
0.003662109375
-0.00439453125
-0.00146484375
0.00439453125
-0.0010986328125
-0.002197265625
0.00146484375
-0.0040283203125
0.003662109375
-0.0025634765625
0.00146484375
-0.00439453125
-0.0054931640625
-0.0098876953125
-0.008056640625
0.0010986328125
-0.000732421875
0.012451171875
0.000732421875
0.0091552734375
0.0003662109375
0.002197265625
0.00146484375
-0.0040283203125
-0.0003662109375
-0.000732421875
-0.0018310546875
0.0029296875
0.002197265625
-0.00146484375
0.0047607421875
-0.000732421875
-0.0150146484375
0.0120849609375
-0.021240234375
-0.0150146484375
0.0010986328125
0.00146484375
0.013916015625
0.027099609375
0.01171875
-0.00732421875
0.0054931640625
-0.0098876953125
0.0
-0.006591796875
-0.0025634765625
-0.000732421875
0.00146484375
0.009521484375
0.005126953125
-0.00146484375
0.002197265625
-0.0142822265625
-0.0062255859375
-0.0146484375
-0.0076904296875
0.0018310546875
0.0003662109375
0.0146484375
0.00146484375
0.0084228515625
0.0
0.0003662109375
-0.0010986328125
0.000732421875
0.000732421875
0.0029296875
0.0003662109375
0.0018310546875
-0.002197265625
0.000732421875
-0.0032958984375
-0.0029296875
-0.0029296875
-0.005126953125
-0.0003662109375
0.00146484375
0.002197265625
-0.0025634765625
-0.000732421875
-0.000732421875
-0.021240234375
0.0318603515625
-0.0274658203125
0.0087890625
-0.005859375
-0.0029296875
0.005126953125
0.05712890625
0.0098876953125
-0.0201416015625
0.0076904296875
-0.060791015625
-0.0010986328125
0.0084228515625
0.0010986328125
0.005126953125
0.002197265625
-0.0040283203125
0.002197265625
-0.0084228515625
0.0018310546875
-0.0062255859375
-0.0025634765625
-0.0164794921875
-0.0047607421875
-0.0076904296875
-0.000732421875
0.016845703125
0.0003662109375
0.0142822265625
-0.0025634765625
0.005126953125
-0.0018310546875
-0.0003662109375
-0.0025634765625
0.00439453125
0.0
0.00439453125
0.00439453125
0.000732421875
0.0
-0.0032958984375
-0.00146484375
-0.005859375
0.0
0.000732421875
0.00146484375
0.005859375
0.0062255859375
-0.0069580078125
0.006591796875
-0.009521484375
-0.01025390625
0.0128173828125
-0.0179443359375
-0.0069580078125
0.002197265625
-0.008056640625
0.012451171875
0.0384521484375
0.0120849609375
-0.00439453125
0.0091552734375
-0.0362548828125
0.005126953125
-0.0040283203125
0.0047607421875
0.0025634765625
0.0025634765625
-0.00146484375
0.0054931640625
-0.010986328125
0.0069580078125
-0.013916015625
-0.0010986328125
-0.0076904296875
-0.005859375
0.005859375
0.0003662109375
0.00439453125
0.005859375
-0.00146484375
0.0032958984375
0.00146484375
0.006591796875
-0.0106201171875
0.005859375
-0.0047607421875
-0.015380859375
0.025634765625
-0.0146484375
-0.008056640625
0.00732421875
0.0029296875
0.0113525390625
0.0216064453125
0.01025390625
-0.01904296875
0.0062255859375
-0.0018310546875
0.0003662109375
0.0084228515625
0.003662109375
-0.0032958984375
0.00439453125
-0.0069580078125
0.0025634765625
-0.0098876953125
-0.0010986328125
-0.01318359375
-0.0069580078125
-0.002197265625
-0.002197265625
0.0120849609375
0.0010986328125
0.0106201171875
-0.0003662109375
0.003662109375
-0.0025634765625
0.0018310546875
-0.0047607421875
0.0087890625
0.00146484375
0.003662109375
0.002197265625
-0.008056640625
-0.0029296875
-0.0032958984375
-0.003662109375
0.0025634765625
-0.0029296875
0.0084228515625
-0.0003662109375
0.0032958984375
0.006591796875
-0.012451171875
0.006591796875
0.005126953125
-0.019775390625
0.040283203125
-0.01318359375
0.0380859375
0.0076904296875
-0.0135498046875
0.0032958984375
-0.0439453125
0.003662109375
-0.0230712890625
0.0003662109375
-0.0054931640625
0.000732421875
-0.0091552734375
0.0010986328125
-0.005126953125
-0.0029296875
-0.0025634765625
-0.003662109375
-0.017578125
0.0
-0.006591796875
0.0025634765625
0.018310546875
0.0025634765625
0.027099609375
-0.0003662109375
0.0186767578125
0.0
0.0018310546875
0.0018310546875
-0.0113525390625
0.0025634765625
-0.0106201171875
-0.00732421875
0.0208740234375
-0.0194091796875
0.0029296875
-0.003662109375
-0.0194091796875
0.00732421875
0.0487060546875
0.009521484375
0.0032958984375
0.005859375
-0.03369140625
0.0003662109375
0.0076904296875
0.0047607421875
-0.01171875
0.0029296875
-0.015380859375
0.0029296875
-0.005859375
-0.0003662109375
0.0069580078125
-0.0047607421875
0.00146484375
-0.0032958984375
-0.002197265625
0.0003662109375
0.00146484375
0.0
-0.000732421875
-0.002197265625
0.016845703125
-0.00146484375
0.01611328125
-0.0003662109375
-0.0069580078125
-0.002197265625
-0.005126953125
-0.0018310546875
-0.00146484375
0.003662109375
-0.0054931640625
0.0069580078125
-0.000732421875
-0.0084228515625
0.021240234375
-0.0223388671875
-0.00439453125
-0.0087890625
-0.01171875
0.0054931640625
0.07177734375
0.0106201171875
0.00146484375
0.008056640625
-0.065185546875
0.0
-0.0084228515625
0.0
0.0040283203125
0.0010986328125
0.0069580078125
0.0032958984375
-0.005859375
0.0054931640625
-0.019775390625
-0.0062255859375
-0.0135498046875
-0.0128173828125
0.0098876953125
-0.0029296875
0.0164794921875
-0.0003662109375
0.0069580078125
0.0
-0.0047607421875
-0.00146484375
0.0010986328125
-0.005126953125
0.0084228515625
0.0003662109375
0.0
-0.002197265625
0.00732421875
-0.0208740234375
0.0135498046875
-0.0120849609375
-0.0120849609375
0.008056640625
0.0311279296875
0.0069580078125
0.0179443359375
0.003662109375
-0.034423828125
0.002197265625
-0.0087890625
0.0032958984375
-0.0084228515625
0.0047607421875
-0.0025634765625
0.0062255859375
0.002197265625
0.0029296875
-0.003662109375
-0.0010986328125
-0.0091552734375
-0.0003662109375
-0.0087890625
0.003662109375
0.0003662109375
0.0062255859375
0.0003662109375
0.0040283203125
-0.005859375
0.0010986328125
0.0018310546875
0.00146484375
0.0091552734375
0.0047607421875
0.0040283203125
0.002197265625
0.0
0.0025634765625
-0.0062255859375
0.003662109375
-0.0091552734375
0.002197265625
-0.0025634765625
0.0029296875
-0.000732421875
-0.0003662109375
0.00146484375
-0.002197265625
0.0010986328125
0.0025634765625
0.0010986328125
0.0
0.034423828125
-0.01171875
0.029296875
-0.0032958984375
0.013916015625
0.009521484375
-0.038818359375
0.0025634765625
-0.057861328125
-0.0010986328125
-0.0003662109375
-0.00146484375
0.003662109375
-0.0010986328125
-0.0054931640625
-0.00439453125
-0.0142822265625
-0.0054931640625
-0.019775390625
0.0010986328125
-0.0157470703125
0.0054931640625
0.021240234375
0.0025634765625
0.032958984375
-0.0040283203125
0.015380859375
-0.0003662109375
0.01025390625
0.00146484375
0.0047607421875
0.0025634765625
-0.00146484375
0.000732421875
-0.003662109375
-0.0025634765625
-0.0010986328125
-0.000732421875
-0.0018310546875
0.0025634765625
0.000732421875
0.0025634765625
0.00146484375
0.00146484375
-0.008056640625
0.0025634765625
0.0040283203125
-0.0150146484375
0.018310546875
-0.0208740234375
-0.0120849609375
0.002197265625
0.002197265625
0.0146484375
0.0179443359375
0.0091552734375
-0.0106201171875
0.0040283203125
-0.0091552734375
0.0
0.005126953125
-0.0003662109375
0.003662109375
0.0025634765625
-0.0040283203125
0.0040283203125
-0.0098876953125
0.0018310546875
-0.0146484375
-0.0076904296875
-0.0062255859375
-0.006591796875
0.0076904296875
-0.0003662109375
0.0179443359375
0.000732421875
0.009521484375
-0.000732421875
0.0025634765625
-0.00146484375
0.000732421875
0.000732421875
-0.005126953125
0.002197265625
-0.010986328125
0.0025634765625
-0.005126953125
-0.00146484375
0.0087890625
-0.003662109375
0.0069580078125
-0.0003662109375
0.00146484375
0.0010986328125
-0.0040283203125
0.0010986328125
-0.003662109375
-0.0018310546875
0.006591796875
-0.0018310546875
0.0025634765625
0.000732421875
-0.0069580078125
0.003662109375
-0.0120849609375
0.005126953125
0.0025634765625
-0.010986328125
0.032958984375
-0.0216064453125
0.0
-0.0018310546875
-0.01318359375
0.00732421875
0.05859375
0.008056640625
-0.0062255859375
0.0069580078125
-0.050537109375
0.000732421875
-0.0032958984375
0.0040283203125
-0.0128173828125
0.0018310546875
-0.003662109375
-0.0018310546875
0.0062255859375
0.0003662109375
-0.0018310546875
0.0003662109375
-0.0234375
-0.00439453125
-0.009521484375
-0.00439453125
0.019775390625
-0.003662109375
0.021240234375
-0.0025634765625
0.01171875
0.0
-0.0054931640625
0.0010986328125
-0.008056640625
0.0
0.0018310546875
-0.002197265625
0.0091552734375
0.0003662109375
-0.0010986328125
0.0010986328125
-0.00732421875
-0.0025634765625
0.0025634765625
-0.0032958984375
0.0054931640625
-0.0032958984375
0.0076904296875
0.0032958984375
-0.0084228515625
0.0054931640625
-0.01171875
-0.00146484375
0.0029296875
0.0
0.0054931640625
0.006591796875
-0.0047607421875
0.0029296875
-0.0003662109375
-0.0164794921875
0.0054931640625
-0.01171875
-0.0113525390625
0.0113525390625
0.0589599609375
0.0179443359375
0.0054931640625
0.0084228515625
-0.0699462890625
-0.00146484375
-0.005859375
-0.000732421875
0.0087890625
0.0047607421875
0.005859375
0.0069580078125
-0.0018310546875
0.003662109375
-0.01025390625
-0.002197265625
-0.019775390625
-0.0084228515625
-0.0047607421875
-0.0025634765625
0.0106201171875
0.000732421875
0.009521484375
0.0018310546875
0.00146484375
0.00146484375
0.0
-0.00439453125
0.01025390625
-0.0029296875
0.0069580078125
0.0
-0.0025634765625
0.00146484375
-0.005859375
0.000732421875
0.0032958984375
0.0010986328125
0.0054931640625
0.000732421875
-0.0062255859375
-0.00146484375
-0.0098876953125
-0.00146484375
-0.00146484375
-0.0003662109375
0.0113525390625
-0.000732421875
0.005126953125
-0.0003662109375
-0.0025634765625
-0.000732421875
-0.005126953125
-0.0003662109375
-0.0054931640625
0.00146484375
0.00146484375
-0.000732421875
0.0032958984375
0.0
0.0029296875
0.0025634765625
-0.0018310546875
-0.00146484375
-0.00146484375
-0.0047607421875
0.008056640625
0.0032958984375
0.031494140625
0.0076904296875
0.0399169921875
0.005859375
0.059326171875
-0.01171875
-0.0047607421875
-0.0084228515625
-0.0758056640625
0.0
-0.0439453125
-0.003662109375
-0.0311279296875
0.000732421875
-0.0157470703125
-0.00732421875
-0.01171875
-0.009521484375
-0.02197265625
-0.00732421875
-0.029296875
-0.0025634765625
-0.000732421875
0.00146484375
0.0380859375
0.000732421875
0.03662109375
0.0010986328125
0.0267333984375
0.0003662109375
0.021240234375
-0.002197265625
0.0128173828125
-0.0025634765625
0.002197265625
-0.0003662109375
-0.00146484375
0.00146484375
0.000732421875
0.0
0.003662109375
-0.002197265625
0.006591796875
-0.0025634765625
-0.0010986328125
-0.0032958984375
0.002197265625
-0.0146484375
0.0245361328125
-0.017578125
-0.0047607421875
-0.0003662109375
-0.030029296875
0.0047607421875
0.066650390625
0.00732421875
0.0245361328125
0.0087890625
-0.0516357421875
0.0029296875
-0.0040283203125
0.003662109375
-0.0087890625
0.005859375
-0.0106201171875
0.0054931640625
0.0003662109375
0.002197265625
0.00146484375
-0.00146484375
-0.0120849609375
-0.00439453125
-0.0113525390625
0.0
0.00732421875
0.0029296875
0.009521484375
0.00146484375
0.0047607421875
0.0029296875
-0.006591796875
0.0018310546875
-0.01025390625
0.00146484375
-0.0029296875
0.00146484375
-0.0040283203125
-0.000732421875
0.0054931640625
0.00146484375
0.0025634765625
0.0040283203125
-0.003662109375
-0.005859375
0.01025390625
-0.0142822265625
-0.0164794921875
-0.0018310546875
-0.0245361328125
0.00439453125
0.0670166015625
0.01025390625
0.0106201171875
0.01171875
-0.059326171875
0.002197265625
-0.0084228515625
0.003662109375
-0.003662109375
0.0032958984375
0.0062255859375
0.002197265625
0.005859375
0.0029296875
-0.0098876953125
-0.0010986328125
-0.0194091796875
-0.002197265625
-0.010986328125
0.0003662109375
0.0098876953125
-0.0003662109375
0.012451171875
0.000732421875
0.003662109375
0.00439453125
-0.006591796875
0.00439453125
-0.008056640625
-0.000732421875
0.002197265625
-0.000732421875
0.0025634765625
0.002197265625
0.002197265625
0.00732421875
-0.009521484375
0.0069580078125
-0.00439453125
-0.0128173828125
0.0062255859375
-0.0128173828125
-0.0208740234375
0.0091552734375
0.0194091796875
0.0146484375
0.0252685546875
0.01025390625
-0.02197265625
0.0062255859375
-0.0146484375
0.0029296875
-0.00732421875
0.0010986328125
0.0010986328125
0.0003662109375
0.010986328125
0.0018310546875
0.005859375
0.00146484375
-0.01318359375
-0.005126953125
-0.0150146484375
-0.0054931640625
0.0025634765625
0.000732421875
0.0098876953125
0.0018310546875
0.0032958984375
0.0003662109375
-0.00146484375
0.0018310546875
-0.003662109375
0.000732421875
0.0029296875
-0.0029296875
0.0029296875
0.00146484375
-0.0040283203125
0.0003662109375
0.00146484375
-0.005859375
0.01025390625
-0.0025634765625
-0.0003662109375
0.00439453125
-0.0120849609375
-0.000732421875
0.012451171875
-0.0186767578125
0.0054931640625
-0.01318359375
-0.0216064453125
0.0054931640625
0.0596923828125
0.01171875
0.01171875
0.0087890625
-0.0618896484375
-0.00146484375
0.00146484375
-0.0010986328125
0.005859375
0.000732421875
-0.0032958984375
0.0010986328125
-0.006591796875
0.0025634765625
-0.0120849609375
-0.003662109375
-0.0062255859375
-0.0076904296875
0.0025634765625
-0.002197265625
0.006591796875
0.00146484375
0.0062255859375
-0.00146484375
0.0025634765625
-0.002197265625
0.01318359375
0.00146484375
0.0047607421875
0.002197265625
-0.01171875
-0.0025634765625
-0.0047607421875
-0.0029296875
0.003662109375
-0.0018310546875
0.0120849609375
-0.0018310546875
0.0032958984375
0.000732421875
-0.0087890625
0.0003662109375
-0.0025634765625
0.0003662109375
0.00439453125
0.002197265625
0.0054931640625
0.0018310546875
0.0025634765625
-0.01611328125
0.0018310546875
-0.0186767578125
-0.0146484375
0.0047607421875
0.052734375
0.01171875
0.0208740234375
0.0069580078125
-0.0516357421875
0.0032958984375
-0.0091552734375
0.0018310546875
-0.0025634765625
-0.0003662109375
0.002197265625
0.0018310546875
-0.00439453125
-0.0003662109375
-0.00732421875
-0.0047607421875
0.000732421875
-0.005859375
0.003662109375
-0.0062255859375
0.008056640625
-0.0029296875
0.01025390625
-0.002197265625
-0.002197265625
0.0
-0.0029296875
0.0018310546875
0.0032958984375
-0.0003662109375
0.0047607421875
-0.0029296875
0.002197265625
-0.0062255859375
0.003662109375
-0.0040283203125
0.006591796875
0.0018310546875
0.000732421875
0.0062255859375
-0.009521484375
-0.0040283203125
0.0128173828125
-0.0201416015625
0.0113525390625
-0.010986328125
-0.029296875
0.008056640625
0.05419921875
0.016845703125
0.016845703125
0.009521484375
-0.06298828125
0.0018310546875
-0.002197265625
0.0003662109375
0.002197265625
0.00146484375
-0.0003662109375
0.0054931640625
-0.0010986328125
0.0054931640625
-0.008056640625
0.0010986328125
-0.01025390625
-0.0047607421875
-0.0076904296875
-0.002197265625
-0.000732421875
0.0032958984375
0.0032958984375
0.0040283203125
0.00146484375
0.002197265625
0.0040283203125
0.00439453125
-0.0025634765625
0.0032958984375
-0.002197265625
0.0025634765625
-0.0010986328125
0.0047607421875
-0.0032958984375
0.0003662109375
0.0010986328125
0.0
-0.0010986328125
0.00146484375
-0.005859375
0.0
-0.0029296875
0.0003662109375
0.0029296875
0.0
0.0040283203125
0.0025634765625
-0.0003662109375
-0.003662109375
0.01171875
-0.0186767578125
0.0040283203125
-0.01025390625
-0.0252685546875
0.008056640625
0.0523681640625
0.013916015625
0.01611328125
0.0084228515625
-0.053466796875
0.000732421875
-0.0040283203125
-0.000732421875
0.00146484375
-0.000732421875
0.0025634765625
0.000732421875
-0.000732421875
0.0018310546875
-0.00146484375
-0.000732421875
-0.01171875
-0.0054931640625
-0.0120849609375
-0.0018310546875
0.0018310546875
0.003662109375
0.01025390625
-0.000732421875
0.012451171875
-0.005126953125
0.0087890625
-0.000732421875
-0.000732421875
0.000732421875
-0.0087890625
-0.000732421875
0.00146484375
-0.0010986328125
0.01025390625
0.0010986328125
0.00146484375
-0.0003662109375
-0.0054931640625
-0.00146484375
-0.0091552734375
0.0032958984375
-0.0029296875
0.00146484375
0.00439453125
0.0
0.0003662109375
-0.0040283203125
0.0025634765625
-0.002197265625
0.0018310546875
0.0018310546875
0.0
0.0003662109375
-0.0003662109375
0.00146484375
-0.000732421875
-0.0025634765625
0.002197265625
-0.00146484375
0.0032958984375
0.0010986328125
-0.0003662109375
0.008056640625
0.0054931640625
-0.000732421875
0.043212890625
-0.0194091796875
0.0860595703125
-0.006591796875
0.0062255859375
0.0106201171875
-0.0966796875
0.006591796875
-0.0615234375
-0.003662109375
-0.0098876953125
-0.00146484375
-0.0003662109375
-0.0003662109375
-0.00439453125
-0.005126953125
-0.01611328125
-0.0091552734375
-0.027099609375
-0.0032958984375
-0.0120849609375
0.0076904296875
0.03369140625
0.003662109375
0.0487060546875
-0.0003662109375
0.015380859375
-0.00146484375
-0.002197265625
-0.003662109375
0.003662109375
-0.0018310546875
0.005859375
-0.002197265625
0.002197265625
0.0003662109375
-0.003662109375
0.00146484375
-0.0040283203125
-0.0003662109375
0.0047607421875
-0.0003662109375
0.0069580078125
-0.00146484375
0.0010986328125
0.0
-0.00439453125
0.000732421875
-0.0029296875
0.0010986328125
-0.000732421875
-0.000732421875
0.008056640625
-0.01025390625
0.0216064453125
-0.0146484375
-0.0146484375
-0.0003662109375
-0.0281982421875
0.0076904296875
0.0662841796875
0.0091552734375
0.015380859375
0.008056640625
-0.0545654296875
0.002197265625
-0.0003662109375
0.0029296875
0.0
0.0029296875
-0.005859375
0.0040283203125
-0.0076904296875
0.005126953125
-0.0087890625
0.0025634765625
-0.0157470703125
-0.005126953125
-0.0003662109375
-0.003662109375
0.0164794921875
0.002197265625
0.0087890625
0.0029296875
-0.002197265625
0.003662109375
-0.0069580078125
0.000732421875
-0.0040283203125
0.002197265625
0.0018310546875
0.0029296875
0.0
0.003662109375
-0.0054931640625
0.0062255859375
-0.01025390625
0.00439453125
-0.0032958984375
-0.009521484375
0.017578125
-0.0150146484375
-0.0113525390625
0.0025634765625
-0.016845703125
0.0113525390625
0.0194091796875
0.0084228515625
0.005859375
0.0032958984375
-0.0062255859375
0.0010986328125
-0.002197265625
0.0
-0.0032958984375
-0.0003662109375
-0.0047607421875
0.0032958984375
-0.0047607421875
0.0025634765625
-0.0029296875
-0.00439453125
-0.0032958984375
-0.0062255859375
0.0
-0.002197265625
0.006591796875
-0.0003662109375
0.0047607421875
0.0003662109375
0.008056640625
-0.0003662109375
0.008056640625
-0.0010986328125
-0.005859375
-0.0018310546875
-0.005859375
-0.0025634765625
0.0003662109375
0.0047607421875
-0.000732421875
0.00732421875
0.0018310546875
-0.0128173828125
0.012451171875
-0.0208740234375
-0.010986328125
-0.000732421875
-0.003662109375
0.01025390625
0.021240234375
0.0076904296875
-0.002197265625
0.005859375
-0.0113525390625
0.0047607421875
-0.01025390625
0.0
0.0029296875
-0.000732421875
0.01025390625
0.00146484375
-0.0025634765625
0.0003662109375
-0.015380859375
-0.003662109375
-0.0164794921875
-0.0047607421875
0.0054931640625
0.0003662109375
0.0146484375
0.0
0.00732421875
-0.0010986328125
0.00146484375
0.0003662109375
-0.0003662109375
-0.0003662109375
0.0025634765625
0.0
-0.003662109375
-0.00146484375
0.002197265625
-0.002197265625
0.00439453125
0.000732421875
-0.00146484375
-0.000732421875
0.002197265625
-0.0010986328125
0.00146484375
-0.0010986328125
0.0
-0.00146484375
0.0
0.00146484375
-0.0054931640625
0.00146484375
0.0
-0.0087890625
0.0347900390625
-0.0205078125
0.0208740234375
0.0091552734375
-0.03515625
0.0120849609375
-0.0069580078125
-0.0087890625
0.0142822265625
0.0003662109375
-0.0062255859375
-0.0003662109375
-0.005126953125
0.0
-0.009521484375
-0.0010986328125
-0.000732421875
-0.0029296875
0.0018310546875
-0.000732421875
-0.0142822265625
-0.0032958984375
-0.0113525390625
-0.002197265625
0.01025390625
0.002197265625
0.018310546875
0.002197265625
0.008056640625
-0.0010986328125
0.0025634765625
-0.00146484375
0.000732421875
0.000732421875
-0.003662109375
0.0010986328125
0.00146484375
0.00146484375
0.005126953125
0.0003662109375
0.0029296875
0.000732421875
-0.00146484375
0.00146484375
-0.0040283203125
0.0003662109375
-0.0029296875
0.0018310546875
0.0010986328125
0.005126953125
-0.003662109375
0.0032958984375
-0.008056640625
0.000732421875
-0.0003662109375
0.0
0.0040283203125
0.0003662109375
0.0047607421875
0.002197265625
-0.00439453125
0.0029296875
-0.01171875
0.00732421875
0.0113525390625
0.0062255859375
0.046142578125
0.0032958984375
0.08203125
-0.010986328125
0.0084228515625
-0.0003662109375
-0.0772705078125
0.0106201171875
-0.057861328125
-0.0029296875
-0.0369873046875
-0.00146484375
-0.018310546875
-0.0040283203125
-0.010986328125
-0.00439453125
-0.0205078125
-0.00732421875
-0.028564453125
0.00146484375
-0.0216064453125
0.0069580078125
0.015380859375
0.000732421875
0.0498046875
0.0025634765625
0.0377197265625
0.003662109375
0.0135498046875
0.0032958984375
0.0025634765625
0.000732421875
0.0003662109375
-0.00146484375
0.0003662109375
-0.002197265625
0.00439453125
0.000732421875
0.0018310546875
0.0018310546875
-0.005126953125
-0.0003662109375
-0.002197265625
-0.0003662109375
0.005126953125
-0.0003662109375
0.005126953125
0.0003662109375
0.00146484375
-0.002197265625
-0.000732421875
-0.0032958984375
-0.003662109375
-0.000732421875
-0.003662109375
0.00439453125
-0.00439453125
0.0025634765625
0.0032958984375
-0.0018310546875
0.0062255859375
