0.217559814453125
0.749359130859375
-0.0091552734375
0.748992919921875
-0.45086669921875
-0.0003662109375
-0.44683837890625
0.0
-0.379791259765625
-0.0003662109375
-0.275787353515625
-0.0003662109375
-0.134429931640625
0.0
-0.0157470703125
0.0
-0.0003662109375
0.0003662109375
-0.0003662109375
0.0
0.0003662109375
-0.0003662109375
0.0
0.0
-0.0003662109375
0.0
0.0003662109375
0.0
0.0003662109375
0.0
-0.0003662109375
0.0
0.0
0.0
0.0
0.0
-0.0003662109375
0.0
0.0
0.0
0.0003662109375
0.0
0.0003662109375
0.0
-0.0003662109375
0.0
-0.0003662109375
0.0
0.0
0.0
0.0
0.0
0.0
0.0
0.0
0.0
0.0003662109375
0.0
0.0003662109375
0.0
0.0
0.0
-0.0003662109375
0.0
-0.0003662109375
0.0
0.0003662109375
0.0
0.0
0.0
-0.0003662109375
0.0
0.0
0.0
0.0
0.0
0.0
0.0
0.0003662109375
0.0
0.0
0.0
-0.0003662109375
0.0
0.0
0.0
0.0
0.0
0.0
0.0
0.0003662109375
0.0
0.0
0.0
-0.0003662109375
0.0
0.0
0.0
0.0
0.0
0.0003662109375
0.0
0.0003662109375
0.0
-0.0003662109375
0.0
-0.0003662109375
0.0
0.0
0.0
0.0
0.0
0.0003662109375
0.0
0.0003662109375
0.0
-0.0003662109375
0.0
0.0
0.0
0.0
0.0
0.0
0.0
0.0
0.0
-0.0003662109375
0.0
0.0003662109375
0.0
0.0
0.0
0.0
0.0
0.0
0.0
0.0
0.0
0.0
0.0
-0.0003662109375
0.0
0.0
0.0
0.0003662109375
0.0
0.0
0.0
-0.0003662109375
0.0
0.040313720703125
-0.32049560546875
0.305816650390625
-0.798065185546875
0.61932373046875
-1.0
0.847869873046875
-0.700286865234375
0.836517333984375
-0.094512939453125
0.34246826171875
0.0
0.0
0.0
0.0
0.0
0.0
0.0
0.0
0.0
-0.0003662109375
0.0
0.0
0.0
0.0003662109375
0.0
0.0
0.0
0.0
0.0
0.0
0.0
0.0
0.0
-0.0003662109375
0.0
-0.0003662109375
0.0
0.0003662109375
0.0
0.0003662109375
0.0
-0.0003662109375
0.0
0.0
0.0
0.0003662109375
0.0
0.0
0.0
0.0
1.0
-0.0003662109375
1.0
-0.145050048828125
0.0
-0.276885986328125
0.0
-0.375396728515625
-0.0003662109375
-0.38714599609375
-0.0003662109375
-0.284942626953125
0.0
-0.246856689453125
0.0
-0.180206298828125
0.0
-0.106201171875
-0.0003662109375
-0.08056640625
0.0
-0.109130859375
0.0
-0.0838623046875
0.0
-0.100006103515625
0.0
-0.150177001953125
-0.0003662109375
-0.116455078125
0.0003662109375
-0.059326171875
0.0003662109375
-0.0552978515625
-0.0003662109375
-0.116851806640625
-0.0003662109375
-0.097442626953125
0.0
-0.019775390625
0.0
-0.0003662109375
0.0
0.0
0.0
0.0003662109375
0.0
0.0003662109375
0.0
-0.0003662109375
0.0
-0.0003662109375
0.0
0.0003662109375
0.0
0.0
0.0
-0.0003662109375
0.0
0.0
0.0
0.0003662109375
0.0
0.0003662109375
0.0
-0.0003662109375
0.0
-0.0003662109375
0.0
0.0
0.0
0.0
0.0
0.0
0.0
0.0003662109375
0.0003662109375
0.0003662109375
0.0
-0.0003662109375
-0.0003662109375
0.0
0.0
0.0003662109375
0.0
-0.0003662109375
0.0
0.0
0.0
0.0
0.0
0.0
0.0
0.0
0.0
-0.0003662109375
0.0
0.0
0.0
0.0003662109375
0.0
0.0
0.0
-0.0003662109375
0.0
0.0
0.0
0.0
0.0
0.0
0.0
0.0
0.0
0.0
0.0
0.0003662109375
0.0
0.0003662109375
0.0
0.0
0.0
0.0
0.0
-0.0003662109375
0.0
-0.0003662109375
0.0
0.0
0.0
0.0
0.0
0.0
0.0
0.0003662109375
0.0
0.0
0.0
0.0
0.0
0.0
0.0
-0.0003662109375
0.0
0.0003662109375
0.0
0.0
0.0
-0.0003662109375
0.0
0.0003662109375
0.0
0.0
0.0
-0.0003662109375
0.0
0.0
0.0
0.0003662109375
0.0
0.0003662109375
0.0
-0.0003662109375
0.0
-0.0003662109375
0.0
0.0003662109375
0.0
0.0003662109375
0.0
-0.0003662109375
0.0
0.0
0.0
0.0003662109375
0.0
0.0
0.0
0.0
0.0
0.0
0.0
0.0
0.0
-0.0003662109375
0.0
-0.0003662109375
0.0
0.0003662109375
0.0
0.0
0.0
0.0
0.0
0.0003662109375
0.0
-0.0003662109375
0.0
-0.0003662109375
0.0
0.0003662109375
0.0
0.0
0.0
0.0
0.0
0.0
0.0
-0.0003662109375
0.0
0.0
0.0
0.0
0.0
0.0
0.0
0.0
0.0
0.0
0.0
0.0003662109375
0.0
0.0
0.0
-0.0003662109375
0.0
0.0003662109375
0.0
0.0
0.0
-0.0003662109375
0.0
0.0
0.0
0.0
0.0
0.0
0.0
0.0
0.0
0.0
0.0
0.0
0.0
0.0
0.0
0.0
0.0
0.0
0.0
0.0003662109375
0.0
0.0003662109375
0.0
0.0
0.0
-0.0003662109375
0.0
-0.0003662109375
0.0
0.0
0.0
0.0003662109375
0.0
0.0
0.0
0.0
0.0
0.0
0.0
0.0
0.0
0.0003662109375
0.0
0.0
0.0
-0.0003662109375
0.0
-0.0003662109375
0.0
0.0003662109375
0.0
0.0
-1.0
0.0
-1.0
0.0003662109375
0.0
-0.0003662109375
0.0
0.0
0.0
0.0
0.0
0.0
0.0
0.0003662109375
0.0
0.0
0.0
-0.0003662109375
0.0
-0.0003662109375
0.0
0.0
1.0
0.0
1.0
0.0003662109375
0.294830322265625
0.0003662109375
0.0186767578125
-0.0003662109375
-1.0
0.664031982421875
-1.0
0.0003662109375
0.0
-0.664031982421875
1.0
-0.0003662109375
1.0
-0.0003662109375
0.0
0.0003662109375
0.0
0.0003662109375
0.0
-0.0003662109375
0.0
0.0
0.0
0.0
0.0
0.0
0.0
0.0
0.0
0.0
0.0
0.0
0.0
0.0
0.0
0.0003662109375
0.0
0.0
0.0
-0.0003662109375
0.0
0.0
0.0
0.0
0.0
-0.0003662109375
0.0
0.0
0.0
0.0
0.0
0.0
0.0
0.0003662109375
0.0
0.0
-1.0
-0.0003662109375
-1.0
0.0
0.0
0.0
0.0
0.0
0.0
0.0
0.0
0.0
0.0
0.0003662109375
0.0
0.0003662109375
0.0
0.0
0.0
-0.0003662109375
0.0
-0.0003662109375
0.0
0.0
0.0
0.0003662109375
0.0
0.0
0.0
-0.0003662109375
0.0
0.0
0.0
0.0
0.0
0.0003662109375
0.0
0.0
0.0
-0.0003662109375
0.0
0.0003662109375
0.0
0.0
0.0
-0.0003662109375
0.0
0.0
0.0
1.0
0.0
1.0
0.0
0.0
0.0
0.0
0.0
-0.0003662109375
0.0
0.0
0.0
0.0003662109375
0.0
0.0
0.0
0.0
0.0
0.0
0.0
0.0
0.0
0.0
0.0
-0.0003662109375
0.0
-0.0003662109375
0.0
0.0003662109375
0.0
0.0003662109375
0.0
0.0
0.0
0.0
0.0
-0.0003662109375
0.0
-0.0003662109375
0.0
0.0003662109375
0.0
0.0
0.0
0.0
0.0
0.0003662109375
0.0
0.0
0.0
0.0
0.0
0.0
0.0
-0.0003662109375
0.0
0.0
0.0
0.0
0.0
-0.0003662109375
0.0
0.0
0.0
0.0
0.0
0.0003662109375
0.0
0.0003662109375
0.0
-0.0003662109375
0.0
0.0
0.0
0.0003662109375
0.0
0.0
0.0
0.0
0.0
-0.0003662109375
0.0
0.0
0.0
0.0003662109375
0.0
0.0
0.0
-0.0003662109375
0.0
0.0
0.0
0.0003662109375
0.0
0.0
0.0
0.0
0.0
0.0
0.0
-0.0003662109375
0.0
0.0
0.0
0.0003662109375
0.0
0.0
0.0
0.0
0.0
0.0
0.0
0.0
0.0
0.0
0.0
-0.0003662109375
0.0
-0.0003662109375
0.0
0.0003662109375
0.0
0.0003662109375
0.0
0.0
0.0
-0.0003662109375
0.0
-0.0003662109375
0.0
0.0
0.0
0.0
0.0
0.0
0.0
0.0003662109375
0.0
0.0003662109375
0.0
0.0
0.0
0.0
0.0
0.0
0.0
0.0
0.0
0.0
0.0
0.0
0.0
0.0
0.0
0.0
0.0
-0.0003662109375
0.0
-0.0003662109375
0.0
0.0003662109375
0.0
0.0003662109375
0.0
-0.0003662109375
0.0
0.0
0.0
0.0003662109375
0.0
0.0
0.0
0.0
0.0
-0.0003662109375
0.0
0.0
0.0
0.0
0.0
0.0
0.0
0.0003662109375
0.0
0.0
0.0
0.0
0.0
0.0
0.0
-0.0003662109375
0.0
0.0
0.0
0.0
0.0
0.0
0.0
0.0
0.0
0.0
0.0
0.0003662109375
0.0
0.0
0.0
0.0
0.139190673828125
0.0
1.0
-0.0003662109375
1.0
-0.0003662109375
0.0
-0.044342041015625
-0.0003662109375
-0.140655517578125
0.0
-0.198486328125
0.0
-0.195587158203125
-0.0003662109375
-0.168853759765625
0.0
-0.1512451171875
0.0003662109375
-0.1365966796875
0.0
-0.1146240234375
0.0
-0.098175048828125
0.0
-0.055694580078125
-0.0003662109375
-0.07763671875
-0.0003662109375
-0.099609375
0.0
-0.065185546875
0.0
-0.0560302734375
0.0
-0.0439453125
0.0
-0.035888671875
0.0
-0.032958984375
0.0
-0.0296630859375
0.0
-0.02197265625
0.0
-0.018707275390625
0.0
-0.020538330078125
0.0
-0.0230712890625
0.0
-0.018310546875
0.0
-0.0157470703125
0.0
-0.018310546875
0.0
-0.0186767578125
0.0
-0.0201416015625
0.0
-0.01171875
0.0
-0.0135498046875
0.0
-0.0164794921875
0.0
-0.0142822265625
0.0
-0.02197265625
0.0
-0.0186767578125
0.0
-0.005859375
0.0
-0.005126953125
0.0
0.017578125
0.0
-0.0106201171875
0.0
-0.04248046875
0.0
-0.0120849609375
0.0
-0.0084228515625
0.0
-0.006591796875
0.0
0.0040283203125
0.0
0.0325927734375
0.0
0.066650390625
0.0
0.1083984375
0.0
0.135528564453125
0.0
0.169952392578125
0.0
0.21240234375
0.0
0.136260986328125
0.0
0.108062744140625
0.0
0.17724609375
0.0003662109375
0.11572265625
0.0003662109375
0.0435791015625
0.0
0.40289306640625
-0.064483642578125
0.37872314453125
-1.0
-0.174713134765625
-1.0
-0.719329833984375
-0.230010986328125
-0.49993896484375
0.0
-0.0106201171875
0.0
0.327423095703125
0.0
0.729583740234375
0.0
0.34649658203125
0.0
0.0003662109375
0.0
0.0003662109375
0.0
0.0
0.0
-0.0003662109375
0.0
-0.118316650390625
0.0
-0.33514404296875
0.0
-0.379425048828125
0.0
-0.302520751953125
0.0
-0.256011962890625
0.0
-0.213134765625
0.0
-0.168487548828125
0.0
-0.139923095703125
0.0
-0.11865234375
0.0
-0.0908203125
0.0
-0.081298828125
0.0
-0.0791015625
0.124542236328125
-0.076934814453125
1.0
-0.068878173828125
1.0
-0.06298828125
0.0
-0.0655517578125
0.0
-0.06005859375
0.0
-0.040283203125
0.0
-0.0201416015625
0.0
-0.0142822265625
0.0003662109375
0.0274658203125
0.0
0.019775390625
-0.0003662109375
-0.0142822265625
0.0003662109375
0.0047607421875
0.0
0.0157470703125
0.0
0.0325927734375
0.0
0.03955078125
-0.0003662109375
0.0421142578125
0.0
0.041015625
0.0003662109375
0.0439453125
0.0
0.0457763671875
0.0
0.032989501953125
0.0
0.023834228515625
0.0
0.02197265625
0.0003662109375
0.0238037109375
0.0
0.018310546875
0.0
0.0208740234375
0.0
0.0296630859375
0.0
0.0333251953125
0.0
0.03369140625
0.0
0.027099609375
0.0
0.02783203125
0.0
0.0238037109375
0.0
0.01904296875
0.0
0.0128173828125
0.0
0.0179443359375
0.0
0.0245361328125
-0.158233642578125
0.0274658203125
-0.293731689453125
0.0164794921875
-0.1563720703125
-0.0113525390625
-0.33294677734375
-0.00439453125
-0.613128662109375
0.0340576171875
-0.855926513671875
0.220855712890625
-0.57098388671875
-0.53546142578125
-0.01611328125
-0.365509033203125
0.0
0.801361083984375
0.0
0.1336669921875
0.0
-0.806488037109375
0.0
-0.50030517578125
0.0
0.0
0.0
0.0
0.0
-0.0003662109375
0.0
0.0
0.0
0.0
0.0
0.0003662109375
0.0
0.0
0.0
-0.0003662109375
0.0
0.0003662109375
0.0
0.0
0.0
0.0
0.0
0.0
0.0
-0.0003662109375
0.0
0.0003662109375
0.0
0.0003662109375
1.0
0.0
1.0
-0.0003662109375
0.0
-0.0003662109375
0.0
0.0003662109375
0.0
0.0
0.0
0.0
0.0
0.0
-1.0
0.0
-1.0
0.0
0.0
-0.0003662109375
0.0
0.0
1.0
0.0
1.0
0.0
0.0
0.0003662109375
0.0
0.0
0.0
-0.0003662109375
0.0
0.0003662109375
0.0
0.0
0.0
-0.0003662109375
0.0
0.0
0.0
0.0
0.0
0.0
0.0
0.0003662109375
0.0
0.0003662109375
0.0
-0.0003662109375
0.0
-0.0003662109375
0.0
0.0
0.0
0.0
0.0
0.0
0.0
0.0
0.0
0.0
0.0
0.0003662109375
0.0
0.0
0.0
-0.0003662109375
0.0
0.0
0.0
0.0
0.0
0.0
0.0
0.0003662109375
0.0
0.0
0.0
0.0
0.0
0.0
0.0
-0.0003662109375
0.0
0.0
0.0
0.0
0.0
0.0
0.0
0.0003662109375
0.0
0.0
0.0
-0.0003662109375
0.0
0.0
0.0
0.0003662109375
0.0
0.0
0.0
0.0
0.0
0.0003662109375
0.0
-0.0003662109375
0.0
-0.0003662109375
0.0
0.0
0.0
0.0
0.0
0.0
0.0
0.0
0.0
0.0
0.0
0.0003662109375
0.0
0.0003662109375
0.0
0.0
0.0
-0.0003662109375
0.0
-0.0003662109375
0.0
0.0
0.0
0.0003662109375
-1.0
0.0003662109375
-1.0
1.0
0.0
1.0
0.0
0.0003662109375
0.0
0.0
0.0
0.0
0.0
-0.0003662109375
1.0
0.0
0.03076171875
0.0003662109375
-1.0
0.0
-0.03076171875
0.0
0.0
0.0
0.0
0.0
0.0
0.0
0.0
0.0
0.0
-0.0003662109375
0.0
0.0
0.0
0.0003662109375
0.0
0.0
0.0
0.0
0.0
-0.0003662109375
0.0
-0.0003662109375
0.0
0.0
0.0
0.0
0.0
0.0003662109375
0.0
0.0003662109375
1.0
-0.0003662109375
0.0
0.0
-1.0
0.0003662109375
0.0
0.0
0.0
-0.0003662109375
1.0
0.0010986328125
1.0
0.0003662109375
0.0
-0.0010986328125
-1.0
0.0
-1.0
0.0
-0.224151611328125
-0.0003662109375
0.0
-0.0087890625
0.0333251953125
0.0003662109375
0.0
0.00732421875
-0.0303955078125
0.0
0.0
0.0025634765625
-0.0029296875
-0.01318359375
0.087921142578125
0.0
0.0098876953125
-0.261871337890625
0.881927490234375
0.0
0.0164794921875
0.274688720703125
-0.9698486328125
-0.0010986328125
-0.0263671875
0.0003662109375
0.0
0.0
0.0
0.0
0.0
0.0
0.0
0.0
0.0
0.0
0.0
-0.0003662109375
0.0
0.0
0.0
0.0
0.0
0.0
0.0
0.0003662109375
0.0
-0.0003662109375
0.0
0.0
0.0
0.0
0.0
0.0
0.0
0.0003662109375
0.0
0.0
0.0
0.0
0.0
-0.0003662109375
0.0
0.0
0.0
0.0003662109375
0.104034423828125
0.0
0.0
-0.0003662109375
0.01318359375
0.0
0.0
0.0003662109375
-0.108062744140625
0.0
0.0
0.0
-0.0091552734375
-0.0003662109375
0.159332275390625
0.0
0.0
0.0003662109375
0.312774658203125
0.0
1.0
-0.0003662109375
1.0
-0.0003662109375
-1.0
0.0
-0.253448486328125
-0.005126953125
0.57281494140625
-0.002197265625
-1.0
-0.0010986328125
0.73907470703125
0.0025634765625
-0.095611572265625
0.008056640625
0.137359619140625
-0.005126953125
0.02197265625
-0.0120849609375
-0.075103759765625
-0.063018798828125
0.123077392578125
-0.037750244140625
-0.920013427734375
-0.0172119140625
0.823333740234375
0.035186767578125
-0.50396728515625
0.070709228515625
0.52996826171875
0.0142822265625
0.0
-0.0062255859375
-0.122711181640625
-0.36480712890625
0.0
-0.34832763671875
-1.0
-0.0018310546875
0.0
0.101104736328125
0.0
-0.1182861328125
0.0
0.268829345703125
0.0
-0.9991455078125
0.0
-1.0
0.0
0.020172119140625
0.0
1.0
0.0
1.0
0.0
-1.0
0.0
-0.0091552734375
0.0
-0.48199462890625
0.0
0.053863525390625
0.0
0.52777099609375
0.0
-0.0010986328125
0.0
0.9698486328125
0.0
0.0
0.0
0.0003662109375
0.0
0.0
0.0
0.0
0.0
-0.0003662109375
0.0
0.0
0.0
0.0
0.0
0.0
0.0
0.0003662109375
0.0
0.0
0.0
0.0
0.0
0.0
0.0
0.0
0.0
0.0
0.0
0.0
0.0
0.0
0.0
-0.0003662109375
0.0
0.0
0.0
0.0
0.0
0.0
0.0
-0.0003662109375
0.0
-0.0003662109375
0.0
0.000732421875
0.0
0.0
0.0
0.0
0.0
0.0003662109375
0.0
0.0
0.0
0.0
0.0
0.0
0.0
-0.145782470703125
0.008056640625
0.0
0.005859375
0.145782470703125
0.067047119140625
0.0
0.108428955078125
0.0
0.411651611328125
0.0
0.18310546875
0.0
-0.220123291015625
0.0
0.43328857421875
0.0
-0.266632080078125
-0.0003662109375
-0.730682373046875
-0.0003662109375
0.089019775390625
0.0003662109375
0.111358642578125
0.0003662109375
0.0849609375
0.0
0.0655517578125
-0.0003662109375
0.0274658203125
0.0
0.0142822265625
0.0
0.090087890625
0.0
0.0692138671875
-0.0003662109375
-0.0032958984375
-0.00146484375
0.0267333984375
-0.00146484375
0.0091552734375
-0.060455322265625
0.079132080078125
-0.50982666015625
0.054229736328125
0.006591796875
-0.0047607421875
0.288238525390625
0.056396484375
0.055328369140625
1.0
0.223419189453125
0.56842041015625
0.0
-1.0
-0.034454345703125
-0.9764404296875
-1.0
0.0
-0.73577880859375
0.0
1.0
0.0
0.06591796875
0.0
-0.66693115234375
0.0
-0.64495849609375
0.0
-0.097412109375
0.0
0.139892578125
0.0
-0.253082275390625
0.0
-0.286407470703125
0.0
-0.069610595703125
0.0
0.0
0.0
0.0
0.0
0.0
1.0
0.0003662109375
0.0
0.0003662109375
-1.0
0.0
0.0
0.870941162109375
0.0
0.667694091796875
0.0
-0.0025634765625
0.0
-0.662200927734375
0.0
-0.868743896484375
0.0
-0.005859375
0.0
0.0003662109375
0.0
0.0
0.0
-0.0003662109375
0.0
0.0
0.128936767578125
0.0
1.0
0.0
1.0
0.0
0.0
0.0
0.0
0.0003662109375
0.0
0.0
0.0
-0.0003662109375
0.0
0.0
0.0
0.0003662109375
0.0
0.0003662109375
0.0
0.0
0.0
-0.0003662109375
0.0
-0.0003662109375
0.0
0.0003662109375
0.0
0.0003662109375
0.0
-0.0003662109375
0.0
0.0
0.0
0.0
0.0
-0.0003662109375
0.0
0.0003662109375
0.0
0.0
0.0
-0.0003662109375
0.0
0.0003662109375
0.0
0.0
0.0
0.0
0.0
0.0003662109375
0.0
-0.0003662109375
0.0
-0.0003662109375
0.0
0.0003662109375
0.0
0.0
0.0
0.0
0.0
0.32708740234375
0.0003662109375
0.605438232421875
0.0003662109375
-0.027130126953125
0.0
-0.605804443359375
-0.0003662109375
-0.299591064453125
-0.0003662109375
0.0003662109375
0.0
-0.0003662109375
0.0
0.0
0.0
0.0
0.0
-0.0003662109375
0.0
0.0
0.0
0.0
0.0
0.0
0.0
0.0
0.0
0.0
0.0
0.0
0.0
0.0003662109375
0.0
0.0003662109375
0.0
-0.0003662109375
0.0
-0.0003662109375
0.0
0.0
0.0
0.0
0.0
0.0
0.0
0.0003662109375
0.0
0.0003662109375
0.0
-0.0003662109375
0.0
-0.0003662109375
0.0
0.0
0.0
0.0
0.0003662109375
0.0003662109375
0.0
0.0
-0.0003662109375
0.0
0.0
0.0
0.0
0.0
0.0
0.0
0.0
-0.0003662109375
0.0
0.0
0.0
0.0
0.0
0.0
0.0
0.0
0.0
0.0
0.0
0.0
0.0
0.0
0.0
1.0
-0.9024658203125
1.0
-1.0
0.071807861328125
-0.59588623046875
0.0
0.0
0.0
0.0
0.0003662109375
0.0
0.0
0.0
0.0
0.0
0.0
0.0
0.0
0.0
0.0
0.0
0.0
0.0
0.0
0.0
0.0
0.0
-0.0003662109375
0.0
0.0
0.0
0.0003662109375
0.0
0.0
0.0
-0.138458251953125
0.0
-0.9866943359375
0.0
-1.0
0.0
-0.50909423828125
0.0
-0.0003662109375
0.0
0.0
0.0
0.0003662109375
0.0
-0.0003662109375
0.657806396484375
-0.0003662109375
1.0
0.0
0.840545654296875
0.0003662109375
0.070709228515625
0.0
0.0
-0.0003662109375
0.0
0.0003662109375
0.0
0.0
0.0
0.0
0.0
0.0003662109375
0.0
-0.0003662109375
0.0
-0.0003662109375
0.0
0.0
0.0
0.0
0.0
0.0
0.0
0.0003662109375
0.0
0.0
0.0
-0.0003662109375
0.0
0.0
0.0
0.0003662109375
0.0
0.0003662109375
0.0
-0.0003662109375
0.0
-0.0003662109375
0.0
0.0003662109375
0.0
0.0003662109375
0.0
-0.0003662109375
0.0
-0.0003662109375
0.0
0.0
0.0
0.0
0.0
0.0003662109375
0.0
0.0003662109375
0.0
-0.0003662109375
0.0
-0.0003662109375
0.0
0.0
0.0
0.0003662109375
0.0
0.0
0.0
0.0
0.0
0.0
0.0
-0.0003662109375
0.0
0.0
0.0
0.0
0.0
0.0
0.0
0.0
0.0
0.0
0.0
0.0
0.0
0.0
0.0
0.0
0.0
0.0
0.0
0.0
0.0
0.0
0.0
0.0
0.0
0.0003662109375
0.0
0.0003662109375
0.0
-0.0003662109375
0.0
-0.0003662109375
0.0
0.0003662109375
0.0
0.0
0.0
-0.0003662109375
-1.0
0.0
-1.0
0.0003662109375
-0.02783203125
0.0003662109375
0.0
1.0
0.0
1.0
0.0
-0.0010986328125
0.0
-0.0003662109375
0.0
0.0
0.0
0.0003662109375
1.0
0.0
1.0
-0.0003662109375
0.33880615234375
-0.010986328125
0.0
-1.0
-0.000732421875
-1.0
-0.000732421875
-0.37762451171875
0.0
0.0
0.0
0.0003662109375
0.0
0.0
0.0
-0.0003662109375
0.0
0.0
0.0
0.0
0.0
0.0
0.0
0.0
0.0
0.0
0.0
0.0
0.0
0.0003662109375
0.0
0.0
0.0
-0.0003662109375
0.0
0.0003662109375
0.0
0.0
0.0
-0.0003662109375
0.0
0.0
0.0
0.0
0.0
0.0
0.0
0.0
0.0
0.0
0.0
0.0
0.0
0.0
0.0
0.0003662109375
0.0
0.0003662109375
0.0
0.0
0.0
-0.0003662109375
0.0003662109375
-0.0003662109375
0.0
0.0
-0.0003662109375
0.0003662109375
0.0
0.0003662109375
0.0
-0.0003662109375
0.0
-0.0003662109375
0.0
0.0003662109375
0.0
0.0
0.0
-0.0003662109375
0.0
0.0003662109375
0.0
0.0
0.0
-0.0003662109375
0.0
0.0
0.0
0.0
0.0
0.0
-1.0
0.0
-1.0
0.0
0.0
0.0
0.0
0.0
0.0
0.0003662109375
0.0
1.0
0.0
1.0
0.0
-0.0010986328125
0.0
0.0
0.0
0.0
0.0
-0.0003662109375
0.0
0.0
0.0
0.0003662109375
0.0
0.0
0.0
-0.0003662109375
0.0
0.0
0.0
0.0
0.0
-0.0003662109375
0.0
0.0003662109375
0.0
0.0003662109375
0.0
0.0
0.0
0.0
0.0
0.0
0.0
0.0
0.0
0.0
0.0
0.0
0.0
-0.0003662109375
0.0
0.0
0.0
0.0
0.0
0.0
0.0
0.0003662109375
0.0
-0.0003662109375
0.0
0.0
0.0
0.0003662109375
0.0
0.0
0.0
0.0
0.0
0.0
0.0
0.0
0.0
0.0
0.0
0.0
0.0
0.0
0.0
0.0
0.0
0.0
0.0
0.0
0.0
-0.0003662109375
0.0
0.0
0.0
0.0003662109375
0.0
0.0
0.0
-0.074371337890625
0.0
-0.300323486328125
0.0
-0.407257080078125
0.0
-0.35968017578125
0.0
-0.339141845703125
0.058624267578125
-0.294830322265625
0.193389892578125
-0.272125244140625
0.2523193359375
-0.270294189453125
0.246856689453125
-0.268096923828125
0.259674072265625
-0.2332763671875
0.231475830078125
-0.135162353515625
0.218292236328125
-0.037384033203125
0.256011962890625
0.0
0.250152587890625
-0.0003662109375
0.2186279296875
0.0
0.300323486328125
0.0
0.35198974609375
0.0
0.158966064453125
0.0
0.0
0.0
0.0
0.0
0.0
0.0
0.0
0.0
0.0
0.0003662109375
0.0
0.0
0.0
-0.0003662109375
0.0
0.0
0.0
0.0
0.0
0.0003662109375
0.0
0.0
0.0
0.0
0.0
0.0
0.0
0.0
0.0
0.0
0.0
-0.0003662109375
0.0
0.0
0.0
0.0
0.0
0.0
0.0003662109375
0.0
0.0
0.0
-0.0003662109375
0.0
0.0
0.0003662109375
0.0
0.0
0.0
-0.0003662109375
0.0
0.0003662109375
0.0
0.0
0.0
-0.0003662109375
0.0
0.0003662109375
0.0
0.0
0.0
0.41534423828125
0.0003662109375
1.0
0.000732421875
1.0
0.0003662109375
-0.762908935546875
-0.0003662109375
-1.0
-0.0010986328125
-0.734344482421875
-0.0003662109375
0.0018310546875
0.0003662109375
0.0
0.0
0.0003662109375
0.0
0.205841064453125
0.0
1.0
-0.227447509765625
1.0
-1.0
0.158233642578125
-1.0
-0.0003662109375
-0.096710205078125
0.0
0.0
0.0
0.0
-0.0003662109375
0.0
0.0
0.0
0.0
0.0
0.0003662109375
0.0
0.0
0.0
0.0
0.0
0.0003662109375
0.0
0.0
0.0
0.0
0.0
-0.0003662109375
0.0
-0.0003662109375
0.0
0.0003662109375
0.0
0.0
0.0
-0.0003662109375
0.0
0.0003662109375
0.0
0.0003662109375
0.0
0.0
0.0
-0.0003662109375
0.0
0.0
0.0
0.0003662109375
0.0
-0.0003662109375
0.0
0.0
0.0
0.0
0.0
0.0
0.0
0.0003662109375
0.0
-0.0003662109375
0.0
0.0
0.0
0.0
0.0
-0.0003662109375
0.0
0.0003662109375
0.0
0.0003662109375
0.0
0.0
0.0
0.0
0.264434814453125
0.0
1.0
0.0
1.0
-0.0003662109375
0.091583251953125
-0.39556884765625
-0.0003662109375
-0.764739990234375
-0.0003662109375
-0.61566162109375
-0.0003662109375
-0.48089599609375
0.0
-0.45965576171875
-0.0003662109375
-0.249786376953125
-0.0003662109375
-0.02490234375
0.0
-0.0003662109375
0.0003662109375
-0.0003662109375
0.0
0.0
-0.0003662109375
0.0003662109375
0.0
0.0003662109375
0.0
0.0
0.0
0.0
0.0
0.0
0.0
-0.0003662109375
0.0
-0.0003662109375
0.0
0.0
0.0
0.0
0.0
0.0
0.0
0.0
0.0
0.0
0.0
0.0
0.0
0.0
0.0
0.0
0.0
0.0
0.0
0.0
0.0
0.0
0.0
0.0
0.0
0.0003662109375
0.0
0.0
0.0
0.0
0.0
0.0
0.0
-0.0003662109375
0.0
0.0
0.0
0.0
0.0
0.0
0.0
0.0003662109375
0.0
0.0003662109375
0.0
-0.0003662109375
0.0
-0.0003662109375
0.0
0.0
0.0
0.0
0.0
0.0003662109375
0.0
0.0003662109375
0.0
-0.0003662109375
0.0
-0.0003662109375
0.0
0.0
-0.733978271484375
0.0
-0.59185791015625
0.0
0.733978271484375
0.0
0.59185791015625
0.0003662109375
0.0
0.0
-1.0
0.0
-1.0
0.0
0.0
-0.0003662109375
0.0
0.0003662109375
0.0
0.0
0.0
1.0
0.0
1.0
0.0
-0.0010986328125
0.0
-1.0
0.0
-1.0
0.0
0.000732421875
0.0
-0.0003662109375
0.0
-0.0003662109375
0.0
0.0
0.0
0.0
0.0
0.0
0.0
0.0
0.0
0.0003662109375
0.0
0.0003662109375
0.0
0.0
0.0
-0.0003662109375
0.0
-0.0003662109375
0.0
0.0003662109375
0.0
0.0
0.0
0.0303955078125
0.0
1.0
0.0
1.0
0.0
-0.0003662109375
0.0
0.0
0.0
0.0003662109375
0.0
-0.0003662109375
0.0
0.0
0.0
0.0003662109375
0.0
0.0
0.0
-0.0003662109375
0.0
0.0
0.0
0.0
0.0
0.0
0.0
0.0003662109375
0.0
0.0
0.0
0.0
0.0
0.0
0.0
-0.0003662109375
0.0
0.0
0.0
0.0003662109375
0.0
-0.0003662109375
0.0
0.0
0.0
0.0003662109375
0.0
0.0
0.0
0.0
0.0
0.0
0.0
0.0
0.0
0.0
0.0
0.0
0.0
0.0
0.0
0.0
0.0
0.0
0.0
0.0
0.0
0.0
0.0
0.0
0.0
0.0
0.0
0.0
0.0
0.0
0.0
-0.0003662109375
0.0
-0.093048095703125
0.0
-0.9259033203125
0.0
-1.0
0.0
-0.56988525390625
0.0
-0.0010986328125
0.0
0.0
0.0
0.0
0.0
0.0003662109375
0.0
0.0
0.0
-0.0003662109375
0.0
0.0003662109375
0.0
0.0
0.0
-0.0003662109375
0.0
0.0
0.053131103515625
0.0
0.57427978515625
0.0
1.0
0.0003662109375
0.924072265625
0.0
0.38275146484375
0.0
0.0
0.0
0.0
-0.0003662109375
0.0
0.0
0.0
0.0003662109375
0.0
0.0003662109375
0.0
-0.0003662109375
0.0
-0.0003662109375
0.0
0.0
0.0
0.0
0.0
1.0
0.000732421875
1.0
0.000732421875
-0.00146484375
0.0
-0.0003662109375
0.0
0.0003662109375
0.0003662109375
0.0003662109375
0.0
0.0
0.0
0.0
0.0
-0.0003662109375
-0.0003662109375
-0.0003662109375
0.0
0.0003662109375
0.0
0.0003662109375
0.0
0.0
0.0
0.0
0.0
0.0
0.0
0.0
0.0003662109375
0.0
0.0003662109375
0.0
-0.0003662109375
0.0
-0.0003662109375
0.0
0.0
0.0
0.0
0.0
0.0
0.0
0.0
-0.0003662109375
0.0
0.0
0.0
0.0
0.0
-0.0003662109375
0.0
0.0003662109375
0.0
0.0003662109375
0.0
0.0
0.0
0.0
0.0
-0.0003662109375
0.0
-0.0003662109375
0.0
0.0003662109375
0.0
-0.018310546875
0.0
-0.38275146484375
0.0
0.019775390625
0.0
-1.0
-0.000732421875
0.0
0.0
0.240631103515625
0.0003662109375
0.0
0.0
1.0
0.0003662109375
0.0
0.0
0.160797119140625
0.0
-0.0010986328125
0.0003662109375
0.0
0.0
0.0
-0.0003662109375
0.0
0.0
0.0
0.0
0.0
0.0
0.0
-0.781219482421875
-0.0003662109375
0.0
-0.0003662109375
-0.717864990234375
0.0003662109375
0.0
0.0003662109375
0.0
0.0
0.0
0.0
0.740570068359375
0.0
-0.085723876953125
0.0
0.69110107421875
-0.0003662109375
-0.338775634765625
0.0
0.067413330078125
0.0003662109375
-0.216827392578125
0.0
0.0
0.0
0.091583251953125
0.0
-0.035919189453125
0.0
0.54974365234375
0.0
0.035919189453125
-1.0
-0.000732421875
0.0010986328125
-1.0
1.0
-1.0
-0.0010986328125
0.0
0.0003662109375
-0.11279296875
-0.0003662109375
0.0
0.0
-0.039947509765625
0.0
0.0
0.0
0.0
0.0
0.0
0.0
0.0
0.0018310546875
0.0267333984375
-1.0
1.0
-0.101104736328125
0.269927978515625
0.677581787109375
-0.41973876953125
-0.847137451171875
0.826263427734375
0.72991943359375
-1.0
-0.55120849609375
0.319000244140625
0.067047119140625
-0.061920166015625
1.0
-0.861053466796875
-0.50506591796875
0.850067138671875
-0.052398681640625
-0.043212890625
0.193389892578125
-0.0439453125
-0.2025146484375
0.236236572265625
0.2340087890625
-0.227813720703125
-0.153106689453125
0.160797119140625
0.076568603515625
-0.126708984375
-0.0380859375
0.00732421875
-0.050201416015625
0.0501708984375
0.099609375
-0.090850830078125
-0.177978515625
0.190093994140625
0.078765869140625
-0.14794921875
-0.138092041015625
0.06298828125
-0.109161376953125
0.076904296875
0.054229736328125
-0.107666015625
0.252349853515625
-0.355621337890625
0.035888671875
-0.140289306640625
-0.0765380859375
-0.0098876953125
0.274688720703125
0.9921875
-0.305084228515625
0.07177734375
-0.38128662109375
-1.0
0.50469970703125
1.0
0.38275146484375
1.0
0.0
-0.0003662109375
0.0
0.0
0.0003662109375
0.0
-0.0003662109375
0.0
0.0
0.0
0.0
0.0
-1.0
-0.000732421875
-1.0
-0.000732421875
0.0
-1.0
0.0
-1.0
0.0003662109375
0.0
0.0003662109375
0.0
0.0
0.0
-0.0003662109375
0.0
-0.0003662109375
0.0
0.0
0.0
0.0003662109375
0.0
0.0003662109375
0.0
-0.0003662109375
0.0
1.0
0.0
1.0
0.0
-0.0010986328125
0.0
0.0
0.0
0.0
0.0
0.0
0.0
0.0
0.0
0.0
0.0
0.0
0.0
-0.0003662109375
0.0
0.0
0.0
0.0003662109375
0.0
0.0
0.0
0.0
0.0
0.0
0.0
0.0
0.0
0.0
0.0
0.0
0.0
0.0
0.0
0.0
0.0
0.0
0.0
-1.0
0.0
-1.0
0.35235595703125
0.00146484375
1.0
0.0003662109375
1.0
0.0
0.0
0.0
0.0
0.0
0.0
0.0
0.0
0.0003662109375
0.0
0.0
0.0
-0.0003662109375
0.0
-0.0003662109375
0.0
0.0
0.0
0.0003662109375
-1.0
0.0
-1.0
1.0
0.0
1.0
0.0
-0.0010986328125
0.0
-0.0003662109375
0.0
0.0
0.0
0.0003662109375
0.0
0.0
0.0029296875
0.0
0.0
0.0
-0.0029296875
0.0
0.195220947265625
0.0
1.0
-0.0003662109375
1.0
0.0
0.0
0.0003662109375
0.0
0.0
0.0
-0.0003662109375
0.0
-1.0
-0.000732421875
-1.0
-0.000732421875
-0.092315673828125
0.0
0.0
0.0
0.0003662109375
0.0
0.0
0.0
0.0
0.0
0.0003662109375
0.0
-0.0003662109375
0.0
-0.0003662109375
0.0
0.0003662109375
0.0
0.0
0.0
-0.0003662109375
0.0
0.0
0.0
0.0
0.0
1.0
-1.0
1.0
-1.0
-0.0003662109375
0.0
0.0
0.0
0.0003662109375
0.0
0.0
0.0
0.0
0.0
0.0
0.0
0.0
0.0
0.0
0.0
0.0
0.0
0.0
0.0
0.0
0.0
0.0
0.0
0.0
0.0
-0.0003662109375
0.0
-0.0003662109375
0.0
0.0
0.0
0.0
0.0
0.0003662109375
0.0
0.0003662109375
0.0
0.0
0.0
0.0
0.0
0.0
0.0
-0.0003662109375
0.0
0.0
0.0
0.0003662109375
0.0
0.0
0.0
0.0
0.0
0.0
0.0
-0.0003662109375
0.0
0.0
0.0
0.0
0.0
0.0
0.0
0.0
0.0
0.0
0.0
0.0003662109375
0.0
-0.0003662109375
0.0
-0.0003662109375
0.0
0.0
0.0
0.0
0.0
0.0003662109375
0.0
0.0003662109375
0.0
0.0
0.0
-0.0003662109375
0.0
-0.0003662109375
0.0
0.0003662109375
0.0
0.0003662109375
0.0
-0.0003662109375
0.0
0.0
0.0
0.0003662109375
0.0
0.0
0.0
-0.0003662109375
0.0
0.0
0.0
0.0003662109375
0.0
0.0
0.0
-0.0003662109375
0.0
-0.0003662109375
0.0
0.0003662109375
0.0
0.0003662109375
0.0
0.0
0.048736572265625
0.0
0.094512939453125
0.0
0.1270751953125
0.0
0.14501953125
0.0
0.0853271484375
-0.0003662109375
0.0501708984375
0.0
0.063018798828125
0.0
0.062652587890625
0.0
0.0875244140625
0.0003662109375
0.125244140625
-0.0003662109375
0.101806640625
-0.0003662109375
0.130401611328125
0.0003662109375
0.183135986328125
0.0003662109375
0.1094970703125
0.0
0.0084228515625
0.0
0.00732421875
-0.0003662109375
0.029296875
-0.0003662109375
0.02197265625
0.0
0.0172119140625
-0.0003662109375
0.07470703125
-0.02197265625
-0.0421142578125
-0.035919189453125
-0.1552734375
-0.034088134765625
-0.0684814453125
-0.0377197265625
-0.060821533203125
-0.0325927734375
-0.072174072265625
-0.0347900390625
-0.0662841796875
-0.0355224609375
-0.0479736328125
-0.03076171875
-0.03076171875
-0.0263671875
-0.02490234375
-0.03076171875
-0.017578125
-0.041748046875
0.013916015625
-0.03955078125
0.0208740234375
-0.0340576171875
-0.005126953125
-0.0263671875
-0.0106201171875
-0.0274658203125
-0.000732421875
-0.02783203125
-0.008056640625
-0.0245361328125
-0.0322265625
-0.0238037109375
-0.018310546875
-0.02490234375
-0.0018310546875
-0.0281982421875
-0.0135498046875
-0.018707275390625
-0.0223388671875
-0.013214111328125
-0.0369873046875
-0.0186767578125
-0.021240234375
-0.0230712890625
-0.005126953125
-0.0205078125
0.008056640625
-0.02490234375
0.0018310546875
-0.022705078125
0.087890625
-0.025634765625
0.0164794921875
-0.0355224609375
-0.087158203125
-0.027099609375
0.00146484375
-0.025634765625
0.00146484375
-0.0216064453125
0.008056640625
-0.019775390625
0.0135498046875
-0.0205078125
0.0069580078125
-0.017578125
0.0029296875
-0.0223388671875
0.0267333984375
-0.02490234375
0.0509033203125
-0.0263671875
0.0399169921875
-0.017578125
0.0318603515625
-0.0106201171875
0.0040283203125
-0.0029296875
-0.0172119140625
-0.0047607421875
-0.003662109375
-0.01171875
0.0076904296875
0.0032958984375
0.003662109375
0.0205078125
-0.0234375
0.0677490234375
-0.1248779296875
0.07470703125
-0.1728515625
0.0230712890625
-0.134429931640625
-0.0113525390625
-0.195220947265625
-0.1171875
-0.265167236328125
-0.1102294921875
-0.134796142578125
-0.0252685546875
0.0
-0.0347900390625
0.0
-0.065582275390625
0.0
-0.071075439453125
0.0
0.005126953125
0.0
0.140289306640625
0.0
0.159332275390625
0.0
0.0501708984375
0.0
0.0487060546875
0.0
0.0677490234375
0.0
0.017578125
0.0
-0.0216064453125
0.0
-0.02490234375
0.0
-0.03515625
0.0
-0.049072265625
0.0
-0.0487060546875
0.0
-0.04833984375
0.0
-0.0439453125
0.0
-0.040283203125
0.0
-0.043975830078125
0.0
-0.051666259765625
0.0
-0.04833984375
0.0
-0.043212890625
0.0
-0.044677734375
0.0
-0.040283203125
0.0
-0.017578125
1.0
-0.0069580078125
1.0
-0.010986328125
0.0
-0.0062255859375
0.0
0.0025634765625
0.0003662109375
-0.0128173828125
0.0003662109375
-0.01171875
-0.0003662109375
0.0047607421875
-0.0003662109375
0.0047607421875
0.0
0.0084228515625
0.0
0.0087890625
0.0
0.00439453125
0.0
0.000732421875
0.0
0.0062255859375
0.0
0.008056640625
0.0
0.0010986328125
0.0
-0.00439453125
0.0003662109375
0.0
0.0
0.003662109375
-0.0003662109375
0.0062255859375
0.0
0.0076904296875
0.0
0.00439453125
0.0
-0.00146484375
0.0003662109375
-0.000732421875
0.0
0.0054931640625
0.0
0.0018310546875
0.0003662109375
0.00146484375
-0.0003662109375
-0.0040283203125
-0.0003662109375
-0.00439453125
0.0003662109375
0.00439453125
0.0
0.00146484375
-0.0003662109375
0.013916015625
0.0
-0.01025390625
0.0
-0.0150146484375
0.0
0.005126953125
0.0003662109375
-0.0010986328125
0.0
0.00146484375
-0.0003662109375
0.0018310546875
0.0
0.006591796875
0.0
0.0062255859375
0.0003662109375
0.0032958984375
0.0
-0.003662109375
0.0
-0.0076904296875
0.0
-0.009521484375
-0.0003662109375
-0.0040283203125
0.0
-0.0018310546875
0.0
-0.0040283203125
0.0
0.0003662109375
0.0
0.0003662109375
0.0
0.0
0.0
-0.003662109375
0.0
-0.0025634765625
0.0
-0.0018310546875
0.0
-0.0032958984375
0.0
-0.008056640625
0.0
-0.00146484375
0.0
0.0076904296875
0.0
0.0040283203125
0.0
0.0150146484375
0.0003662109375
0.005859375
0.0
-0.000732421875
-0.0003662109375
0.0047607421875
0.0003662109375
-0.0029296875
0.0
-0.0040283203125
-0.0003662109375
-0.00732421875
0.0
-0.006591796875
0.0
-0.005126953125
0.0
-0.00439453125
-0.100006103515625
-0.008056640625
-0.165191650390625
-0.0128173828125
-0.1285400390625
-0.0142822265625
-0.392242431640625
-0.0135498046875
-0.673553466796875
-0.0069580078125
-0.51715087890625
-0.003662109375
-0.1358642578125
-0.0018310546875
-0.0831298828125
0.00146484375
-0.254180908203125
0.01025390625
0.2449951171875
0.0087890625
0.60211181640625
0.000732421875
0.192657470703125
0.00439453125
0.276885986328125
0.0062255859375
0.387115478515625
0.013916015625
0.0311279296875
0.0087890625
-0.06298828125
0.006591796875
0.0076904296875
0.0135498046875
-0.0113525390625
0.0091552734375
-0.0545654296875
0.0128173828125
0.04833984375
0.0047607421875
0.115753173828125
-0.0010986328125
0.049468994140625
0.0018310546875
0.0567626953125
0.00439453125
0.123779296875
0.0047607421875
0.1102294921875
0.002197265625
0.0465087890625
0.005126953125
0.146148681640625
0.0091552734375
0.139190673828125
0.008056640625
0.0
0.0040283203125
0.0
-0.000732421875
0.0
-0.0047607421875
0.0
0.00146484375
0.0003662109375
0.0054931640625
0.0
0.005859375
-0.0003662109375
0.002197265625
0.0
0.000732421875
0.0003662109375
0.0047607421875
0.0003662109375
-0.002197265625
-0.0120849609375
-0.00146484375
-0.065948486328125
0.0
-0.091583251953125
0.0018310546875
-0.0362548828125
-0.00146484375
-0.047607421875
-0.0054931640625
-0.0933837890625
-0.000732421875
-0.09814453125
-0.003662109375
-0.134063720703125
0.002197265625
-0.0457763671875
-0.0069580078125
-0.109130859375
-0.0142822265625
-0.290435791015625
-0.0142822265625
-0.53289794921875
-0.0216064453125
-0.637664794921875
-0.018310546875
-0.52740478515625
-0.015380859375
-0.275787353515625
-0.0120849609375
0.0
-0.0113525390625
0.0
-0.0428466796875
0.0
-0.06298828125
0.0
-0.049072265625
0.0
-0.0421142578125
0.0
-0.03369140625
0.0
-0.0263671875
0.0
-0.0252685546875
0.0
-0.021270751953125
0.0
-0.016510009765625
0.0
-0.0084228515625
0.0
-0.0076904296875
0.0
-0.0113525390625
0.0
-0.0040283203125
0.0
0.0029296875
0.0
-0.0029296875
0.0
-0.0062255859375
0.0
0.0010986328125
0.0
0.0003662109375
0.0
0.0142822265625
0.0
0.0040283203125
0.0
-0.006591796875
0.0
0.0069580078125
0.0
0.0069580078125
0.0
0.008056640625
0.0
0.0029296875
0.0
0.0029296875
0.0
0.008453369140625
0.0
0.010650634765625
0.0
0.0054931640625
0.0
-0.00146484375
0.0
0.0010986328125
0.0
0.0062255859375
0.0
0.0010986328125
0.0
-0.016510009765625
0.0
-0.00146484375
0.0
0.012481689453125
0.0
-0.020172119140625
0.0
-0.026763916015625
0.0
-0.008056640625
0.0
-0.0150146484375
0.0
-0.0216064453125
0.0
0.005126953125
0.0
-0.0201416015625
0.0
-0.04248046875
0.0
0.041748046875
0.0
-0.0106201171875
0.0
-0.0340576171875
0.0
-0.0146484375
0.0
-0.55194091796875
0.54937744140625
-0.50799560546875
0.47467041015625
0.0018310546875
0.948974609375
0.0003662109375
1.0
1.0
0.000732421875
1.0
0.000732421875
0.239166259765625
0.0
0.0003662109375
0.0
0.0003662109375
0.0
0.0
0.0003662109375
0.0
0.0
0.0
-0.0003662109375
0.0
0.0
0.0
0.0
0.0
0.0
0.0
0.0
0.0
0.0
0.0
0.0
0.0
0.0
0.0
0.0
0.0
0.0
0.0
0.0
-0.0003662109375
0.0003662109375
-0.0003662109375
0.0
0.0003662109375
-0.0003662109375
0.0
0.0
-0.0003662109375
0.0
0.0003662109375
0.0
0.0
0.0
-0.0003662109375
0.0
0.0
0.0
0.0
0.0
0.0
0.0
-0.0172119140625
0.0
-0.055328369140625
0.0
-0.078033447265625
0.0
-0.0706787109375
0.0
-0.068115234375
0.0
-0.119384765625
0.0
-0.107666015625
0.0
-0.032958984375
0.0
-0.0234375
0.0
-0.038818359375
0.0
-0.035186767578125
0.0
-0.023468017578125
0.0
-0.024169921875
0.0
-0.028564453125
0.0
-0.0325927734375
-0.0003662109375
-0.0340576171875
0.0
-0.041748046875
0.0
-0.0479736328125
0.0
-0.0377197265625
0.0003662109375
-0.0428466796875
-0.0003662109375
-0.0399169921875
0.0
-0.0552978515625
0.0003662109375
-0.0560302734375
-0.0003662109375
-0.05126953125
-0.0003662109375
-0.060821533203125
0.0
-0.035552978515625
0.0
-0.0333251953125
0.0
-0.03515625
0.0
-0.024169921875
0.0
-0.0142822265625
0.0
-0.013916015625
0.0003662109375
-0.0194091796875
0.0
-0.018310546875
-0.0003662109375
-0.012451171875
0.0
-0.008056640625
0.0003662109375
-0.01171875
0.0003662109375
-0.0179443359375
-0.0003662109375
-0.0135498046875
-0.0003662109375
-0.00732421875
0.0
-0.0047607421875
0.0
-0.0128173828125
0.0
-0.017578125
0.0
-0.012451171875
0.0
-0.015380859375
0.0
-0.0135498046875
0.0
-0.0018310546875
0.0
0.0
0.0
0.01025390625
0.0
-0.0201416015625
0.0
-0.0179443359375
0.0
0.005859375
0.0
-0.0128173828125
0.0
-0.0087890625
0.0
-0.002197265625
0.0
0.0062255859375
0.0
0.008056640625
0.0
0.0069580078125
0.0
0.000732421875
0.0
-0.0069580078125
0.0
-0.013916015625
0.0
-0.01025390625
0.0
-0.0025634765625
0.0
0.0018310546875
0.0
0.0025634765625
0.0
-0.002197265625
0.0
-0.00439453125
0.0
-0.0010986328125
0.0
0.0025634765625
0.0
0.005859375
0.0
0.003662109375
0.0
-0.000732421875
0.0
0.000732421875
0.0
-0.0025634765625
0.0
0.0018310546875
0.0
0.01171875
0.0
0.0234375
0.0
-0.005126953125
0.0
-0.01025390625
0.0
0.01171875
0.0003662109375
0.0
0.0
-0.000732421875
-0.0003662109375
0.0010986328125
0.0
0.002197265625
0.0
-0.000732421875
0.0
0.00146484375
-0.0120849609375
0.009521484375
-0.0120849609375
0.0076904296875
0.0032958984375
0.0
-0.0010986328125
0.0054931640625
-0.0216064453125
0.0084228515625
-0.034454345703125
0.008056640625
-0.039947509765625
0.0062255859375
-0.040283203125
-0.0029296875
-0.03662109375
-0.0054931640625
-0.0384521484375
-0.0029296875
-0.03955078125
-0.0018310546875
-0.0340576171875
0.0
-0.03076171875
-0.0025634765625
-0.034423828125
-0.0142822265625
-0.0435791015625
-0.01904296875
-0.037353515625
-0.0113525390625
-0.0252685546875
-0.0113525390625
-0.0164794921875
-0.0150146484375
-0.016845703125
-0.00146484375
0.0439453125
-0.0186767578125
-0.012451171875
-0.025634765625
-0.1124267578125
-0.00146484375
-0.058258056640625
-0.00146484375
-0.030792236328125
-0.0146484375
-0.0289306640625
-0.02783203125
-0.03076171875
-0.018310546875
-0.03369140625
0.0
-0.0391845703125
-0.010986328125
-0.0325927734375
-0.01025390625
-0.01611328125
0.002197265625
0.002197265625
0.000732421875
0.005126953125
0.003662109375
-0.0106201171875
0.00732421875
-0.0186767578125
0.0091552734375
-0.018310546875
0.005126953125
-0.015380859375
0.0106201171875
-0.01611328125
0.01611328125
-0.021240234375
0.0208740234375
-0.0223388671875
0.030029296875
-0.024169921875
0.0223388671875
-0.0296630859375
0.005859375
-0.0238037109375
-0.0010986328125
-0.029296875
-0.0032958984375
-0.0157470703125
0.0010986328125
0.000732421875
0.0084228515625
-0.00732421875
0.010986328125
-0.027099609375
0.005859375
0.0736083984375
-0.0029296875
0.012451171875
-0.0069580078125
-0.0948486328125
-0.0054931640625
-0.0164794921875
-0.022705078125
-0.010986328125
-0.0245361328125
-0.0106201171875
-0.0010986328125
-0.0142822265625
0.002197265625
-0.017242431640625
0.003662109375
-0.018707275390625
0.008056640625
-0.01318359375
0.008056640625
0.0032958984375
0.0010986328125
0.020172119140625
-0.00146484375
0.014312744140625
0.0032958984375
0.0
0.0054931640625
-0.003692626953125
0.0087890625
-0.002960205078125
0.0076904296875
0.002227783203125
0.0032958984375
0.002227783203125
0.0003662109375
0.003662109375
-0.0025634765625
0.0025634765625
0.0
-0.0003662109375
0.0032958984375
0.005126953125
0.0018310546875
0.0047607421875
0.00146484375
-0.003662109375
-0.0069580078125
-0.0029296875
-0.0069580078125
0.0135498046875
0.0069580078125
0.01611328125
0.0040283203125
0.0069580078125
0.008056640625
0.03076171875
-0.01025390625
0.043212890625
-0.01171875
-0.03662109375
0.008056640625
-0.0589599609375
-0.0018310546875
-0.0113525390625
0.0003662109375
-0.008056640625
0.002197265625
-0.007720947265625
0.0032958984375
-0.012481689453125
0.0069580078125
-0.0142822265625
0.0069580078125
-0.0128173828125
0.0025634765625
-0.0029296875
-0.0003662109375
0.0186767578125
-0.0062255859375
0.020172119140625
-0.0069580078125
0.005523681640625
-0.00146484375
-0.0003662109375
0.0003662109375
-0.002593994140625
0.0010986328125
-0.006988525390625
-0.0003662109375
-0.0040283203125
0.0
-0.002197265625
0.0018310546875
-0.000732421875
-0.0010986328125
0.005859375
-0.002197265625
0.0047607421875
0.0010986328125
-0.0029296875
0.000732421875
-0.019775390625
-0.0084228515625
-0.0098876953125
-0.000732421875
0.0120849609375
0.006591796875
0.017608642578125
0.0003662109375
0.017242431640625
0.0062255859375
0.1058349609375
0.0010986328125
0.024169921875
-0.0032958984375
-0.082763671875
0.002197265625
-0.003662109375
0.000732421875
0.0018310546875
-0.0010986328125
-0.0047607421875
0.0025634765625
-0.009521484375
0.0025634765625
-0.0135498046875
0.0040283203125
-0.0172119140625
0.0062255859375
-0.014678955078125
0.0029296875
0.0029296875
-0.0047607421875
0.023834228515625
-0.006591796875
0.01904296875
-0.0003662109375
0.003662109375
0.0032958984375
-0.006591796875
-0.005859375
-0.0084228515625
-0.0091552734375
-0.000732421875
-0.00146484375
0.00146484375
0.0010986328125
0.0010986328125
0.0040283203125
0.0010986328125
0.00146484375
-0.0003662109375
-0.000732421875
-0.002197265625
-0.0010986328125
-0.0091552734375
-0.006591796875
-0.006591796875
-0.00439453125
0.0047607421875
0.005126953125
0.006591796875
0.0047607421875
-0.000732421875
0.016845703125
0.03515625
-0.01025390625
0.0333251953125
-0.012451171875
-0.058624267578125
0.0113525390625
-0.055328369140625
-0.00146484375
-0.005859375
0.0032958984375
-0.0135498046875
0.0025634765625
-0.0150146484375
0.0032958984375
-0.01318359375
0.005859375
-0.016845703125
0.0069580078125
-0.0172119140625
0.0032958984375
-0.005126953125
-0.0010986328125
0.02197265625
-0.002197265625
0.0267333984375
-0.0003662109375
0.008056640625
0.005126953125
-0.0054931640625
0.0062255859375
-0.0091552734375
0.0047607421875
-0.003662109375
0.00146484375
0.00146484375
0.002197265625
-0.0047607421875
0.002197265625
-0.00732421875
-0.000732421875
-0.0040283203125
-0.002197265625
-0.003662109375
-0.000732421875
-0.000732421875
0.0003662109375
-0.00146484375
0.0
-0.016845703125
-0.005126953125
-0.009521484375
-0.0029296875
0.0069580078125
0.0047607421875
0.0076904296875
0.0003662109375
0.005126953125
0.005126953125
0.076568603515625
-0.0025634765625
0.006591796875
-0.00732421875
-0.089385986328125
-0.000732421875
-0.0230712890625
-0.0029296875
-0.0084228515625
-0.0003662109375
-0.006591796875
0.000732421875
-0.0062255859375
-0.0003662109375
-0.005859375
0.00439453125
-0.0146484375
0.009521484375
-0.0120849609375
0.0025634765625
0.0087890625
-0.0054931640625
0.0260009765625
-0.0054931640625
0.0274658203125
-0.0062255859375
0.0120849609375
-0.005859375
0.0054931640625
-0.0040283203125
0.0069580078125
-0.005859375
0.0003662109375
-0.0032958984375
-0.000732421875
0.0010986328125
0.00439453125
0.0003662109375
0.00439453125
-0.002197265625
0.005859375
-0.0032958984375
0.008056640625
-0.0003662109375
0.01171875
0.005859375
-0.0029296875
-0.005126953125
0.006591796875
-0.006591796875
0.017578125
-0.0010986328125
0.0091552734375
0.0047607421875
-0.015380859375
-0.0010986328125
0.080963134765625
-0.0146484375
0.019775390625
-0.002197265625
-0.096710205078125
-0.0025634765625
-0.0150146484375
0.002197265625
-0.01171875
0.0084228515625
-0.0157470703125
0.00732421875
-0.0146484375
0.015380859375
-0.02197265625
0.008056640625
-0.0223388671875
0.0029296875
-0.0135498046875
0.0032958984375
0.0032958984375
-0.0062255859375
0.0234375
-0.00439453125
0.0150146484375
0.0010986328125
-0.00146484375
0.0032958984375
-0.00732421875
0.0032958984375
-0.0025634765625
0.0010986328125
-0.0010986328125
0.0
-0.00439453125
-0.0029296875
0.002197265625
-0.0054931640625
0.0029296875
0.0047607421875
-0.0076904296875
0.005859375
-0.0087890625
-0.0062255859375
-0.010986328125
-0.0032958984375
-0.006591796875
0.0
0.009521484375
-0.0054931640625
0.0238037109375
-0.013916015625
0.025634765625
0.0003662109375
0.089752197265625
-0.0054931640625
0.0186767578125
-0.021240234375
-0.082427978515625
-0.013916015625
-0.013916015625
-0.017578125
0.013916015625
-0.01171875
0.0106201171875
-0.0084228515625
0.010986328125
-0.0274658203125
0.0245361328125
-0.0399169921875
0.028594970703125
-0.048370361328125
0.045806884765625
-0.066680908203125
0.0791015625
-0.0706787109375
0.095947265625
-0.0604248046875
0.08349609375
-0.0494384765625
0.052734375
-0.0355224609375
0.0333251953125
-0.0303955078125
0.0340576171875
-0.021240234375
0.0281982421875
-0.0179443359375
0.021240234375
-0.01171875
0.0142822265625
0.0010986328125
0.0029296875
-0.0018310546875
-0.0003662109375
0.0069580078125
-0.01025390625
0.015380859375
-0.0146484375
0.0157470703125
-0.0234375
0.0113525390625
-0.0230712890625
0.013916015625
-0.0098876953125
0.025634765625
-0.010986328125
0.0263671875
-0.0179443359375
0.03515625
0.00439453125
0.0084228515625
0.0399169921875
0.0084228515625
-0.05419921875
0.0340576171875
-0.0966796875
0.022705078125
-0.030029296875
0.0238037109375
-0.0281982421875
0.0245361328125
-0.032958984375
0.0303955078125
-0.0355224609375
0.03076171875
-0.0399169921875
0.030792236328125
-0.0406494140625
0.029327392578125
-0.02783203125
0.0205078125
-0.005859375
0.0146484375
0.0047607421875
0.01611328125
-0.008056640625
0.01904296875
-0.020904541015625
0.019775390625
-0.022369384765625
0.0205078125
-0.0205078125
0.017578125
-0.018310546875
0.0146484375
-0.017578125
0.013916015625
-0.0157470703125
0.0135498046875
-0.0157470703125
0.0098876953125
-0.0146484375
0.0106201171875
-0.013916015625
0.012451171875
-0.0146484375
0.01171875
-0.0234375
0.0047607421875
-0.0172119140625
0.0054931640625
-0.0069580078125
0.0146484375
-0.0032958984375
0.009521484375
-0.0003662109375
0.015380859375
0.0677490234375
-0.000732421875
0.0106201171875
-0.008056640625
-0.0897216796875
0.00439453125
-0.0325927734375
-0.0047607421875
-0.0032958984375
-0.0047607421875
-0.0029296875
-0.0029296875
-0.0054931640625
0.0003662109375
-0.01025390625
0.0054931640625
-0.0194091796875
0.0113525390625
-0.0216064453125
0.0120849609375
-0.0084228515625
0.0047607421875
0.0113525390625
0.0010986328125
0.01611328125
0.0018310546875
0.003662109375
0.0047607421875
-0.0069580078125
0.00732421875
-0.0091552734375
0.006591796875
-0.006591796875
0.006591796875
-0.006591796875
0.0025634765625
-0.0018310546875
-0.00146484375
0.0018310546875
0.000732421875
-0.003662109375
0.00439453125
-0.005859375
0.003662109375
-0.0113525390625
-0.0018310546875
-0.01171875
-0.000732421875
0.0003662109375
0.0084228515625
0.0069580078125
0.0062255859375
0.005126953125
0.0135498046875
0.0377197265625
-0.0113525390625
0.0450439453125
-0.0120849609375
-0.047607421875
0.012451171875
-0.0596923828125
-0.0010986328125
-0.0062255859375
0.00146484375
-0.0084228515625
0.002197265625
-0.009521484375
0.000732421875
-0.0069580078125
0.0010986328125
-0.0087890625
0.0025634765625
-0.012451171875
0.00146484375
0.0
-0.0040283203125
0.0201416015625
-0.009521484375
0.0245361328125
-0.0076904296875
0.0113525390625
-0.002197265625
0.0
0.0
0.0010986328125
-0.0010986328125
0.0040283203125
0.0
0.0040283203125
0.0062255859375
-0.0018310546875
0.0047607421875
-0.0003662109375
0.000732421875
0.003662109375
0.0010986328125
-0.0003662109375
0.00146484375
-0.00146484375
0.0029296875
-0.015380859375
-0.0029296875
-0.005126953125
-0.0018310546875
0.012451171875
0.00439453125
0.009521484375
0.005859375
-0.0091552734375
0.006591796875
0.0831298828125
-0.0010986328125
0.0157470703125
-0.006591796875
-0.0908203125
-0.0032958984375
-0.0098876953125
0.000732421875
-0.0040283203125
-0.000732421875
-0.0047607421875
-0.000732421875
-0.009521484375
0.0010986328125
-0.0098876953125
0.0003662109375
-0.0106201171875
0.0025634765625
-0.008056640625
-0.0010986328125
0.0106201171875
-0.0091552734375
0.0296630859375
-0.008056640625
0.02490234375
-0.002197265625
0.005859375
0.0
0.0
-0.0003662109375
0.0018310546875
0.0003662109375
0.0
-0.0029296875
0.0025634765625
-0.0040283203125
0.006591796875
0.0
0.0032958984375
-0.0018310546875
0.0025634765625
-0.0029296875
0.00439453125
0.0003662109375
-0.0003662109375
-0.0047607421875
-0.0054931640625
-0.0087890625
0.008056640625
-0.0010986328125
0.016845703125
0.000732421875
0.0076904296875
0.0069580078125
0.029296875
-0.0120849609375
0.0538330078125
-0.0164794921875
-0.0260009765625
0.0018310546875
-0.0556640625
-0.003662109375
-0.005126953125
-0.0087890625
0.0029296875
-0.0128173828125
0.005859375
-0.00732421875
0.0018310546875
-0.0062255859375
-0.002197265625
-0.0032958984375
-0.0040283203125
-0.0018310546875
0.0069580078125
-0.009521484375
0.0274658203125
-0.0146484375
0.0369873046875
-0.0120849609375
0.022705078125
-0.005126953125
0.01025390625
-0.003662109375
0.006591796875
-0.0032958984375
0.00732421875
-0.002197265625
0.01025390625
-0.0047607421875
0.0076904296875
-0.005859375
0.0040283203125
-0.0069580078125
0.0029296875
-0.00732421875
0.0029296875
-0.00146484375
-0.006591796875
-0.00439453125
-0.005859375
-0.0098876953125
0.00732421875
0.0018310546875
0.0146484375
0.0047607421875
0.01171875
0.010986328125
0.04248046875
-0.0087890625
0.0435791015625
-0.01171875
-0.0487060546875
0.0084228515625
-0.0574951171875
-0.0010986328125
-0.0098876953125
-0.0025634765625
-0.0106201171875
-0.0025634765625
-0.010986328125
-0.0003662109375
-0.0120849609375
0.0032958984375
-0.016845703125
0.005859375
-0.0142822265625
0.0069580078125
-0.0029296875
0.0025634765625
0.015380859375
-0.0076904296875
0.0230712890625
-0.005126953125
0.008056640625
0.000732421875
-0.0025634765625
0.005126953125
-0.0062255859375
0.005126953125
-0.0032958984375
0.00146484375
-0.0003662109375
0.0
-0.0010986328125
-0.0003662109375
-0.0003662109375
0.002197265625
-0.00146484375
0.00146484375
-0.0003662109375
0.003662109375
-0.013916015625
-0.0025634765625
-0.0106201171875
-0.00439453125
0.006591796875
0.006591796875
0.00732421875
0.006591796875
0.003662109375
0.016845703125
0.0706787109375
-0.003662109375
0.0157470703125
-0.0146484375
-0.0867919921875
0.008056640625
-0.0369873046875
0.0032958984375
-0.006591796875
0.0010986328125
-0.005859375
0.0025634765625
-0.0106201171875
0.0040283203125
-0.010986328125
0.0054931640625
-0.0164794921875
0.005859375
-0.012451171875
0.003662109375
0.0054931640625
-0.0047607421875
0.0234375
-0.0062255859375
0.0230712890625
-0.0010986328125
0.005859375
-0.0010986328125
0.000732421875
-0.000732421875
0.0018310546875
0.0010986328125
0.0
0.0010986328125
0.0018310546875
-0.000732421875
0.00439453125
-0.0032958984375
0.005126953125
-0.0032958984375
0.0029296875
0.0
-0.0029296875
0.0018310546875
-0.0069580078125
-0.0029296875
-0.009521484375
-0.003662109375
0.0029296875
0.00439453125
0.0113525390625
0.0029296875
0.00732421875
0.01318359375
0.0157470703125
-0.010986328125
0.07763671875
-0.0113525390625
-0.0201416015625
0.0113525390625
-0.0897216796875
-0.00146484375
-0.0047607421875
-0.0018310546875
-0.003662109375
0.0010986328125
-0.005859375
0.0032958984375
-0.008056640625
0.000732421875
-0.01025390625
0.002197265625
-0.0087890625
0.002197265625
0.0003662109375
-0.000732421875
0.017578125
-0.008056640625
0.0296630859375
-0.00732421875
0.0205078125
-0.0029296875
0.0032958984375
-0.00146484375
0.0
0.0010986328125
0.0010986328125
0.0003662109375
0.0032958984375
-0.0010986328125
0.0047607421875
0.0
0.00146484375
0.0
0.0040283203125
-0.00146484375
0.00439453125
-0.0025634765625
0.003662109375
0.000732421875
-0.0091552734375
-0.0040283203125
-0.0069580078125
-0.005126953125
0.0098876953125
0.0010986328125
0.0128173828125
-0.0003662109375
0.0084228515625
0.0076904296875
0.082061767578125
-0.0003662109375
0.01171875
-0.0091552734375
-0.090118408203125
-0.0003662109375
-0.025634765625
-0.0003662109375
-0.009521484375
-0.002197265625
-0.0069580078125
0.0003662109375
-0.0091552734375
0.00146484375
-0.01318359375
0.0032958984375
-0.01611328125
0.005126953125
-0.0135498046875
0.0040283203125
0.0018310546875
0.0
0.01904296875
-0.0040283203125
0.019775390625
-0.0025634765625
0.0047607421875
-0.0010986328125
-0.0032958984375
0.00439453125
-0.00439453125
0.0029296875
-0.0029296875
0.0003662109375
-0.000732421875
0.0025634765625
-0.003662109375
0.0040283203125
-0.0010986328125
0.00146484375
0.0018310546875
0.0
-0.00146484375
0.00439453125
-0.0142822265625
-0.0025634765625
-0.008056640625
-0.0029296875
0.0054931640625
0.0087890625
0.005859375
0.0069580078125
0.0054931640625
0.0142822265625
0.0699462890625
-0.0025634765625
0.0194091796875
-0.00732421875
-0.085693359375
0.01025390625
-0.0391845703125
0.002197265625
-0.0062255859375
0.0025634765625
-0.0069580078125
0.0025634765625
-0.0076904296875
0.0003662109375
-0.008056640625
0.0040283203125
-0.0157470703125
0.006591796875
-0.013916015625
0.003662109375
0.0029296875
-0.002197265625
0.022705078125
-0.006591796875
0.02490234375
-0.0029296875
0.0069580078125
0.000732421875
-0.00146484375
0.0018310546875
-0.0003662109375
0.002197265625
-0.0003662109375
-0.000732421875
0.00146484375
-0.0018310546875
0.00146484375
-0.0025634765625
0.0018310546875
-0.0010986328125
0.0018310546875
0.00146484375
0.0
0.0029296875
-0.0084228515625
-0.005126953125
-0.0040283203125
-0.005859375
0.0076904296875
0.0069580078125
0.0106201171875
0.003662109375
0.009521484375
0.01171875
0.0633544921875
-0.0076904296875
0.02783203125
-0.0106201171875
-0.068115234375
0.0087890625
-0.0179443359375
-0.0025634765625
0.046875
-0.000732421875
0.060791015625
-0.0003662109375
0.0596923828125
-0.0018310546875
0.049835205078125
0.0029296875
0.028594970703125
0.0069580078125
0.0413818359375
0.0032958984375
0.06591796875
-0.00439453125
0.07763671875
-0.0087890625
0.0765380859375
-0.0040283203125
0.0509033203125
-0.0003662109375
0.04833984375
-0.0003662109375
0.0545654296875
0.0010986328125
0.0479736328125
-0.0010986328125
0.04248046875
-0.00146484375
0.038116455078125
-0.0018310546875
0.032623291015625
-0.00146484375
0.0267333984375
-0.0003662109375
0.0238037109375
-0.00146484375
0.0208740234375
0.0010986328125
0.0069580078125
-0.0040283203125
0.0076904296875
-0.0054931640625
0.0322265625
0.00439453125
0.0428466796875
0.0032958984375
0.03369140625
0.009521484375
0.0926513671875
-0.00439453125
0.0322265625
-0.01171875
-0.069580078125
0.0032958984375
-0.0216064453125
0.0
0.002197265625
0.0
0.0
-0.000732421875
-0.00146484375
0.000732421875
0.0010986328125
0.00146484375
-0.0029296875
0.002197265625
-0.0076904296875
0.0047607421875
0.00146484375
-0.002197265625
0.0216064453125
-0.0087890625
0.0238037109375
-0.00146484375
0.002197265625
0.0010986328125
-0.0087890625
0.0
-0.0054931640625
0.0003662109375
-0.0032958984375
0.0003662109375
-0.003662109375
0.0010986328125
-0.00439453125
-0.0003662109375
-0.0062255859375
0.0
-0.0098876953125
-0.002197265625
-0.01171875
0.0003662109375
-0.0087890625
-0.0010986328125
-0.0018310546875
-0.002197265625
0.013916015625
0.0069580078125
0.0172119140625
0.0047607421875
0.006591796875
0.0120849609375
0.0252685546875
-0.015380859375
0.073974609375
-0.010986328125
-0.0421142578125
0.017578125
-0.1043701171875
0.0025634765625
-0.019775390625
0.0018310546875
-0.010986328125
0.00146484375
-0.0076904296875
0.0032958984375
-0.016845703125
0.003662109375
-0.024169921875
0.00732421875
-0.0223388671875
0.005126953125
-0.005126953125
-0.0010986328125
0.0150146484375
-0.0040283203125
0.0150146484375
-0.003662109375
0.00146484375
-0.0003662109375
-0.0029296875
0.0010986328125
-0.002197265625
0.0032958984375
0.005859375
0.0018310546875
0.005126953125
-0.000732421875
-0.0120849609375
-0.0010986328125
-0.016845703125
-0.0018310546875
-0.0172119140625
-0.00146484375
-0.018310546875
0.0003662109375
-0.0238037109375
-0.003662109375
-0.034454345703125
-0.0047607421875
-0.020172119140625
0.005126953125
-0.01025390625
0.0040283203125
-0.017578125
0.0120849609375
-0.01171875
-0.0179443359375
0.068878173828125
-0.012451171875
-0.035888671875
0.01611328125
-0.125274658203125
-0.002197265625
-0.0289306640625
-0.0010986328125
-0.0281982421875
-0.0025634765625
-0.0289306640625
-0.002197265625
-0.03076171875
0.000732421875
-0.041015625
0.005859375
-0.04541015625
0.00146484375
-0.03076171875
-0.005126953125
-0.005126953125
-0.005859375
0.0032958984375
-0.0040283203125
-0.008056640625
-0.0032958984375
-0.016845703125
-0.000732421875
-0.019775390625
0.003662109375
-0.0205078125
-0.0003662109375
-0.016845703125
-0.002197265625
-0.01318359375
-0.0029296875
-0.012451171875
-0.0040283203125
-0.012451171875
-0.0010986328125
-0.015380859375
-0.0018310546875
-0.01611328125
-0.0010986328125
-0.0146484375
0.002197265625
-0.028961181640625
-0.0029296875
-0.019805908203125
-0.0029296875
-0.003662109375
0.0018310546875
-0.0029296875
0.0029296875
-0.01171875
0.0047607421875
0.076202392578125
-0.0003662109375
0.0
-0.0025634765625
-0.109161376953125
0.0
-0.027099609375
-0.00146484375
-0.0164794921875
-0.00146484375
-0.016845703125
0.00146484375
-0.018310546875
0.0029296875
-0.0194091796875
0.0029296875
-0.02197265625
0.002197265625
-0.01904296875
0.000732421875
-0.003662109375
-0.005859375
0.0135498046875
-0.00732421875
0.0120849609375
-0.0032958984375
-0.0029296875
-0.0010986328125
-0.009521484375
0.0018310546875
-0.0113525390625
0.00146484375
-0.008056640625
0.0
-0.005859375
-0.0025634765625
-0.0047607421875
-0.000732421875
-0.0047607421875
0.0
-0.00439453125
-0.0010986328125
-0.0010986328125
0.0010986328125
-0.01025390625
-0.0032958984375
-0.0128173828125
-0.005126953125
0.0010986328125
0.005126953125
0.01025390625
0.0069580078125
0.0047607421875
0.0113525390625
0.03369140625
-0.015380859375
0.05859375
-0.012451171875
-0.0439453125
0.0172119140625
-0.073974609375
0.005126953125
-0.012451171875
0.0010986328125
-0.0087890625
-0.0003662109375
-0.0069580078125
0.003662109375
-0.012451171875
0.0047607421875
-0.0157470703125
0.005126953125
-0.0164794921875
0.0047607421875
-0.00439453125
-0.002197265625
0.021240234375
-0.005126953125
0.0263671875
-0.003662109375
0.006591796875
-0.000732421875
-0.005126953125
0.0032958984375
-0.0040283203125
0.0010986328125
0.000732421875
-0.0003662109375
0.0018310546875
-0.0003662109375
-0.000732421875
-0.0025634765625
-0.0003662109375
-0.00146484375
0.0
-0.0010986328125
0.0010986328125
-0.000732421875
0.0003662109375
-0.0010986328125
-0.0146484375
-0.005126953125
-0.0018310546875
0.0010986328125
0.01318359375
0.00439453125
0.008056640625
0.0069580078125
-0.0172119140625
-0.0003662109375
0.0875244140625
-0.0076904296875
0.0238037109375
-0.0010986328125
-0.094482421875
-0.000732421875
-0.0087890625
-0.0025634765625
-0.002197265625
-0.00439453125
-0.0029296875
0.0003662109375
-0.0091552734375
0.003662109375
-0.0113525390625
0.005126953125
-0.01171875
0.003662109375
-0.0010986328125
0.0003662109375
0.017578125
-0.003662109375
0.0252685546875
-0.0032958984375
0.016845703125
0.0
0.0032958984375
0.0025634765625
-0.002197265625
0.0003662109375
0.0018310546875
-0.002197265625
0.003662109375
0.0010986328125
0.0003662109375
0.0003662109375
0.0
-0.000732421875
-0.0029296875
-0.000732421875
-0.00439453125
-0.0003662109375
-0.0040283203125
0.0018310546875
-0.006591796875
-0.002197265625
-0.010986328125
-0.0054931640625
0.0018310546875
0.0029296875
0.0091552734375
0.002197265625
0.0003662109375
0.009521484375
0.016845703125
-0.01611328125
0.078369140625
-0.01025390625
-0.029296875
0.017578125
-0.0955810546875
-0.0003662109375
-0.010986328125
-0.0032958984375
-0.008056640625
-0.0040283203125
-0.00732421875
-0.0018310546875
-0.0113525390625
-0.0003662109375
-0.01318359375
0.0010986328125
-0.01171875
0.0018310546875
-0.00146484375
-0.003662109375
0.02197265625
-0.005859375
0.0322265625
-0.00146484375
0.017578125
-0.0003662109375
0.0047607421875
-0.0003662109375
0.0003662109375
0.0003662109375
0.0025634765625
0.002197265625
0.0047607421875
-0.00146484375
0.00732421875
0.00146484375
0.0025634765625
0.000732421875
0.0
-0.0029296875
0.005126953125
-0.00146484375
0.00732421875
-0.0010986328125
-0.008056640625
-0.0047607421875
0.0029296875
-0.009521484375
0.0157470703125
-0.008056640625
0.0040283203125
0.0091552734375
-0.0289306640625
-0.0047607421875
0.0933837890625
-0.0164794921875
0.0274658203125
0.0010986328125
-0.103271484375
-0.0010986328125
-0.005859375
-0.002197265625
-0.00146484375
-0.000732421875
-0.0010986328125
0.0
-0.002197265625
0.00146484375
-0.005859375
0.002197265625
-0.0084228515625
0.003662109375
-0.0029296875
0.003662109375
0.0142822265625
-0.005859375
0.0311279296875
-0.0084228515625
0.0260009765625
0.0
0.005126953125
0.00146484375
-0.0003662109375
-0.0010986328125
0.00439453125
0.00146484375
0.0062255859375
0.0010986328125
0.005859375
-0.0003662109375
0.005126953125
-0.0010986328125
0.0087890625
0.000732421875
0.0069580078125
0.00439453125
0.0032958984375
0.0025634765625
0.002197265625
0.0047607421875
-0.012451171875
-0.00439453125
-0.00146484375
-0.00732421875
0.0201416015625
0.0025634765625
0.0172119140625
0.0032958984375
0.005859375
0.00732421875
0.091583251953125
0.000732421875
0.012451171875
-0.00439453125
-0.098175048828125
-0.0029296875
-0.018310546875
-0.0040283203125
-0.0032958984375
-0.003662109375
-0.0040283203125
-0.00439453125
-0.0040283203125
0.0003662109375
-0.0076904296875
0.0054931640625
-0.0157470703125
0.0018310546875
-0.008056640625
-0.000732421875
0.006591796875
-0.0062255859375
0.0252685546875
-0.01171875
0.0267333984375
-0.00439453125
0.0062255859375
0.005859375
-0.006591796875
0.0062255859375
-0.0087890625
0.00146484375
-0.0025634765625
0.00146484375
0.00439453125
0.003662109375
0.005859375
0.0025634765625
0.003662109375
0.0018310546875
-0.000732421875
0.0025634765625
-0.005126953125
0.0054931640625
-0.018310546875
0.000732421875
-0.0142822265625
-0.000732421875
0.0003662109375
0.0069580078125
0.0047607421875
0.0040283203125
0.00439453125
0.0142822265625
0.064453125
-0.0010986328125
0.0186767578125
-0.005126953125
-0.08642578125
0.008056640625
-0.041748046875
-0.00146484375
-0.00439453125
0.0
-0.0047607421875
0.0
-0.0054931640625
0.0040283203125
-0.0113525390625
0.005126953125
-0.0172119140625
0.0040283203125
-0.015380859375
0.00146484375
-0.000732421875
-0.0018310546875
0.021240234375
-0.005126953125
0.024169921875
-0.0062255859375
0.0084228515625
-0.000732421875
-0.0018310546875
-0.0010986328125
-0.0032958984375
-0.002197265625
0.0
-0.0029296875
0.003662109375
-0.0025634765625
0.0047607421875
-0.00146484375
0.0029296875
-0.006591796875
0.0047607421875
-0.0062255859375
0.00732421875
-0.00146484375
-0.005126953125
-0.0076904296875
-0.000732421875
-0.0087890625
0.0120849609375
0.000732421875
0.015380859375
-0.0018310546875
0.0150146484375
0.0076904296875
0.0670166015625
-0.0113525390625
0.0355224609375
-0.0157470703125
-0.06591796875
0.0054931640625
-0.041748046875
-0.0040283203125
-0.0010986328125
-0.0025634765625
-0.000732421875
-0.00146484375
-0.0029296875
-0.0018310546875
-0.0025634765625
0.0029296875
-0.009521484375
0.0032958984375
-0.008056640625
0.0
0.005859375
-0.0040283203125
0.0234375
-0.005859375
0.0281982421875
-0.0054931640625
0.013916015625
-0.0047607421875
0.0025634765625
0.000732421875
0.0032958984375
0.0047607421875
0.0120849609375
0.0029296875
0.0135498046875
0.0
0.006591796875
0.0003662109375
0.0003662109375
0.000732421875
0.0
0.000732421875
0.0
0.0
-0.0025634765625
0.006591796875
-0.0223388671875
0.0032958984375
-0.009521484375
0.0040283203125
0.0087890625
0.012451171875
-0.003662109375
0.0205078125
-0.03369140625
0.0054931640625
0.088653564453125
-0.003662109375
0.01171875
0.010986328125
-0.121246337890625
0.002197265625
-0.018310546875
0.0
-0.010986328125
0.0054931640625
-0.01025390625
0.008056640625
-0.01611328125
0.0113525390625
-0.0205078125
0.0157470703125
-0.02490234375
0.01904296875
-0.01904296875
0.016845703125
0.0025634765625
0.0135498046875
0.015380859375
0.0084228515625
0.00732421875
0.005126953125
-0.0062255859375
0.009521484375
-0.0098876953125
0.0084228515625
-0.0062255859375
0.0032958984375
-0.0003662109375
0.0040283203125
-0.000732421875
0.003662109375
-0.0018310546875
-0.0003662109375
0.0018310546875
0.00146484375
0.0
0.0
-0.002197265625
-0.0040283203125
-0.0128173828125
-0.000732421875
0.0
0.005126953125
0.017578125
0.005859375
0.00732421875
0.0164794921875
-0.0146484375
-0.0142822265625
0.1014404296875
-0.02197265625
0.0146484375
0.0054931640625
-0.1094970703125
-0.003662109375
-0.008056640625
-0.003662109375
-0.0047607421875
-0.0047607421875
-0.0032958984375
-0.005126953125
-0.00439453125
-0.0047607421875
-0.0062255859375
-0.002197265625
-0.008056640625
0.0
-0.0029296875
-0.006591796875
0.021240234375
-0.0087890625
0.031494140625
-0.008056640625
0.019775390625
-0.0054931640625
0.0062255859375
0.0025634765625
-0.00146484375
0.002197265625
0.002197265625
0.0
0.0054931640625
0.0003662109375
0.0040283203125
0.00146484375
0.0032958984375
0.000732421875
0.0040283203125
-0.0029296875
0.00439453125
-0.0010986328125
0.0010986328125
-0.0010986328125
0.000732421875
0.0010986328125
-0.0106201171875
-0.0029296875
-0.0069580078125
-0.0054931640625
0.0098876953125
0.002197265625
0.01171875
0.0018310546875
0.0054931640625
0.005126953125
0.0853271484375
-0.00146484375
0.0062255859375
-0.0047607421875
-0.0985107421875
0.002197265625
-0.0245361328125
-0.0003662109375
-0.01025390625
-0.000732421875
-0.00732421875
0.0003662109375
-0.0087890625
0.0003662109375
-0.0113525390625
0.0054931640625
-0.0146484375
0.0069580078125
-0.01171875
0.002197265625
0.0003662109375
-0.0040283203125
0.018310546875
-0.0076904296875
0.021240234375
-0.002197265625
0.005859375
0.0032958984375
-0.0029296875
0.0047607421875
-0.0029296875
0.0054931640625
-0.0029296875
0.0032958984375
-0.000732421875
0.002197265625
-0.0010986328125
0.000732421875
-0.002197265625
-0.0003662109375
0.00146484375
0.000732421875
-0.0003662109375
-0.0003662109375
-0.01025390625
-0.008056640625
-0.0025634765625
-0.0054931640625
0.00439453125
0.0062255859375
0.00439453125
0.0054931640625
0.00439453125
0.01171875
0.0633544921875
-0.009521484375
0.0322265625
-0.01025390625
-0.07470703125
0.0106201171875
-0.046142578125
0.00146484375
-0.0087890625
0.000732421875
-0.0076904296875
0.0047607421875
-0.01025390625
0.008056640625
-0.0135498046875
0.00439453125
-0.0142822265625
0.00439453125
-0.0128173828125
0.0032958984375
0.000732421875
-0.0029296875
0.0234375
-0.008056640625
0.0267333984375
-0.006591796875
0.0098876953125
0.0010986328125
0.0025634765625
0.0029296875
0.00439453125
0.0
0.0135498046875
-0.002197265625
0.0150146484375
0.0
0.0084228515625
0.0003662109375
0.0091552734375
0.0003662109375
0.0069580078125
0.0018310546875
0.002197265625
0.000732421875
-0.0003662109375
0.000732421875
-0.01171875
-0.0032958984375
0.0054931640625
0.000732421875
0.0205078125
0.0032958984375
0.0084228515625
0.012451171875
0.00732421875
-0.0172119140625
0.1007080078125
-0.015380859375
-0.0054931640625
0.0164794921875
-0.1083984375
-0.0003662109375
-0.00732421875
-0.0010986328125
-0.003662109375
0.0003662109375
-0.0040283203125
0.0003662109375
-0.005859375
0.0010986328125
-0.0087890625
0.0047607421875
-0.0128173828125
0.005859375
-0.0047607421875
-0.0029296875
0.0172119140625
-0.0091552734375
0.028564453125
-0.00732421875
0.0157470703125
-0.00146484375
0.0018310546875
0.0003662109375
-0.0010986328125
-0.00146484375
0.0003662109375
-0.0003662109375
0.00146484375
0.0
0.0003662109375
-0.00146484375
0.0029296875
-0.002197265625
0.0018310546875
0.0
-0.00146484375
0.0
-0.0003662109375
-0.000732421875
0.002197265625
0.000732421875
-0.0157470703125
-0.00439453125
-0.0040283203125
-0.002197265625
0.0164794921875
0.0040283203125
0.0062255859375
0.0076904296875
-0.02197265625
-0.005859375
0.0911865234375
-0.0084228515625
0.0234375
0.0040283203125
-0.1025390625
-0.0003662109375
-0.0120849609375
-0.0010986328125
-0.0032958984375
-0.0003662109375
-0.0040283203125
0.0025634765625
-0.0084228515625
0.005126953125
-0.010986328125
0.0062255859375
-0.015380859375
0.003662109375
-0.009521484375
0.000732421875
0.00732421875
-0.005126953125
0.021240234375
-0.006591796875
0.01904296875
-0.00439453125
0.0032958984375
-0.0010986328125
-0.005126953125
0.002197265625
-0.0040283203125
-0.0018310546875
-0.0003662109375
0.0
0.0
-0.0003662109375
-0.0003662109375
-0.0025634765625
0.000732421875
-0.00146484375
0.0003662109375
0.0003662109375
-0.0025634765625
0.00439453125
-0.0179443359375
-0.0029296875
-0.0098876953125
-0.003662109375
0.0062255859375
0.0032958984375
0.005859375
0.002197265625
0.0054931640625
0.0069580078125
0.087890625
-0.0010986328125
0.005859375
-0.002197265625
-0.10546875
0.005859375
-0.029296875
0.000732421875
-0.0087890625
0.000732421875
-0.008056640625
0.0040283203125
-0.009521484375
0.0062255859375
-0.010986328125
0.0047607421875
-0.013916015625
0.00732421875
-0.0135498046875
0.006591796875
0.0010986328125
-0.0018310546875
0.02197265625
-0.006591796875
0.0234375
-0.0025634765625
0.0087890625
0.0
-0.0003662109375
0.0003662109375
-0.0003662109375
0.0010986328125
0.000732421875
-0.0003662109375
0.000732421875
-0.000732421875
0.0003662109375
-0.000732421875
0.00146484375
0.0
0.002197265625
0.0003662109375
-0.00146484375
0.00439453125
-0.0186767578125
-0.0018310546875
-0.0032958984375
-0.000732421875
0.015380859375
0.0032958984375
0.0062255859375
0.005126953125
-0.0142822265625
0.003662109375
0.0948486328125
-0.0032958984375
0.0135498046875
-0.0029296875
-0.10986328125
-0.002197265625
-0.0128173828125
0.00146484375
-0.0054931640625
-0.000732421875
-0.0054931640625
0.0010986328125
-0.005126953125
0.0047607421875
-0.0098876953125
0.00439453125
-0.0157470703125
0.0040283203125
-0.0076904296875
0.000732421875
0.012451171875
-0.00439453125
0.027099609375
-0.005126953125
0.0201416015625
0.0003662109375
0.0029296875
0.0018310546875
-0.0029296875
0.0003662109375
-0.000732421875
0.0
0.002197265625
-0.000732421875
0.0018310546875
-0.0029296875
0.0032958984375
-0.00146484375
0.0025634765625
-0.0003662109375
0.0010986328125
-0.00146484375
0.0018310546875
0.0003662109375
-0.0040283203125
-0.00439453125
-0.009521484375
-0.0047607421875
0.0054931640625
0.003662109375
0.0150146484375
0.000732421875
0.0084228515625
0.010986328125
0.022705078125
-0.0157470703125
0.0765380859375
-0.0157470703125
-0.0205078125
0.0120849609375
-0.0845947265625
-0.00439453125
-0.005859375
-0.00146484375
-0.0040283203125
-0.0003662109375
-0.0076904296875
0.0003662109375
-0.0087890625
0.002197265625
-0.0113525390625
0.0010986328125
-0.0106201171875
-0.0003662109375
-0.00146484375
-0.0029296875
0.0179443359375
-0.0098876953125
0.0303955078125
-0.009521484375
0.018310546875
-0.0010986328125
0.0025634765625
0.0
-0.0003662109375
-0.0010986328125
0.000732421875
-0.002197265625
0.00439453125
-0.00146484375
0.005859375
-0.0029296875
0.0054931640625
-0.00146484375
0.0032958984375
0.0029296875
0.0
-0.00146484375
0.00146484375
-0.0025634765625
-0.00146484375
-0.00439453125
-0.008056640625
-0.005859375
0.00439453125
0.0025634765625
0.01171875
0.0018310546875
0.003662109375
0.008056640625
0.01904296875
-0.01318359375
0.076904296875
-0.01171875
-0.0234375
0.0113525390625
-0.0889892578125
-0.0003662109375
-0.0087890625
-0.0010986328125
-0.0047607421875
0.0
-0.0040283203125
0.002197265625
-0.0087890625
0.003662109375
-0.01611328125
0.0047607421875
-0.0142822265625
0.005126953125
-0.0029296875
0.000732421875
0.0146484375
-0.005859375
0.024169921875
-0.0047607421875
0.01171875
-0.0029296875
-0.0003662109375
-0.0010986328125
-0.0010986328125
0.0010986328125
-0.000732421875
-0.0010986328125
0.00146484375
0.0
0.00146484375
0.000732421875
0.0018310546875
-0.0003662109375
0.0003662109375
0.000732421875
-0.0018310546875
0.00146484375
-0.0054931640625
0.0003662109375
-0.0186767578125
-0.00439453125
0.0025634765625
0.00146484375
0.015380859375
0.0076904296875
0.0
0.017578125
-0.01904296875
-0.009521484375
0.100341796875
-0.013916015625
0.0128173828125
0.01171875
-0.1153564453125
0.0025634765625
-0.01025390625
0.0018310546875
-0.003662109375
0.0003662109375
-0.0040283203125
0.002197265625
-0.006591796875
0.0047607421875
-0.0106201171875
0.0047607421875
-0.013916015625
0.0062255859375
-0.006591796875
0.0040283203125
0.012451171875
-0.0040283203125
0.027099609375
-0.0029296875
0.018310546875
0.000732421875
0.0018310546875
0.0010986328125
-0.0025634765625
0.0047607421875
-0.000732421875
0.0018310546875
0.0032958984375
0.0
0.0025634765625
0.0
-0.0003662109375
-0.0018310546875
0.0
0.0003662109375
0.0
0.0
-0.003662109375
-0.0003662109375
-0.01171875
-0.0040283203125
0.00439453125
0.0029296875
0.013916015625
0.00732421875
0.0032958984375
0.013916015625
0.01904296875
-0.0205078125
0.0897216796875
-0.012451171875
-0.0234375
0.021240234375
-0.1014404296875
0.000732421875
-0.0091552734375
0.0010986328125
-0.00732421875
-0.0010986328125
-0.0047607421875
0.0010986328125
-0.0062255859375
0.0025634765625
-0.01025390625
0.005859375
-0.0146484375
0.0062255859375
-0.0054931640625
-0.002197265625
0.0194091796875
-0.0047607421875
0.0267333984375
-0.005126953125
0.0135498046875
-0.002197265625
0.0
0.0029296875
-0.0018310546875
0.0018310546875
0.0003662109375
-0.0003662109375
0.0010986328125
-0.0010986328125
0.00146484375
-0.0003662109375
0.0025634765625
-0.0003662109375
0.0029296875
0.0010986328125
0.0
0.0003662109375
0.000732421875
0.000732421875
-0.0135498046875
-0.0029296875
-0.0047607421875
-0.0029296875
0.016845703125
0.003662109375
0.010986328125
0.0029296875
-0.005859375
0.002197265625
0.08642578125
-0.00146484375
0.0135498046875
-0.0032958984375
-0.094482421875
-0.002197265625
-0.012451171875
-0.0025634765625
-0.002197265625
-0.0032958984375
-0.0029296875
-0.0018310546875
-0.005859375
0.0003662109375
-0.0069580078125
0.000732421875
-0.0098876953125
0.0040283203125
-0.00732421875
-0.0010986328125
0.0098876953125
-0.0098876953125
0.0281982421875
-0.0084228515625
0.02490234375
-0.005126953125
0.0076904296875
-0.0010986328125
-0.0003662109375
0.0
0.0
-0.0029296875
0.0047607421875
-0.0047607421875
0.0069580078125
-0.003662109375
0.00439453125
-0.0010986328125
0.0025634765625
-0.002197265625
0.00146484375
-0.002197265625
0.0
-0.000732421875
-0.0010986328125
-0.002197265625
-0.0128173828125
-0.00439453125
-0.0003662109375
0.002197265625
0.01318359375
0.00439453125
0.005859375
0.0120849609375
-0.0172119140625
-0.015380859375
0.10107421875
-0.0135498046875
0.0172119140625
0.0150146484375
-0.111328125
-0.0018310546875
-0.0106201171875
-0.0025634765625
-0.005126953125
-0.0003662109375
-0.005859375
-0.00146484375
-0.0091552734375
-0.000732421875
-0.01171875
0.00439453125
-0.0150146484375
0.0040283203125
-0.005126953125
-0.0025634765625
0.0146484375
-0.0062255859375
0.025634765625
-0.0054931640625
0.0164794921875
0.0
0.0018310546875
0.000732421875
-0.0025634765625
0.0003662109375
-0.0003662109375
-0.000732421875
0.0025634765625
-0.00146484375
0.0018310546875
0.002197265625
-0.0025634765625
0.0010986328125
-0.0029296875
0.000732421875
-0.000732421875
0.0010986328125
-0.0047607421875
-0.002197265625
-0.01318359375
-0.0025634765625
0.00439453125
0.0054931640625
0.01611328125
0.006591796875
0.0029296875
0.0135498046875
0.0146484375
-0.015380859375
0.090087890625
-0.012451171875
-0.02197265625
0.015380859375
-0.1025390625
0.000732421875
-0.008056640625
0.000732421875
-0.006591796875
0.0
-0.0076904296875
0.0029296875
-0.0098876953125
0.003662109375
-0.0128173828125
0.0040283203125
-0.0135498046875
0.0054931640625
-0.0054931640625
-0.0010986328125
0.01611328125
-0.0069580078125
0.0281982421875
-0.003662109375
0.013916015625
0.0003662109375
-0.00146484375
-0.0010986328125
-0.0018310546875
-0.0010986328125
0.000732421875
-0.0010986328125
0.0018310546875
-0.00146484375
0.0025634765625
-0.000732421875
0.0
-0.0018310546875
0.0003662109375
-0.0029296875
0.005126953125
0.0003662109375
-0.01025390625
-0.00439453125
-0.00732421875
-0.0069580078125
0.010986328125
0.003662109375
0.01025390625
0.0054931640625
0.005859375
0.0087890625
0.0703125
-0.01025390625
0.025634765625
-0.0113525390625
-0.0758056640625
0.005859375
-0.0333251953125
-0.0018310546875
-0.005126953125
-0.00146484375
-0.0047607421875
0.0010986328125
-0.0076904296875
0.00146484375
-0.01171875
0.0018310546875
-0.01171875
0.0047607421875
-0.0113525390625
0.0003662109375
0.005859375
-0.008056640625
0.0289306640625
-0.0098876953125
0.027099609375
-0.0069580078125
0.01025390625
-0.002197265625
0.00146484375
-0.0029296875
0.0032958984375
-0.0010986328125
0.002197265625
0.00146484375
0.0018310546875
-0.0010986328125
0.0025634765625
-0.00439453125
0.005126953125
-0.003662109375
0.00439453125
0.0003662109375
0.000732421875
0.0029296875
-0.0076904296875
-0.005859375
-0.005126953125
-0.00732421875
0.0062255859375
0.0054931640625
0.0091552734375
0.0029296875
0.0084228515625
0.0098876953125
0.0531005859375
-0.01025390625
0.03662109375
-0.0106201171875
-0.062255859375
0.0128173828125
-0.052001953125
0.00146484375
-0.006591796875
-0.0010986328125
-0.0054931640625
0.000732421875
-0.0076904296875
0.003662109375
-0.010986328125
0.00732421875
-0.0172119140625
0.0069580078125
-0.01611328125
0.0003662109375
0.0018310546875
-0.00146484375
0.019775390625
-0.0029296875
0.024169921875
-0.0018310546875
0.0120849609375
0.00146484375
-0.0010986328125
0.00439453125
-0.003662109375
0.00146484375
0.00146484375
-0.0029296875
0.003662109375
0.0003662109375
0.000732421875
0.00146484375
-0.00146484375
0.000732421875
-0.000732421875
0.0
0.0032958984375
0.003662109375
-0.0157470703125
-0.0010986328125
-0.0025634765625
0.0018310546875
0.017578125
0.0054931640625
0.0087890625
0.0040283203125
-0.0069580078125
0.0047607421875
0.0948486328125
-0.0010986328125
0.01025390625
-0.0003662109375
-0.1102294921875
-0.0010986328125
-0.0164794921875
0.000732421875
-0.01025390625
0.0018310546875
-0.0098876953125
0.00146484375
-0.0087890625
0.0032958984375
-0.010986328125
0.005859375
-0.015380859375
0.0076904296875
-0.010986328125
0.002197265625
0.009521484375
-0.006591796875
0.0289306640625
-0.005126953125
0.021240234375
-0.000732421875
0.0029296875
0.000732421875
-0.002197265625
0.0076904296875
-0.0047607421875
0.00439453125
-0.002197265625
-0.00146484375
0.0010986328125
0.000732421875
-0.0003662109375
0.000732421875
-0.000732421875
0.00146484375
-0.0003662109375
0.00146484375
-0.0047607421875
-0.000732421875
-0.01904296875
-0.000732421875
0.0
0.005859375
0.01611328125
0.0047607421875
0.002197265625
0.012451171875
-0.0245361328125
-0.0062255859375
0.1036376953125
-0.0128173828125
0.019775390625
0.005126953125
-0.1142578125
-0.0018310546875
-0.0084228515625
-0.002197265625
-0.0062255859375
-0.002197265625
-0.005859375
-0.000732421875
-0.00439453125
0.0003662109375
-0.009521484375
0.003662109375
-0.0142822265625
0.003662109375
-0.005126953125
-0.0040283203125
0.017578125
-0.0098876953125
0.03369140625
-0.009521484375
0.02197265625
-0.0054931640625
0.0047607421875
-0.0003662109375
0.0
-0.00146484375
0.00439453125
-0.0025634765625
0.0047607421875
-0.00146484375
0.0025634765625
-0.0010986328125
0.003662109375
-0.0032958984375
0.0029296875
-0.0029296875
0.0029296875
-0.000732421875
0.002197265625
0.0003662109375
-0.0003662109375
0.002197265625
-0.0142822265625
-0.005126953125
0.000732421875
-0.00146484375
0.013916015625
0.003662109375
0.0054931640625
0.01025390625
-0.02197265625
-0.0029296875
0.0926513671875
-0.0084228515625
0.02490234375
0.0054931640625
-0.101806640625
0.0010986328125
-0.0091552734375
-0.0010986328125
-0.0029296875
0.0003662109375
-0.003662109375
0.0029296875
-0.0062255859375
0.0025634765625
-0.0087890625
0.0054931640625
-0.012451171875
0.0040283203125
-0.00439453125
-0.0010986328125
0.013916015625
-0.0054931640625
0.0263671875
-0.0025634765625
0.018310546875
0.002197265625
0.00146484375
0.00146484375
-0.0025634765625
0.002197265625
0.0
0.000732421875
0.0025634765625
0.0
0.000732421875
0.003662109375
-0.0054931640625
0.00146484375
-0.0029296875
0.000732421875
0.0
0.0025634765625
-0.0029296875
0.0029296875
-0.0062255859375
-0.002197265625
-0.0087890625
-0.0025634765625
0.0010986328125
0.00732421875
0.0091552734375
0.0069580078125
0.0029296875
0.0113525390625
0.034423828125
-0.01025390625
0.052001953125
-0.00732421875
-0.04833984375
0.012451171875
-0.07177734375
0.0029296875
-0.0135498046875
0.00146484375
-0.01171875
0.00146484375
-0.0091552734375
0.003662109375
-0.0091552734375
0.0018310546875
-0.0135498046875
0.00439453125
-0.0157470703125
0.00439453125
-0.0054931640625
0.0003662109375
0.0172119140625
-0.0062255859375
0.0281982421875
-0.0047607421875
0.0157470703125
0.0
0.00146484375
0.002197265625
-0.0040283203125
0.0018310546875
-0.002197265625
-0.0003662109375
-0.0010986328125
0.0
-0.00146484375
0.0
0.00146484375
0.002197265625
0.00146484375
0.00146484375
-0.00146484375
-0.0003662109375
-0.005859375
-0.0025634765625
-0.01171875
-0.0025634765625
0.0029296875
0.0054931640625
0.01171875
0.003662109375
0.0062255859375
0.013916015625
0.019775390625
-0.018310546875
0.0882568359375
-0.0142822265625
-0.02490234375
0.017578125
-0.1029052734375
-0.0025634765625
-0.00732421875
0.0
-0.00732421875
0.0010986328125
-0.0069580078125
0.0018310546875
-0.0069580078125
0.00146484375
-0.01171875
0.003662109375
-0.0142822265625
0.0032958984375
-0.0029296875
-0.0032958984375
0.0205078125
-0.008056640625
0.029296875
-0.0076904296875
0.0172119140625
-0.003662109375
0.0029296875
-0.0029296875
0.0003662109375
0.0003662109375
0.000732421875
0.000732421875
0.0025634765625
-0.000732421875
0.003662109375
-0.002197265625
0.0025634765625
-0.0029296875
0.0025634765625
0.0
0.0010986328125
-0.00439453125
0.0040283203125
-0.0040283203125
0.00146484375
-0.002197265625
-0.01318359375
-0.005859375
0.003662109375
-0.000732421875
0.018310546875
0.0018310546875
0.0069580078125
0.0146484375
-0.01025390625
-0.0172119140625
0.10107421875
-0.01611328125
0.0098876953125
0.0146484375
-0.1083984375
-0.0025634765625
-0.0040283203125
-0.0025634765625
-0.00146484375
-0.003662109375
-0.00146484375
-0.0025634765625
-0.003662109375
-0.000732421875
-0.0069580078125
0.000732421875
-0.005126953125
0.0029296875
-0.0018310546875
-0.0025634765625
0.0172119140625
-0.0106201171875
0.034423828125
-0.0076904296875
0.0205078125
-0.0047607421875
0.0054931640625
0.0010986328125
0.000732421875
0.0040283203125
-0.0003662109375
0.0
0.0025634765625
-0.0003662109375
0.0029296875
-0.000732421875
0.0029296875
0.0010986328125
0.0018310546875
0.002197265625
0.000732421875
0.0025634765625
-0.0003662109375
0.002197265625
-0.00146484375
0.000732421875
-0.009521484375
-0.00439453125
-0.0062255859375
-0.0032958984375
0.005859375
0.005859375
0.009521484375
0.00439453125
0.0062255859375
0.009521484375
0.0648193359375
-0.005859375
0.0252685546875
-0.006591796875
-0.076171875
0.0091552734375
-0.041015625
0.002197265625
-0.0106201171875
0.0032958984375
-0.01025390625
0.003662109375
-0.01171875
0.003662109375
-0.01025390625
0.0025634765625
-0.01171875
0.0062255859375
-0.0157470703125
0.0069580078125
-0.00439453125
-0.00439453125
0.0208740234375
-0.005126953125
0.0260009765625
0.0018310546875
0.008056640625
0.000732421875
-0.002197265625
0.000732421875
-0.0025634765625
-0.0003662109375
0.00146484375
-0.00146484375
0.0029296875
0.0010986328125
0.0003662109375
0.000732421875
-0.0003662109375
0.0003662109375
0.0003662109375
0.00146484375
-0.002197265625
0.0010986328125
-0.0084228515625
-0.000732421875
-0.0135498046875
-0.0029296875
0.0025634765625
0.00439453125
0.0113525390625
0.00439453125
0.0040283203125
0.01171875
0.0216064453125
-0.01904296875
0.088623046875
-0.012451171875
-0.027099609375
0.01904296875
-0.101806640625
-0.0010986328125
-0.009521484375
-0.0003662109375
-0.006591796875
0.0018310546875
-0.00732421875
0.0029296875
-0.0091552734375
0.0032958984375
-0.0120849609375
0.005126953125
-0.0142822265625
0.003662109375
-0.005859375
-0.0029296875
0.018310546875
-0.0084228515625
0.0318603515625
-0.0062255859375
0.016845703125
-0.0010986328125
0.0025634765625
-0.0003662109375
0.0
-0.0003662109375
0.0010986328125
0.0003662109375
0.0003662109375
-0.00146484375
0.0003662109375
-0.000732421875
0.0018310546875
-0.0003662109375
0.0025634765625
0.0003662109375
0.000732421875
0.0010986328125
-0.000732421875
0.0025634765625
-0.013916015625
-0.002197265625
-0.0032958984375
-0.002197265625
0.012451171875
0.005126953125
0.005859375
0.0
0.0029296875
0.0032958984375
0.0966796875
-0.0003662109375
0.00732421875
-0.0062255859375
-0.10546875
-0.0010986328125
-0.016845703125
-0.0018310546875
-0.003662109375
-0.00146484375
-0.0054931640625
-0.003662109375
-0.003662109375
0.0
-0.006591796875
0.003662109375
-0.01318359375
0.00146484375
-0.00732421875
-0.00146484375
0.0091552734375
-0.00732421875
0.028564453125
-0.0106201171875
0.0274658203125
-0.0084228515625
0.012451171875
0.0003662109375
0.00146484375
0.0010986328125
0.0018310546875
-0.0040283203125
0.0087890625
-0.0018310546875
0.005126953125
0.000732421875
0.00146484375
-0.0025634765625
0.0040283203125
-0.0040283203125
0.0032958984375
-0.00146484375
0.0029296875
0.0018310546875
0.0003662109375
0.0025634765625
-0.01611328125
-0.0032958984375
-0.00146484375
-0.002197265625
0.016845703125
0.0025634765625
0.008056640625
0.01318359375
-0.0252685546875
-0.003662109375
0.091552734375
-0.0113525390625
0.0267333984375
0.0047607421875
-0.101806640625
-0.002197265625
-0.0087890625
-0.0010986328125
-0.00439453125
0.0010986328125
-0.00439453125
0.0010986328125
-0.0069580078125
0.0025634765625
-0.010986328125
0.0047607421875
-0.010986328125
0.005126953125
-0.005859375
0.00146484375
0.009521484375
-0.0029296875
0.02490234375
-0.006591796875
0.0205078125
-0.00146484375
0.0032958984375
0.00146484375
-0.0032958984375
-0.00146484375
-0.00146484375
0.000732421875
-0.0003662109375
0.000732421875
0.0032958984375
0.0003662109375
0.0018310546875
0.0010986328125
-0.0032958984375
0.0029296875
-0.0010986328125
0.0029296875
-0.0032958984375
0.002197265625
-0.0179443359375
-0.0003662109375
-0.0025634765625
0.0010986328125
0.0135498046875
0.002197265625
0.0032958984375
0.0128173828125
-0.0216064453125
-0.008056640625
0.0970458984375
-0.0106201171875
0.0142822265625
0.0128173828125
-0.1146240234375
0.0010986328125
-0.01318359375
0.0003662109375
-0.0062255859375
0.000732421875
-0.006591796875
0.00146484375
-0.0091552734375
0.0040283203125
-0.0128173828125
0.005126953125
-0.0142822265625
0.0047607421875
-0.0062255859375
0.0029296875
0.0091552734375
-0.0032958984375
0.0245361328125
-0.0062255859375
0.0179443359375
0.0003662109375
0.000732421875
0.0025634765625
-0.0029296875
-0.0010986328125
-0.0010986328125
0.0
0.0010986328125
0.0029296875
0.0003662109375
0.0003662109375
-0.0003662109375
-0.0018310546875
-0.000732421875
-0.0018310546875
-0.00146484375
-0.0003662109375
-0.006591796875
-0.0025634765625
-0.0106201171875
-0.0040283203125
0.00439453125
0.0025634765625
0.012451171875
0.0040283203125
0.005126953125
0.012451171875
0.025634765625
-0.017578125
0.0791015625
-0.0113525390625
-0.0340576171875
0.01611328125
-0.09228515625
-0.0003662109375
-0.0091552734375
0.0003662109375
-0.006591796875
-0.000732421875
-0.0047607421875
0.000732421875
-0.0091552734375
0.00439453125
-0.01318359375
0.0054931640625
-0.0135498046875
0.0029296875
-0.0032958984375
-0.0025634765625
0.019775390625
-0.0054931640625
0.0303955078125
-0.005126953125
0.015380859375
-0.0029296875
0.003662109375
0.00146484375
-0.0010986328125
0.0010986328125
0.0
-0.0003662109375
0.0032958984375
0.0
0.002197265625
-0.00146484375
0.003662109375
0.0
0.002197265625
-0.000732421875
0.00146484375
0.0
-0.01318359375
-0.003662109375
-0.000732421875
0.0
0.016845703125
0.0040283203125
0.0076904296875
0.00732421875
-0.0194091796875
0.000732421875
0.090087890625
-0.00732421875
0.0230712890625
0.0
-0.099609375
-0.0010986328125
-0.010986328125
-0.00146484375
-0.0054931640625
-0.0018310546875
-0.0047607421875
-0.0025634765625
-0.003662109375
-0.005859375
-0.003662109375
-0.00439453125
-0.0040283203125
-0.0010986328125
-0.0018310546875
-0.00439453125
0.0142822265625
-0.0098876953125
0.0347900390625
-0.009521484375
0.025634765625
-0.0047607421875
0.0047607421875
-0.002197265625
0.0025634765625
-0.0003662109375
0.005126953125
-0.0003662109375
0.00439453125
-0.0025634765625
0.003662109375
-0.0025634765625
0.0047607421875
-0.00146484375
0.0032958984375
-0.0003662109375
0.0010986328125
-0.0003662109375
0.00146484375
0.0018310546875
-0.0032958984375
-0.002197265625
-0.01171875
-0.00439453125
0.002197265625
0.0032958984375
0.0128173828125
0.005126953125
0.0054931640625
0.0106201171875
0.0201416015625
-0.0146484375
0.082763671875
-0.009521484375
-0.0263671875
0.0150146484375
-0.0985107421875
0.002197265625
-0.0091552734375
0.0025634765625
-0.008056640625
0.0
-0.0087890625
0.0010986328125
-0.00732421875
0.0047607421875
-0.0128173828125
0.0054931640625
-0.0150146484375
0.005126953125
-0.005859375
0.0010986328125
0.01171875
-0.005126953125
0.0230712890625
-0.0029296875
0.01171875
0.0018310546875
-0.0029296875
0.0
-0.0032958984375
0.0018310546875
-0.00146484375
0.0029296875
-0.00146484375
0.000732421875
-0.000732421875
0.00146484375
-0.002197265625
0.002197265625
-0.003662109375
0.000732421875
-0.0040283203125
0.000732421875
-0.0113525390625
-0.0025634765625
-0.0076904296875
-0.00146484375
0.0032958984375
0.0076904296875
0.00732421875
0.003662109375
0.0062255859375
0.012451171875
0.0556640625
-0.0098876953125
0.03369140625
-0.01171875
-0.066650390625
0.0113525390625
-0.0501708984375
-0.0010986328125
-0.0076904296875
-0.000732421875
-0.0040283203125
0.0003662109375
-0.005859375
0.003662109375
-0.0120849609375
0.00146484375
-0.01318359375
0.0032958984375
-0.01171875
0.0076904296875
-0.0003662109375
-0.000732421875
0.0252685546875
-0.0047607421875
0.027099609375
-0.002197265625
0.0091552734375
0.0
-0.0018310546875
0.00146484375
-0.0018310546875
0.0010986328125
0.0029296875
-0.0003662109375
0.0018310546875
-0.0010986328125
0.0018310546875
-0.0003662109375
0.0018310546875
-0.0010986328125
0.0003662109375
-0.0010986328125
-0.0040283203125
-0.00439453125
-0.0106201171875
-0.003662109375
0.0025634765625
0.005126953125
0.0113525390625
0.0040283203125
0.0047607421875
0.0120849609375
0.0172119140625
-0.0172119140625
0.0933837890625
-0.009521484375
-0.0234375
0.0194091796875
-0.1094970703125
-0.0010986328125
-0.009521484375
-0.000732421875
-0.0087890625
0.0018310546875
-0.0087890625
0.0025634765625
-0.008056640625
0.002197265625
-0.0128173828125
0.0062255859375
-0.017578125
0.0040283203125
-0.0076904296875
-0.0025634765625
0.0186767578125
-0.0069580078125
0.031494140625
-0.0040283203125
0.0164794921875
-0.0010986328125
0.000732421875
0.0032958984375
-0.00146484375
0.0029296875
0.000732421875
-0.000732421875
0.00439453125
0.0
0.0018310546875
-0.0003662109375
0.0
0.0
0.0040283203125
-0.00146484375
0.0029296875
-0.0029296875
-0.003662109375
-0.0029296875
-0.009521484375
-0.0025634765625
0.003662109375
0.0047607421875
0.0128173828125
0.00439453125
0.00439453125
0.01171875
0.0252685546875
-0.018310546875
0.0736083984375
-0.0120849609375
-0.0340576171875
0.018310546875
-0.087158203125
-0.0018310546875
-0.00732421875
-0.0010986328125
-0.005859375
0.0003662109375
-0.0054931640625
0.0025634765625
-0.0069580078125
0.0032958984375
-0.0120849609375
0.0054931640625
-0.01318359375
0.0025634765625
-0.00146484375
-0.0040283203125
0.0194091796875
-0.00732421875
0.030029296875
-0.005859375
0.0157470703125
-0.000732421875
0.0018310546875
0.00146484375
0.0
0.0
0.0010986328125
-0.0010986328125
0.003662109375
0.0018310546875
0.0010986328125
-0.0029296875
0.003662109375
-0.0040283203125
0.0029296875
0.000732421875
-0.0025634765625
0.0025634765625
-0.01611328125
-0.0018310546875
-0.0032958984375
-0.0010986328125
0.016845703125
0.0025634765625
0.0084228515625
0.0076904296875
-0.017578125
0.005126953125
0.090087890625
-0.008056640625
0.0208740234375
-0.00439453125
-0.0999755859375
-0.000732421875
-0.0128173828125
-0.000732421875
-0.006591796875
0.0003662109375
-0.0054931640625
0.0010986328125
-0.005126953125
0.00146484375
-0.0098876953125
0.0025634765625
-0.013916015625
0.0025634765625
-0.0040283203125
0.0128173828125
0.0252685546875
0.012451171875
0.022705078125
