-0.097412109375
-0.184234619140625
-0.0933837890625
-0.173248291015625
0.0128173828125
0.025634765625
0.0267333984375
0.0260009765625
0.049072265625
0.006591796875
0.0618896484375
-0.0135498046875
0.065185546875
-0.0128173828125
0.0391845703125
0.0003662109375
0.276153564453125
0.01318359375
0.294830322265625
0.01318359375
0.032958984375
-0.0003662109375
0.0
-0.0135498046875
0.0018310546875
-0.0186767578125
0.0142822265625
0.0087890625
0.0087890625
0.0205078125
0.0120849609375
0.003662109375
-0.0025634765625
0.007720947265625
0.0113525390625
-0.0970458984375
0.000732421875
-0.030792236328125
-0.0267333984375
0.100341796875
-0.0172119140625
0.022705078125
-0.0150146484375
0.024200439453125
-0.016845703125
0.039947509765625
-0.0289306640625
0.017578125
-0.0369873046875
0.0106201171875
-0.0362548828125
0.0128173828125
-0.0179443359375
0.0087890625
0.0146484375
-0.0142822265625
0.0216064453125
-0.0076904296875
-0.0084228515625
-0.0018310546875
-0.018310546875
-0.0164794921875
-0.0076904296875
-0.0098876953125
-0.006591796875
0.0018310546875
-0.008056640625
0.003662109375
-0.0252685546875
0.0018310546875
-0.0186767578125
-0.0010986328125
0.006591796875
0.002197265625
-0.0062255859375
-0.0054931640625
-0.01611328125
-0.039581298828125
0.0274658203125
-0.063018798828125
-0.054931640625
0.030792236328125
-0.124542236328125
0.063751220703125
-0.061553955078125
0.0
-0.06591796875
-0.013916015625
-0.1431884765625
-0.0179443359375
-0.1864013671875
-0.00732421875
-0.126007080078125
-0.012481689453125
-0.044708251953125
-0.011016845703125
0.023834228515625
-0.03076171875
0.038482666015625
-0.038818359375
0.025634765625
-0.0135498046875
0.00732421875
-0.0054931640625
-0.0098876953125
0.005859375
0.00732421875
0.0128173828125
0.018310546875
0.0087890625
0.016845703125
0.0069580078125
0.132568359375
-0.002197265625
0.335113525390625
0.0010986328125
0.240997314453125
0.024169921875
0.0677490234375
0.0230712890625
0.1153564453125
-0.1051025390625
0.0897216796875
-0.022705078125
0.005859375
0.163726806640625
-0.008056640625
0.078765869140625
0.0120849609375
0.0142822265625
0.02197265625
0.0120849609375
0.0128173828125
0.0029296875
0.0018310546875
0.0164794921875
-0.0281982421875
0.018310546875
-0.0303955078125
0.0098876953125
0.010986328125
-0.018310546875
0.015380859375
-0.0281982421875
-0.02197265625
-0.0128173828125
-0.03662109375
-0.0098876953125
-0.027099609375
0.00146484375
-0.0238037109375
-0.01025390625
-0.0142822265625
-0.01025390625
-0.024169921875
-0.003662109375
-0.0391845703125
-0.00439453125
-0.0260009765625
0.0076904296875
-0.01318359375
0.0098876953125
-0.0040283203125
0.0076904296875
-0.0087890625
0.0018310546875
0.0084228515625
-0.114288330078125
0.034423828125
-0.073272705078125
0.0201416015625
0.04833984375
0.009521484375
-0.003662109375
0.0098876953125
-0.0234375
0.0025634765625
-0.01025390625
-0.0018310546875
0.010986328125
-0.015380859375
0.032958984375
-0.03369140625
0.049102783203125
-0.0347900390625
0.041046142578125
-0.00146484375
0.0029296875
0.024169921875
-0.01171875
0.0186767578125
0.0029296875
-0.003662109375
0.0018310546875
0.0003662109375
-0.015380859375
0.0216064453125
-0.059722900390625
-0.1318359375
-0.065582275390625
-0.258575439453125
-0.024169921875
-0.154937744140625
-0.0128173828125
0.0025634765625
-0.03662109375
0.0421142578125
-0.029296875
0.059326171875
-0.01904296875
0.212799072265625
-0.10107421875
0.198150634765625
-0.0897216796875
-0.146881103515625
0.0750732421875
-0.167755126953125
0.078369140625
0.034454345703125
-0.0010986328125
0.012481689453125
-0.0003662109375
-0.0087890625
0.00732421875
-0.106231689453125
0.027099609375
-0.114654541015625
0.0538330078125
0.109893798828125
0.0618896484375
0.226715087890625
0.0245361328125
0.0545654296875
0.037384033203125
-0.156402587890625
0.138092041015625
-0.139923095703125
0.1376953125
-0.035888671875
0.05419921875
-0.0047607421875
0.0234375
0.01025390625
-0.00439453125
0.142486572265625
-0.13623046875
0.159332275390625
-0.158599853515625
0.02490234375
-0.042144775390625
-0.0091552734375
-0.0091552734375
-0.0172119140625
-0.000732421875
-0.0076904296875
-0.0084228515625
0.0706787109375
-0.1142578125
0.0150146484375
0.0018310546875
-0.062255859375
0.113525390625
-0.0238037109375
0.0135498046875
-0.0234375
0.009521484375
-0.01171875
0.0084228515625
-0.012451171875
0.013946533203125
-0.0186767578125
0.014678955078125
-0.0208740234375
0.018310546875
-0.01611328125
0.0029296875
0.0047607421875
-0.019775390625
0.00732421875
-0.016510009765625
0.012451171875
-0.005523681640625
0.0098876953125
0.004425048828125
-0.0142822265625
0.004791259765625
-0.009521484375
-0.004791259765625
0.0040283203125
-0.002960205078125
0.00732421875
-0.002197265625
-0.005859375
0.0
-0.00732421875
-0.002197265625
-0.00146484375
-0.00732421875
0.041015625
-0.100341796875
0.0384521484375
-0.019775390625
-0.016845703125
0.10400390625
-0.005126953125
0.013916015625
0.002197265625
-0.0087890625
-0.0091552734375
0.0084228515625
-0.0098876953125
0.0069580078125
-0.0205078125
0.009185791015625
-0.0289306640625
0.017242431640625
-0.010986328125
0.000732421875
-0.0025634765625
-0.027130126953125
-0.00146484375
-0.028594970703125
-0.030792236328125
-0.0238037109375
-0.099639892578125
-0.0142822265625
-0.216796875
-0.0040283203125
-0.1724853515625
-0.01318359375
-0.054962158203125
-0.018310546875
-0.051666259765625
-0.0120849609375
-0.0399169921875
0.0029296875
0.092315673828125
0.0084228515625
0.109161376953125
0.0084228515625
-0.0076904296875
0.005859375
0.038818359375
-0.0970458984375
0.0435791015625
-0.046875
-0.044677734375
0.1160888671875
-0.047607421875
0.0780029296875
0.0098876953125
0.027099609375
-0.183502197265625
0.027496337890625
-0.175445556640625
0.031890869140625
0.110595703125
0.0413818359375
0.198883056640625
0.049072265625
0.143951416015625
0.034423828125
0.0897216796875
-0.0135498046875
0.0823974609375
-0.025634765625
0.053466796875
-0.0010986328125
0.0391845703125
0.00439453125
0.035888671875
0.005859375
0.036285400390625
0.0010986328125
0.022735595703125
0.0010986328125
0.0234375
0.0032958984375
0.0208740234375
-0.0029296875
0.01171875
-0.00732421875
-0.0032958984375
-0.0010986328125
0.0135498046875
-0.087921142578125
0.0582275390625
-0.06005859375
-0.028564453125
0.103668212890625
-0.0648193359375
0.0703125
-0.0098876953125
-0.0054931640625
-0.0084228515625
0.000732421875
-0.0047607421875
0.0091552734375
-0.0087890625
0.0084228515625
-0.022735595703125
0.0069580078125
-0.022003173828125
0.0025634765625
0.008056640625
-0.01318359375
0.017974853515625
-0.0179443359375
0.012847900390625
-0.003662109375
0.0230712890625
-0.0040283203125
0.0252685546875
0.003662109375
0.0098876953125
0.0098876953125
0.0
0.00146484375
0.0047607421875
-0.0040283203125
-0.006591796875
-0.008056640625
-0.0091552734375
-0.0091552734375
0.000732421875
-0.002197265625
0.002197265625
-0.0113525390625
0.0435791015625
-0.094512939453125
-0.015380859375
0.0135498046875
-0.062255859375
0.094879150390625
-0.008056640625
0.0054931640625
0.0003662109375
0.0025634765625
-0.011016845703125
-0.005126953125
-0.015045166015625
-0.0003662109375
-0.010986328125
0.0113525390625
-0.0135498046875
0.0186767578125
0.0010986328125
-0.0069580078125
0.015380859375
-0.030029296875
0.016143798828125
-0.0142822265625
0.008087158203125
0.0010986328125
0.0003662109375
0.00732421875
-0.013580322265625
0.003662109375
-0.019805908203125
0.0032958984375
-0.005859375
0.000732421875
0.00439453125
-0.0032958984375
-0.002197265625
0.0029296875
-0.012451171875
0.0032958984375
-0.0069580078125
0.0018310546875
0.0062255859375
-0.04248046875
0.053131103515625
-0.06298828125
-0.0421142578125
0.0465087890625
-0.131134033203125
0.0706787109375
-0.101806640625
0.006591796875
-0.0772705078125
0.0010986328125
-0.06591796875
-0.0018310546875
-0.059326171875
0.0032958984375
0.010986328125
0.0098876953125
0.03369140625
0.0032958984375
0.0362548828125
-0.0281982421875
0.0355224609375
-0.0428466796875
-0.006591796875
-0.0260009765625
-0.0465087890625
-0.012451171875
-0.0450439453125
-0.0010986328125
-0.03662109375
-0.0010986328125
-0.128936767578125
-0.0113525390625
-0.212432861328125
-0.015380859375
-0.1116943359375
-0.0062255859375
-0.0032958984375
0.005126953125
0.0230712890625
0.0040283203125
0.0567626953125
0.0032958984375
0.0703125
0.002197265625
0.0911865234375
0.0032958984375
0.171417236328125
0.0150146484375
0.240997314453125
0.0216064453125
-0.0318603515625
0.03076171875
-0.1563720703125
-0.045440673828125
0.1563720703125
-0.0435791015625
0.1622314453125
0.110626220703125
0.0457763671875
0.0904541015625
0.0633544921875
0.006591796875
0.0267333984375
0.0106201171875
0.014678955078125
0.00732421875
0.018341064453125
0.0018310546875
-0.004425048828125
0.0098876953125
-0.011016845703125
0.0146484375
0.004425048828125
-0.0087890625
0.031524658203125
-0.0234375
0.034423828125
-0.013916015625
0.017578125
-0.0040283203125
0.0018310546875
-0.0098876953125
-0.0054931640625
-0.0120849609375
0.0
-0.00146484375
0.0084228515625
-0.00439453125
0.0186767578125
-0.010986328125
0.006591796875
-0.01025390625
-0.0054931640625
-0.0069580078125
-0.006591796875
-0.0018310546875
-0.01171875
-0.000732421875
-0.01611328125
-0.003662109375
-0.0106201171875
-0.0450439453125
0.054931640625
-0.090484619140625
-0.012451171875
0.0435791015625
-0.0743408203125
0.093048095703125
-0.0179443359375
0.0076904296875
-0.0032958984375
0.0018310546875
0.0062255859375
0.0003662109375
-0.0010986328125
0.0054931640625
-0.008453369140625
0.0106201171875
-0.018341064453125
0.0098876953125
-0.003662109375
-0.0040283203125
0.017242431640625
-0.012451171875
0.017242431640625
-0.00732421875
0.0
-0.000732421875
-0.0087890625
-0.000732421875
-0.0047607421875
0.0010986328125
0.0
0.0032958984375
0.0018310546875
0.0032958984375
-0.006256103515625
-0.0018310546875
-0.008453369140625
-0.005859375
-0.0010986328125
-0.002197265625
0.035186767578125
-0.094146728515625
0.056793212890625
-0.0516357421875
-0.039947509765625
0.099273681640625
-0.065216064453125
0.057861328125
-0.005126953125
0.008056640625
-0.003662109375
0.0
-0.00732421875
0.0
-0.01611328125
0.0128173828125
-0.017578125
0.017578125
0.0084228515625
0.0128173828125
0.052398681640625
-0.022705078125
0.039947509765625
-0.0377197265625
0.0146484375
-0.012451171875
0.0128173828125
0.002197265625
0.0098876953125
0.0029296875
0.00146484375
0.0040283203125
-0.054595947265625
-0.0047607421875
-0.101837158203125
-0.01318359375
-0.0882568359375
-0.003662109375
-0.0428466796875
-0.00146484375
-0.060791015625
-0.0062255859375
-0.0794677734375
-0.00732421875
-0.03955078125
-0.003662109375
-0.0333251953125
-0.0047607421875
-0.03955078125
-0.100372314453125
-0.136260986328125
-0.030029296875
-0.205108642578125
0.092681884765625
-0.1292724609375
0.025634765625
-0.0556640625
0.0040283203125
-0.0098876953125
0.008056640625
0.0087890625
0.0076904296875
0.0245361328125
0.0186767578125
0.0150146484375
0.0234375
0.1259765625
0.0091552734375
0.228546142578125
-0.0106201171875
0.105865478515625
0.000732421875
-0.025634765625
0.01904296875
0.0472412109375
0.0238037109375
0.2728271484375
0.0296630859375
0.228546142578125
0.0201416015625
0.047637939453125
0.0069580078125
0.016845703125
0.0018310546875
0.009521484375
0.0003662109375
0.025634765625
-0.006591796875
-0.005859375
-0.01318359375
-0.0245361328125
-0.0098876953125
0.04541015625
-0.119384765625
0.03515625
-0.0289306640625
-0.0113525390625
0.10546875
-0.005859375
0.0113525390625
0.002197265625
-0.0062255859375
0.002197265625
0.0
-0.0010986328125
0.0040283203125
-0.0128173828125
-0.0010986328125
-0.018310546875
-0.0003662109375
-0.00146484375
0.0047607421875
0.021240234375
-0.01904296875
0.0238037109375
-0.0296630859375
0.0029296875
-0.013916015625
0.0003662109375
0.0010986328125
0.0347900390625
0.003662109375
0.0560302734375
0.0018310546875
0.019775390625
-0.0025634765625
-0.00732421875
-0.005126953125
-0.0054931640625
0.0032958984375
-0.0054931640625
0.0047607421875
-0.01318359375
0.000732421875
0.00146484375
-0.043212890625
0.0611572265625
-0.0732421875
-0.009521484375
0.0380859375
-0.0699462890625
0.0648193359375
-0.01904296875
-0.000732421875
-0.01171875
0.0076904296875
-0.0040283203125
0.01025390625
-0.0142822265625
0.0084228515625
-0.030029296875
0.012451171875
-0.024169921875
0.0120849609375
0.000732421875
-0.01025390625
0.022705078125
-0.025634765625
0.0106201171875
-0.013916015625
-0.0113525390625
0.0
0.0054931640625
0.0069580078125
0.0146484375
0.0076904296875
-0.0062255859375
0.00146484375
0.0010986328125
0.0
0.0179443359375
0.0003662109375
0.016845703125
-0.0032958984375
0.029296875
0.0
0.00146484375
-0.0010986328125
-0.0670166015625
-0.090850830078125
-0.215362548828125
-0.0172119140625
-0.238433837890625
0.105499267578125
-0.05859375
0.03369140625
-0.0098876953125
-0.0032958984375
-0.0406494140625
0.0
-0.03955078125
0.008056640625
-0.0472412109375
0.0164794921875
-0.04541015625
0.0179443359375
-0.0142822265625
0.0069580078125
0.018310546875
-0.0186767578125
0.0296630859375
-0.025634765625
-0.013916015625
-0.0025634765625
0.1834716796875
0.0106201171875
0.267364501953125
0.013916015625
0.070343017578125
0.015380859375
0.024169921875
0.0084228515625
0.0076904296875
0.0062255859375
-0.00146484375
0.0040283203125
-0.0018310546875
0.002197265625
-0.0069580078125
0.0047607421875
0.0062255859375
-0.107666015625
0.02197265625
-0.0706787109375
-0.030792236328125
0.110595703125
-0.039947509765625
0.0692138671875
0.0025634765625
-0.003662109375
0.008453369140625
0.0
0.013580322265625
0.0040283203125
0.01025390625
0.00732421875
-0.0025634765625
0.0150146484375
-0.0084228515625
0.00439453125
0.00732421875
-0.0234375
0.0223388671875
-0.025634765625
0.0186767578125
-0.005859375
0.0084228515625
0.0087890625
0.0025634765625
0.0025634765625
0.005859375
-0.0029296875
0.0032958984375
0.005859375
-0.005859375
0.0054931640625
-0.0032958984375
0.0003662109375
-0.0194091796875
-0.003662109375
-0.0223388671875
-0.0025634765625
0.0281982421875
-0.087158203125
0.0589599609375
-0.05419921875
-0.0322265625
0.09814453125
-0.0648193359375
0.0655517578125
-0.015380859375
-0.0029296875
-0.0098876953125
0.000732421875
-0.001495361328125
0.01025390625
-0.008087158203125
0.01171875
-0.012451171875
0.0150146484375
-0.01904296875
0.0062255859375
0.005859375
-0.0205078125
0.025634765625
-0.0267333984375
0.009185791015625
-0.0076904296875
0.003326416015625
0.0
-0.012481689453125
-0.000732421875
-0.012481689453125
0.00146484375
-0.003662109375
-0.0003662109375
-0.0032958984375
-0.000732421875
0.0010986328125
-0.0018310546875
-0.003662109375
-0.0029296875
-0.005126953125
-0.0018310546875
-0.0029296875
-0.005126953125
0.0157470703125
-0.1021728515625
0.01611328125
-0.030029296875
-0.0098876953125
0.1109619140625
-0.0216064453125
0.0384521484375
-0.0164794921875
-0.0025634765625
-0.002197265625
0.0003662109375
0.000732421875
0.0054931640625
-0.0098876953125
0.018310546875
-0.0281982421875
0.013916015625
-0.0146484375
-0.00732421875
0.021240234375
-0.0325927734375
0.02490234375
-0.025634765625
0.01025390625
-0.0003662109375
-0.00439453125
-0.000732421875
-0.0087890625
-0.000732421875
-0.002197265625
0.0040283203125
0.0062255859375
-0.0003662109375
0.01318359375
-0.00439453125
0.0076904296875
-0.006591796875
0.027130126953125
-0.0003662109375
0.040313720703125
0.0032958984375
0.0146484375
-0.017578125
0.050537109375
-0.1058349609375
-0.0040283203125
0.010986328125
-0.069580078125
0.1072998046875
-0.028961181640625
0.01025390625
-0.041046142578125
0.0025634765625
-0.0325927734375
0.0029296875
-0.0113525390625
0.01318359375
-0.0260009765625
0.0234375
-0.0322265625
0.017578125
-0.0032958984375
-0.0098876953125
0.0355224609375
-0.0289306640625
0.0340576171875
-0.01611328125
0.0120849609375
0.002197265625
0.0
-0.0003662109375
0.0
-0.0032958984375
0.012451171875
-0.0003662109375
0.0135498046875
0.0069580078125
0.0
0.003662109375
-0.0040283203125
-0.00732421875
0.00146484375
-0.0047607421875
-0.013916015625
-0.00146484375
0.0076904296875
-0.100341796875
0.0084228515625
-0.019775390625
-0.0186767578125
0.10986328125
-0.00732421875
0.0267333984375
-0.005126953125
-0.0018310546875
-0.0032958984375
0.003662109375
-0.009521484375
0.00732421875
-0.01025390625
0.0084228515625
-0.01611328125
0.0113525390625
-0.0113525390625
0.0032958984375
0.0201416015625
-0.0186767578125
0.012451171875
-0.01611328125
-0.000732421875
0.0010986328125
0.0032958984375
0.003662109375
-0.000732421875
0.0010986328125
-0.0062255859375
0.0025634765625
-0.0106201171875
-0.0003662109375
0.0
-0.006591796875
0.0084228515625
-0.000732421875
0.006591796875
0.0025634765625
0.002197265625
0.0069580078125
-0.002197265625
0.002197265625
-0.005126953125
-0.0062255859375
0.0003662109375
-0.0018310546875
0.0047607421875
-0.0018310546875
0.002197265625
0.003662109375
-0.0047607421875
-0.00146484375
-0.0054931640625
-0.0040283203125
0.0018310546875
-0.000732421875
0.0003662109375
-0.0010986328125
0.0
0.0047607421875
-0.0040283203125
-0.0032958984375
-0.005126953125
-0.005126953125
-0.0029296875
0.0003662109375
0.0025634765625
0.0
0.009521484375
0.0040283203125
0.0245361328125
-0.0706787109375
0.060821533203125
-0.066650390625
-0.0230712890625
0.07470703125
-0.062286376953125
0.0677490234375
-0.0128173828125
0.00439453125
-0.019775390625
-0.0003662109375
-0.0062255859375
-0.0062255859375
-0.005126953125
0.0040283203125
-0.0106201171875
0.018310546875
-0.015380859375
0.0157470703125
0.0
-0.0062255859375
0.0230712890625
-0.0267333984375
0.0205078125
-0.0194091796875
0.01318359375
0.00146484375
0.006591796875
-0.0003662109375
-0.0040283203125
-0.0025634765625
-0.0040283203125
0.003662109375
0.0040283203125
0.000732421875
0.0018310546875
-0.0029296875
-0.0098876953125
-0.000732421875
-0.01171875
-0.002197265625
-0.003662109375
-0.005859375
0.0
-0.005126953125
0.00146484375
0.0003662109375
0.0040283203125
-0.009521484375
0.04248046875
-0.108428955078125
0.003662109375
0.0106201171875
-0.03662109375
0.109893798828125
-0.0032958984375
0.0062255859375
-0.0010986328125
0.0003662109375
-0.0098876953125
0.0010986328125
-0.0208740234375
0.0032958984375
-0.0322265625
0.00732421875
-0.030029296875
0.0142822265625
-0.0054931640625
-0.0040283203125
0.0252685546875
-0.0223388671875
0.030029296875
-0.0194091796875
0.0135498046875
-0.0029296875
0.0150146484375
0.00732421875
0.010986328125
0.0
0.013916015625
0.000732421875
0.0135498046875
0.0018310546875
0.0054931640625
0.00146484375
-0.005859375
-0.0040283203125
-0.005126953125
-0.0032958984375
0.0076904296875
0.00146484375
0.03076171875
-0.0911865234375
0.071807861328125
-0.0758056640625
-0.0274658203125
0.0966796875
-0.071075439453125
0.0838623046875
0.0025634765625
0.0018310546875
0.0091552734375
-0.0003662109375
0.006591796875
0.0054931640625
-0.0076904296875
0.0084228515625
-0.015380859375
0.006591796875
-0.0135498046875
0.010986328125
0.0135498046875
-0.013916015625
0.0230712890625
-0.0252685546875
0.0084228515625
-0.0113525390625
0.0018310546875
-0.0029296875
-0.0010986328125
0.0032958984375
0.0003662109375
0.0
-0.0069580078125
0.002197265625
-0.0032958984375
-0.0062255859375
0.00146484375
-0.00439453125
0.0003662109375
0.0047607421875
0.0018310546875
0.0029296875
-0.0069580078125
0.0069580078125
0.025634765625
-0.108062744140625
0.0054931640625
-0.0076904296875
-0.0325927734375
0.114288330078125
-0.0040283203125
0.01318359375
0.0076904296875
0.0040283203125
-0.0084228515625
0.00439453125
-0.0135498046875
0.0032958984375
-0.008056640625
0.0087890625
-0.0120849609375
0.0172119140625
-0.003662109375
-0.006591796875
0.0128173828125
-0.0245361328125
0.019775390625
-0.0194091796875
0.0091552734375
-0.0069580078125
0.0040283203125
0.005126953125
-0.01171875
0.0029296875
-0.01171875
0.0
0.0047607421875
0.0010986328125
0.0076904296875
-0.0010986328125
0.00732421875
-0.0047607421875
-0.00732421875
-0.002197265625
-0.0106201171875
0.002197265625
0.0164794921875
-0.0531005859375
0.064117431640625
-0.066650390625
-0.01318359375
0.0560302734375
-0.073638916015625
0.0703125
-0.013916015625
0.00439453125
-0.000732421875
0.0047607421875
0.00146484375
0.002197265625
-0.005859375
0.005126953125
-0.022705078125
0.01611328125
-0.0194091796875
0.013916015625
0.013916015625
-0.016845703125
0.03369140625
-0.0340576171875
0.012451171875
-0.0150146484375
-0.006591796875
-0.0003662109375
-0.0091552734375
0.003662109375
-0.005126953125
0.0018310546875
0.00439453125
-0.002197265625
0.01171875
-0.0025634765625
-0.005126953125
-0.0054931640625
-0.0087890625
-0.0032958984375
0.002197265625
0.0018310546875
-0.0025634765625
0.0025634765625
0.03515625
-0.097076416015625
0.0281982421875
-0.017578125
-0.029296875
0.102935791015625
-0.021240234375
0.0245361328125
0.00146484375
0.0047607421875
-0.0003662109375
0.0018310546875
-0.003662109375
0.00732421875
-0.01025390625
0.0106201171875
-0.0245361328125
0.01904296875
-0.012451171875
0.0040283203125
0.0216064453125
-0.034423828125
0.0281982421875
-0.027099609375
-0.0018310546875
-0.0054931640625
-0.022705078125
0.0047607421875
-0.008056640625
0.0062255859375
0.008056640625
0.006591796875
0.0069580078125
0.0025634765625
0.00146484375
-0.0076904296875
0.0032958984375
-0.0003662109375
0.010986328125
0.003662109375
0.0084228515625
-0.0018310546875
-0.0029296875
-0.0062255859375
-0.00146484375
-0.002197265625
0.038818359375
-0.114288330078125
0.0450439453125
-0.05126953125
-0.032958984375
0.120880126953125
-0.0457763671875
0.0552978515625
0.0040283203125
0.0018310546875
0.0098876953125
0.0010986328125
0.005859375
0.0025634765625
-0.0087890625
0.008056640625
-0.0238037109375
0.0150146484375
-0.0084228515625
0.009521484375
0.02197265625
-0.021240234375
0.030029296875
-0.0263671875
0.005126953125
-0.0098876953125
0.00146484375
0.0003662109375
0.006591796875
0.002197265625
0.0010986328125
-0.00146484375
-0.0087890625
-0.002197265625
-0.009521484375
0.0018310546875
0.005126953125
0.0032958984375
0.0069580078125
0.0
-0.005126953125
-0.0025634765625
-0.0106201171875
-0.0025634765625
0.00146484375
0.000732421875
0.0047607421875
0.000732421875
0.0135498046875
-0.05419921875
0.058624267578125
-0.065185546875
-0.02197265625
0.063720703125
-0.067413330078125
0.07470703125
-0.0003662109375
0.0029296875
-0.0018310546875
0.00146484375
-0.0087890625
0.0054931640625
-0.0087890625
0.01318359375
-0.01025390625
0.01611328125
-0.0106201171875
0.013916015625
0.000732421875
-0.0128173828125
0.0194091796875
-0.03076171875
0.024169921875
-0.0172119140625
0.005126953125
-0.002197265625
-0.0054931640625
-0.0018310546875
-0.0091552734375
0.0
-0.0018310546875
0.0054931640625
0.0062255859375
-0.0003662109375
-0.0025634765625
-0.008056640625
-0.0062255859375
-0.006591796875
-0.0018310546875
0.0047607421875
0.003662109375
0.00439453125
-0.0003662109375
-0.0062255859375
-0.0062255859375
-0.0142822265625
0.04248046875
-0.096710205078125
0.0040283203125
0.0120849609375
-0.0479736328125
0.105865478515625
-0.003662109375
0.003662109375
-0.006591796875
-0.0032958984375
-0.015380859375
0.0047607421875
-0.0084228515625
0.0098876953125
-0.01171875
0.0142822265625
-0.0098876953125
0.01611328125
0.0010986328125
-0.0128173828125
0.019775390625
-0.0318603515625
0.0245361328125
-0.016845703125
0.008056640625
-0.003662109375
0.0029296875
-0.00146484375
-0.0098876953125
-0.00146484375
-0.01025390625
0.0054931640625
0.0032958984375
0.0047607421875
0.00146484375
-0.00146484375
-0.0029296875
-0.002197265625
-0.0047607421875
-0.00146484375
0.0040283203125
-0.000732421875
0.044677734375
-0.111358642578125
0.0406494140625
-0.0465087890625
-0.047607421875
0.116119384765625
-0.0498046875
0.05859375
-0.0032958984375
0.009521484375
-0.003662109375
0.003662109375
-0.0098876953125
0.0025634765625
-0.0157470703125
0.0113525390625
-0.0157470703125
0.021240234375
-0.009521484375
0.0076904296875
0.0040283203125
-0.0281982421875
0.008056640625
-0.0362548828125
0.0069580078125
-0.0025634765625
0.0003662109375
0.012451171875
-0.0113525390625
0.005126953125
-0.0062255859375
-0.002197265625
0.0040283203125
-0.0010986328125
0.01025390625
0.0040283203125
0.003662109375
0.0
-0.006591796875
-0.000732421875
0.008056640625
-0.0018310546875
0.005126953125
0.0054931640625
0.050537109375
-0.115386962890625
0.0106201171875
-0.0084228515625
-0.0421142578125
0.128936767578125
0.0113525390625
0.0135498046875
0.0106201171875
0.0032958984375
-0.0069580078125
0.0
-0.0069580078125
0.0069580078125
-0.0047607421875
0.0216064453125
-0.0113525390625
0.0164794921875
-0.0069580078125
-0.0076904296875
0.013916015625
-0.031494140625
0.028564453125
-0.019775390625
0.0113525390625
0.0018310546875
-0.002197265625
0.0069580078125
-0.0084228515625
-0.0010986328125
0.0047607421875
-0.00146484375
0.015380859375
0.0047607421875
0.0047607421875
0.0018310546875
-0.0091552734375
0.002197265625
-0.0025634765625
0.0032958984375
0.0098876953125
0.00146484375
-0.0062255859375
-0.0047607421875
0.0428466796875
-0.1014404296875
0.00439453125
0.0047607421875
-0.049072265625
0.1087646484375
-0.0032958984375
0.0091552734375
-0.0025634765625
0.00439453125
-0.003662109375
0.00732421875
-0.010986328125
0.005126953125
-0.0146484375
0.009521484375
-0.0146484375
0.016845703125
0.0047607421875
-0.0047607421875
0.0263671875
-0.029296875
0.01025390625
-0.0164794921875
0.0010986328125
-0.002197265625
-0.000732421875
-0.00146484375
-0.0062255859375
0.000732421875
0.002197265625
-0.0018310546875
0.00146484375
0.0
-0.000732421875
0.0003662109375
0.0054931640625
-0.002197265625
0.006591796875
-0.002197265625
-0.0025634765625
0.00146484375
0.03076171875
-0.088623046875
0.062286376953125
-0.0615234375
-0.03369140625
0.0966796875
-0.064483642578125
0.0728759765625
-0.01611328125
0.0087890625
-0.0128173828125
0.005859375
-0.005126953125
0.008056640625
-0.00439453125
0.0113525390625
-0.012451171875
0.018310546875
-0.013916015625
0.005126953125
0.0150146484375
-0.029296875
0.0289306640625
-0.028564453125
0.0113525390625
-0.0076904296875
-0.0029296875
-0.0032958984375
0.0003662109375
0.0
0.00146484375
0.0032958984375
-0.0032958984375
0.0047607421875
-0.00732421875
-0.005126953125
0.0032958984375
-0.01171875
0.005859375
-0.0018310546875
-0.0047607421875
0.006591796875
-0.005859375
0.0003662109375
0.012451171875
-0.0552978515625
0.06591796875
-0.0721435546875
-0.0172119140625
0.0487060546875
-0.0706787109375
0.0758056640625
-0.0120849609375
0.006591796875
-0.0047607421875
0.0032958984375
0.002197265625
0.005126953125
-0.012451171875
0.0128173828125
-0.028564453125
0.0252685546875
-0.016845703125
0.017578125
0.0186767578125
-0.0194091796875
0.0274658203125
-0.03515625
0.0018310546875
-0.0113525390625
0.002197265625
0.0029296875
0.01025390625
0.0003662109375
-0.000732421875
0.0029296875
-0.0018310546875
0.0003662109375
-0.0032958984375
-0.00146484375
-0.0029296875
0.0003662109375
0.005126953125
0.0010986328125
0.00732421875
-0.0025634765625
0.0025634765625
-0.0047607421875
-0.0010986328125
0.0
-0.0032958984375
-0.0311279296875
0.065185546875
-0.0897216796875
0.006591796875
0.032958984375
-0.06298828125
0.0966796875
0.0
0.006591796875
-0.005859375
0.00439453125
-0.0106201171875
0.0010986328125
-0.0025634765625
0.00146484375
-0.005126953125
0.012451171875
-0.0223388671875
0.01171875
-0.0040283203125
-0.01318359375
0.02490234375
-0.032958984375
0.0205078125
-0.019775390625
0.01171875
-0.005126953125
-0.0047607421875
-0.002197265625
-0.00439453125
-0.0025634765625
0.0047607421875
-0.003662109375
0.0106201171875
-0.0003662109375
-0.0047607421875
0.0
-0.01025390625
-0.0029296875
0.006591796875
-0.005126953125
0.0029296875
0.0003662109375
0.0113525390625
-0.02490234375
0.057861328125
-0.07177734375
-0.0076904296875
0.02783203125
-0.06005859375
0.0772705078125
-0.0054931640625
0.0062255859375
-0.0069580078125
0.00732421875
-0.00732421875
0.0032958984375
-0.0062255859375
0.00146484375
-0.01318359375
0.0146484375
-0.019775390625
0.017578125
-0.0054931640625
-0.0179443359375
0.0289306640625
-0.046142578125
0.0230712890625
-0.0216064453125
0.0047607421875
-0.000732421875
-0.002197265625
0.005859375
-0.017578125
0.01025390625
-0.010986328125
0.005859375
-0.000732421875
0.005126953125
-0.0025634765625
0.0062255859375
0.0010986328125
0.000732421875
-0.0010986328125
0.000732421875
-0.01171875
0.0018310546875
0.0120849609375
-0.0618896484375
0.0618896484375
-0.06591796875
-0.017578125
0.060791015625
-0.0655517578125
0.0662841796875
-0.018310546875
0.0069580078125
-0.0157470703125
0.00439453125
-0.0120849609375
0.006591796875
-0.0091552734375
0.015380859375
-0.005126953125
0.016845703125
-0.01025390625
0.018310546875
0.003662109375
-0.0172119140625
0.029296875
-0.038818359375
0.02490234375
-0.013916015625
0.01025390625
0.0029296875
-0.003662109375
0.01025390625
-0.012451171875
0.0054931640625
0.000732421875
-0.003662109375
0.005126953125
0.0018310546875
0.0047607421875
-0.00146484375
-0.00439453125
-0.0003662109375
-0.0106201171875
0.009521484375
0.0032958984375
0.0003662109375
-0.0076904296875
-0.0010986328125
0.0413818359375
-0.124542236328125
0.0164794921875
-0.01171875
-0.0391845703125
0.127838134765625
0.0
0.0106201171875
0.0003662109375
-0.0003662109375
-0.0069580078125
-0.00146484375
-0.01025390625
0.005126953125
-0.0098876953125
0.0164794921875
-0.0201416015625
0.01904296875
-0.006591796875
-0.0029296875
0.0172119140625
-0.034423828125
0.0150146484375
-0.0179443359375
0.0069580078125
0.003662109375
-0.0084228515625
0.0040283203125
-0.01171875
0.000732421875
-0.012451171875
-0.0029296875
-0.0003662109375
-0.000732421875
0.0084228515625
0.0003662109375
0.0054931640625
0.00146484375
0.0120849609375
-0.0029296875
-0.0010986328125
-0.005126953125
-0.0040283203125
0.00146484375
0.019775390625
-0.0860595703125
0.0186767578125
-0.017578125
-0.01025390625
0.0963134765625
-0.0186767578125
0.024169921875
-0.0054931640625
0.0025634765625
0.0040283203125
0.010986328125
0.003662109375
0.0062255859375
-0.00732421875
0.002197265625
-0.0208740234375
0.0135498046875
-0.000732421875
0.005126953125
0.0318603515625
-0.02490234375
0.0274658203125
-0.0322265625
0.00439453125
-0.013916015625
-0.0025634765625
-0.0003662109375
0.0040283203125
0.009521484375
0.005859375
0.0054931640625
-0.0029296875
-0.005126953125
-0.0018310546875
-0.00732421875
0.0032958984375
-0.000732421875
0.0025634765625
0.0054931640625
0.0054931640625
-0.0018310546875
-0.000732421875
-0.005859375
-0.0047607421875
-0.00439453125
0.024169921875
-0.100372314453125
0.0252685546875
-0.03369140625
-0.0223388671875
0.111358642578125
-0.0245361328125
0.044677734375
-0.010986328125
-0.00146484375
-0.0091552734375
0.0084228515625
-0.0018310546875
0.009521484375
-0.0069580078125
0.010986328125
-0.0208740234375
0.018310546875
-0.0172119140625
0.0054931640625
0.0234375
-0.0245361328125
0.03369140625
-0.0289306640625
0.01025390625
-0.0146484375
-0.012451171875
-0.00732421875
-0.0113525390625
0.0029296875
0.0029296875
0.00732421875
0.0047607421875
0.0032958984375
0.0010986328125
-0.0113525390625
-0.00732421875
-0.0113525390625
-0.000732421875
0.0032958984375
0.003662109375
0.0054931640625
0.00439453125
-0.0003662109375
-0.00439453125
-0.00732421875
-0.0069580078125
-0.0003662109375
0.0025634765625
0.00146484375
0.0450439453125
-0.108428955078125
0.006591796875
0.0062255859375
-0.0523681640625
0.123809814453125
-0.00732421875
0.0179443359375
0.006591796875
0.0157470703125
0.00439453125
0.0135498046875
-0.0003662109375
0.0010986328125
-0.0150146484375
0.009521484375
-0.013916015625
0.0234375
0.0091552734375
0.0032958984375
0.037353515625
-0.0362548828125
0.01611328125
-0.0274658203125
-0.00439453125
0.0032958984375
0.0
0.01171875
0.0
0.0084228515625
-0.0076904296875
0.0010986328125
-0.0076904296875
0.00146484375
0.012451171875
0.0
0.0230712890625
0.0
0.0263671875
-0.0010986328125
0.0047607421875
-0.00439453125
-0.0062255859375
0.0003662109375
0.006591796875
0.0029296875
0.0113525390625
-0.00439453125
0.0128173828125
-0.0545654296875
0.064483642578125
-0.088623046875
-0.005126953125
0.05126953125
-0.065948486328125
0.0875244140625
-0.0076904296875
-0.00439453125
-0.0113525390625
-0.00439453125
-0.00439453125
0.0
0.00146484375
0.00439453125
-0.0098876953125
0.009521484375
-0.024169921875
0.01171875
0.0010986328125
-0.0062255859375
0.030029296875
-0.0230712890625
0.0157470703125
-0.01318359375
-0.005859375
-0.0062255859375
-0.0142822265625
-0.00732421875
-0.0087890625
0.00439453125
0.00146484375
-0.0003662109375
0.003662109375
-0.0069580078125
-0.0084228515625
-0.005859375
-0.0087890625
-0.0054931640625
0.00439453125
-0.0010986328125
0.0069580078125
-0.0069580078125
0.005126953125
-0.005859375
-0.0076904296875
-0.0084228515625
-0.0128173828125
-0.0054931640625
-0.0025634765625
0.0
0.003662109375
-0.0025634765625
0.0069580078125
-0.000732421875
0.0281982421875
-0.099639892578125
0.0487060546875
-0.041748046875
-0.0380859375
0.111358642578125
-0.065185546875
0.0545654296875
-0.0029296875
0.0
-0.0113525390625
-0.002197265625
-0.013916015625
0.0040283203125
-0.0146484375
0.0113525390625
-0.0223388671875
0.017578125
-0.0142822265625
0.0150146484375
0.000732421875
-0.01318359375
0.013916015625
-0.0186767578125
0.006591796875
-0.0010986328125
-0.0084228515625
0.0084228515625
-0.005859375
0.012451171875
0.003662109375
0.0135498046875
-0.0076904296875
0.017578125
-0.017578125
0.018310546875
-0.0076904296875
0.0106201171875
-0.000732421875
0.0047607421875
-0.000732421875
0.0032958984375
0.0003662109375
0.0010986328125
-0.0091552734375
0.006591796875
-0.0157470703125
0.002197265625
-0.0003662109375
-0.0025634765625
0.002197265625
0.0018310546875
0.0040283203125
-0.0516357421875
0.05859375
-0.088623046875
-0.013916015625
0.06298828125
-0.065185546875
0.0955810546875
0.0032958984375
-0.0062255859375
-0.003662109375
-0.0018310546875
-0.0084228515625
0.0091552734375
-0.0025634765625
0.0172119140625
-0.0076904296875
0.01025390625
-0.0146484375
0.005859375
-0.0029296875
-0.0069580078125
0.0172119140625
-0.0128173828125
0.0186767578125
-0.005126953125
0.0084228515625
-0.0076904296875
0.000732421875
-0.012451171875
-0.0062255859375
-0.005126953125
-0.0025634765625
0.0087890625
0.0029296875
0.00146484375
-0.000732421875
-0.0098876953125
-0.002197265625
-0.005126953125
0.003662109375
0.0003662109375
0.00732421875
0.00439453125
0.002197265625
-0.00146484375
-0.00146484375
-0.00732421875
-0.0040283203125
-0.0010986328125
0.015380859375
-0.091552734375
0.0545654296875
-0.0615234375
-0.0194091796875
0.097412109375
-0.073974609375
0.0736083984375
-0.0201416015625
0.0091552734375
0.00146484375
0.0084228515625
-0.0084228515625
0.012451171875
-0.017578125
0.0146484375
-0.0223388671875
0.0142822265625
-0.017578125
0.01611328125
0.0172119140625
-0.00439453125
0.0311279296875
-0.021240234375
0.0157470703125
-0.012451171875
0.0076904296875
-0.01025390625
0.0106201171875
-0.000732421875
0.0084228515625
0.0084228515625
0.008056640625
0.0029296875
0.01171875
-0.0047607421875
-0.0029296875
-0.0032958984375
-0.002197265625
0.0003662109375
0.0032958984375
-0.00732421875
0.005126953125
-0.010986328125
0.0091552734375
-0.00439453125
0.006591796875
-0.0010986328125
0.0098876953125
-0.013916015625
0.0439453125
-0.08203125
-0.0003662109375
0.018310546875
-0.0421142578125
0.088623046875
0.0003662109375
0.0018310546875
0.006591796875
0.003662109375
0.0087890625
0.005126953125
-0.0098876953125
0.0040283203125
-0.0245361328125
0.017578125
-0.0113525390625
0.0186767578125
0.01318359375
-0.0113525390625
0.03076171875
-0.0377197265625
0.0186767578125
-0.0260009765625
0.0076904296875
0.0003662109375
0.0087890625
0.0003662109375
0.0069580078125
0.000732421875
-0.00732421875
-0.0003662109375
-0.006591796875
-0.00146484375
0.008056640625
-0.0018310546875
0.01171875
-0.010986328125
0.016845703125
-0.01025390625
0.000732421875
-0.0084228515625
-0.00439453125
-0.0018310546875
0.0084228515625
-0.000732421875
0.03076171875
-0.08349609375
0.0673828125
-0.0618896484375
-0.028564453125
0.08203125
-0.0640869140625
0.0655517578125
0.003662109375
0.000732421875
0.0003662109375
-0.0018310546875
0.0
-0.0003662109375
-0.0128173828125
0.0062255859375
-0.0230712890625
0.0208740234375
-0.01611328125
0.0194091796875
0.0150146484375
-0.01904296875
0.0311279296875
-0.0362548828125
0.003662109375
-0.013916015625
-0.0128173828125
0.003662109375
-0.0087890625
0.0076904296875
-0.0054931640625
0.002197265625
0.00732421875
-0.0018310546875
0.003662109375
-0.0084228515625
-0.0018310546875
-0.0040283203125
0.0084228515625
-0.0003662109375
0.0091552734375
-0.0054931640625
0.008056640625
-0.005126953125
-0.0040283203125
-0.0032958984375
-0.00439453125
0.0029296875
0.0047607421875
0.00146484375
0.003662109375
-0.0029296875
0.0010986328125
-0.008056640625
-0.00732421875
-0.0032958984375
-0.0029296875
0.0047607421875
0.002197265625
0.00439453125
0.000732421875
0.0062255859375
-0.003662109375
-0.00146484375
0.0179443359375
-0.116119384765625
0.0216064453125
-0.03369140625
-0.025634765625
0.125640869140625
-0.02490234375
0.04833984375
-0.010986328125
0.0003662109375
-0.0098876953125
0.00439453125
-0.002197265625
0.00439453125
-0.000732421875
0.0029296875
-0.018310546875
0.0120849609375
-0.028564453125
0.0128173828125
0.0010986328125
-0.00439453125
0.017578125
-0.013916015625
0.013916015625
-0.0084228515625
-0.0018310546875
-0.0018310546875
-0.0029296875
0.006591796875
0.0029296875
0.0076904296875
0.003662109375
0.0040283203125
-0.0040283203125
-0.0010986328125
0.0047607421875
-0.003662109375
0.0179443359375
0.0025634765625
0.003662109375
0.0054931640625
0.0062255859375
0.0010986328125
-0.0047607421875
-0.003662109375
-0.0084228515625
-0.0010986328125
0.0054931640625
-0.0032958984375
-0.0018310546875
-0.00732421875
-0.00439453125
-0.0076904296875
0.0
-0.00732421875
0.000732421875
0.00146484375
0.0003662109375
0.000732421875
0.0084228515625
-0.00146484375
0.01318359375
-0.000732421875
0.013916015625
-0.0025634765625
0.0040283203125
-0.0029296875
-0.0010986328125
0.0025634765625
0.0047607421875
0.0010986328125
0.01904296875
-0.09814453125
0.019775390625
-0.008056640625
-0.01318359375
0.099609375
-0.0157470703125
0.0164794921875
-0.0003662109375
0.005859375
0.005859375
0.002197265625
0.005859375
-0.000732421875
-0.01318359375
0.0054931640625
-0.025634765625
0.013916015625
-0.010986328125
0.013916015625
0.0238037109375
-0.0194091796875
0.0347900390625
-0.0399169921875
0.003662109375
-0.017578125
-0.01318359375
0.0
-0.0029296875
0.0076904296875
0.0025634765625
0.0029296875
-0.0003662109375
-0.0054931640625
-0.0054931640625
-0.0076904296875
-0.0076904296875
-0.003662109375
-0.0003662109375
0.0
0.0003662109375
-0.0003662109375
0.00146484375
-0.000732421875
-0.0091552734375
-0.006591796875
-0.0146484375
-0.0018310546875
0.0
-0.000732421875
0.00146484375
-0.005859375
0.0069580078125
-0.005126953125
0.00439453125
-0.0069580078125
-0.0098876953125
0.0003662109375
-0.00732421875
0.002197265625
0.0010986328125
0.002197265625
0.005859375
-0.0010986328125
-0.0106201171875
-0.0087890625
0.030029296875
-0.121246337890625
0.013916015625
0.0032958984375
-0.0289306640625
0.125274658203125
0.0032958984375
0.0076904296875
-0.0010986328125
-0.000732421875
-0.0025634765625
0.0
0.003662109375
0.006591796875
0.000732421875
0.009521484375
-0.0076904296875
0.0164794921875
-0.0135498046875
0.0106201171875
0.0120849609375
-0.0179443359375
0.03515625
-0.029296875
0.0186767578125
-0.01318359375
0.0069580078125
-0.000732421875
0.0010986328125
-0.002197265625
-0.013916015625
-0.002197265625
-0.012451171875
0.0040283203125
-0.0047607421875
0.00732421875
-0.0076904296875
0.0106201171875
-0.009521484375
0.0062255859375
-0.0179443359375
0.0003662109375
-0.005859375
-0.003662109375
0.00439453125
-0.0010986328125
0.0010986328125
0.000732421875
0.006591796875
-0.0018310546875
-0.0018310546875
-0.0047607421875
-0.0106201171875
-0.0047607421875
0.0069580078125
-0.082763671875
0.0205078125
-0.01318359375
0.0018310546875
0.0926513671875
-0.0047607421875
0.0267333984375
-0.008056640625
0.0018310546875
-0.010986328125
0.00146484375
-0.0025634765625
0.006591796875
-0.0032958984375
0.01025390625
-0.0091552734375
0.017578125
-0.016845703125
0.012451171875
0.012451171875
-0.021240234375
0.0303955078125
-0.0347900390625
0.0120849609375
-0.01611328125
0.00439453125
0.003662109375
-0.005126953125
0.005859375
-0.00732421875
0.0029296875
0.0003662109375
0.0018310546875
0.0054931640625
-0.0040283203125
0.010986328125
-0.00146484375
0.00146484375
-0.0018310546875
-0.0069580078125
0.005126953125
-0.0003662109375
0.006591796875
0.00439453125
-0.0025634765625
0.006591796875
-0.0003662109375
-0.002197265625
-0.00146484375
-0.003662109375
-0.000732421875
0.0025634765625
0.0029296875
0.028564453125
-0.0889892578125
0.0699462890625
-0.0523681640625
-0.0274658203125
0.0941162109375
-0.0699462890625
0.05859375
0.0003662109375
-0.0003662109375
0.0047607421875
0.0
0.00439453125
0.00439453125
-0.016845703125
0.0106201171875
-0.0230712890625
0.017578125
-0.0142822265625
0.016845703125
0.01025390625
-0.0091552734375
0.0318603515625
-0.0355224609375
0.0157470703125
-0.02197265625
0.003662109375
0.0010986328125
0.0029296875
0.0040283203125
0.00732421875
-0.0010986328125
-0.0091552734375
0.0003662109375
-0.0157470703125
0.005859375
0.0032958984375
0.0018310546875
0.009521484375
-0.0040283203125
0.00732421875
-0.002197265625
-0.005859375
-0.0025634765625
-0.005126953125
0.003662109375
0.01171875
0.003662109375
0.008056640625
-0.0029296875
0.0029296875
-0.0040283203125
-0.005126953125
-0.00732421875
0.00732421875
-0.0904541015625
0.017578125
-0.010986328125
-0.008056640625
0.0977783203125
-0.0018310546875
0.022705078125
-0.003662109375
-0.0003662109375
-0.01171875
0.00732421875
0.0010986328125
0.0120849609375
-0.0003662109375
0.01171875
-0.0201416015625
0.01318359375
-0.022705078125
0.0069580078125
0.0281982421875
-0.0296630859375
0.056396484375
-0.0439453125
0.0377197265625
-0.018310546875
-0.00146484375
-0.003662109375
-0.0135498046875
0.0032958984375
0.005126953125
-0.0029296875
0.008056640625
-0.0040283203125
0.0010986328125
0.000732421875
-0.0087890625
-0.0010986328125
-0.0113525390625
-0.000732421875
-0.000732421875
0.0010986328125
0.0325927734375
-0.0062255859375
0.02783203125
-0.0084228515625
-0.0018310546875
0.0040283203125
-0.0062255859375
0.0084228515625
0.013946533203125
-0.100738525390625
0.0087890625
-0.0098876953125
-0.022003173828125
0.111724853515625
-0.0289306640625
0.0216064453125
-0.034423828125
0.010986328125
-0.0457763671875
0.008056640625
-0.02490234375
0.0032958984375
-0.01318359375
0.012451171875
-0.0267333984375
0.0194091796875
-0.019775390625
0.006591796875
0.0157470703125
-0.0318603515625
0.03369140625
-0.0380859375
0.00146484375
-0.0084228515625
-0.0054931640625
0.00146484375
-0.0106201171875
0.002197265625
-0.0355224609375
0.0003662109375
-0.022705078125
-0.0025634765625
-0.0025634765625
0.000732421875
-0.0054931640625
0.003662109375
0.000732421875
0.003662109375
0.002197265625
-0.0010986328125
-0.005126953125
0.0003662109375
0.0018310546875
-0.0010986328125
0.0018310546875
-0.00146484375
0.0018310546875
0.0029296875
-0.0032958984375
-0.0029296875
-0.005859375
0.0018310546875
0.005126953125
0.0018310546875
0.025634765625
-0.112091064453125
0.0325927734375
-0.0439453125
-0.0201416015625
0.121246337890625
-0.028564453125
0.052734375
-0.0062255859375
-0.0040283203125
-0.008056640625
-0.0003662109375
-0.01171875
-0.000732421875
-0.0150146484375
0.0062255859375
-0.0142822265625
0.0208740234375
-0.0234375
0.0146484375
0.0032958984375
-0.012451171875
0.0347900390625
-0.0263671875
0.0245361328125
-0.0120849609375
0.0120849609375
0.002197265625
0.0069580078125
0.0010986328125
0.0040283203125
-0.0029296875
0.0054931640625
-0.0029296875
0.0062255859375
0.002197265625
0.0164794921875
-0.0032958984375
0.0062255859375
-0.0010986328125
-0.00732421875
0.0076904296875
0.0054931640625
0.0010986328125
0.0091552734375
0.0
0.0032958984375
-0.0076904296875
0.0120849609375
-0.105499267578125
0.015380859375
-0.0172119140625
-0.0087890625
0.120513916015625
-0.0062255859375
0.0333251953125
0.005126953125
-0.0076904296875
-0.0025634765625
0.003662109375
0.0010986328125
0.015380859375
-0.002197265625
0.0135498046875
-0.0201416015625
0.01025390625
-0.0157470703125
0.016845703125
0.02490234375
-0.0135498046875
0.041748046875
-0.0311279296875
0.0142822265625
-0.0076904296875
-0.0054931640625
-0.0010986328125
0.000732421875
0.0
0.01171875
-0.0018310546875
0.0069580078125
-0.0010986328125
0.0
0.0003662109375
0.0142822265625
-0.0128173828125
0.029296875
-0.0047607421875
0.0230712890625
0.002197265625
0.00732421875
-0.0003662109375
-0.0025634765625
-0.0025634765625
-0.01611328125
0.0018310546875
-0.0230712890625
0.0084228515625
-0.01171875
0.0029296875
0.0010986328125
-0.09375
0.00439453125
-0.0216064453125
-0.0106201171875
0.101806640625
-0.0252685546875
0.03662109375
-0.041015625
0.016845703125
-0.0552978515625
0.0054931640625
-0.0322265625
-0.0062255859375
-0.0238037109375
-0.016845703125
-0.066650390625
-0.0318603515625
-0.09521484375
-0.0252685546875
-0.01611328125
-0.032958984375
0.050537109375
-0.037353515625
0.0205078125
-0.03515625
0.018310546875
-0.044342041015625
0.031494140625
-0.045440673828125
0.01025390625
-0.0465087890625
0.016845703125
-0.065185546875
0.0670166015625
-0.0648193359375
0.0560302734375
-0.03369140625
0.0047607421875
0.0047607421875
-0.0025634765625
0.03515625
-0.0025634765625
0.03369140625
-0.0069580078125
0.0263671875
-0.0010986328125
0.0263671875
-0.0047607421875
0.03515625
-0.003662109375
0.024169921875
0.0025634765625
0.006591796875
-0.0084228515625
0.00732421875
-0.01025390625
0.0142822265625
0.000732421875
0.017578125
0.029296875
0.015411376953125
0.0472412109375
-0.05712890625
0.0552978515625
-0.031890869140625
-0.00439453125
0.091583251953125
-0.041015625
0.062286376953125
0.0029296875
0.006591796875
-0.00732421875
0.00732421875
-0.0135498046875
0.0087890625
-0.0087890625
0.0142822265625
-0.019775390625
0.0230712890625
-0.03076171875
0.02197265625
-0.0146484375
-0.0018310546875
0.0205078125
-0.0238037109375
0.0164794921875
-0.016845703125
-0.006591796875
-0.003662109375
-0.017578125
0.002197265625
-0.0157470703125
0.0087890625
-0.01318359375
0.019775390625
-0.0263671875
0.031494140625
-0.018310546875
0.01904296875
-0.0029296875
-0.0029296875
0.003662109375
-0.00439453125
0.009521484375
-0.005126953125
0.0062255859375
-0.0047607421875
-0.0025634765625
-0.0029296875
-0.0029296875
-0.00146484375
0.006591796875
0.002197265625
0.015380859375
-0.0054931640625
0.0194091796875
-0.041015625
0.04541015625
-0.069580078125
-0.0076904296875
0.03662109375
-0.0465087890625
0.075439453125
-0.0025634765625
0.00732421875
0.0047607421875
0.0029296875
-0.00439453125
0.0032958984375
-0.01025390625
0.009521484375
-0.0120849609375
0.0201416015625
-0.0128173828125
0.0234375
-0.0040283203125
0.0
0.0194091796875
-0.0311279296875
0.029296875
-0.0267333984375
0.0084228515625
-0.0010986328125
0.0062255859375
0.00439453125
-0.0010986328125
0.0
-0.0029296875
0.0047607421875
0.00439453125
0.0054931640625
0.002197265625
0.0003662109375
-0.000732421875
-0.0054931640625
0.0040283203125
-0.005126953125
0.006591796875
0.003662109375
-0.0003662109375
0.0054931640625
-0.005126953125
-0.0025634765625
-0.0087890625
-0.003662109375
0.006591796875
-0.0823974609375
0.0106201171875
-0.0128173828125
-0.0076904296875
0.09814453125
-0.0157470703125
0.0263671875
-0.0087890625
0.0062255859375
-0.0234375
0.0322265625
-0.0234375
0.029296875
-0.0032958984375
0.0054931640625
-0.01318359375
0.0062255859375
-0.0010986328125
0.00146484375
0.03955078125
-0.0355224609375
0.0439453125
-0.0421142578125
0.01171875
-0.0179443359375
-0.0029296875
-0.0018310546875
0.0018310546875
0.0087890625
0.0
0.0029296875
-0.0047607421875
-0.0010986328125
-0.0040283203125
-0.002197265625
0.0032958984375
-0.0010986328125
0.0091552734375
-0.0003662109375
0.00439453125
-0.0003662109375
-0.005126953125
-0.003662109375
-0.0054931640625
-0.0029296875
-0.000732421875
0.0032958984375
-0.0003662109375
0.0010986328125
0.0054931640625
0.0003662109375
0.0172119140625
-0.0714111328125
0.0509033203125
-0.052001953125
-0.0172119140625
0.0831298828125
-0.0582275390625
0.062255859375
0.0069580078125
0.0003662109375
0.0069580078125
0.0010986328125
-0.0010986328125
-0.01171875
0.002197265625
-0.018310546875
-0.0032958984375
0.0018310546875
-0.0267333984375
0.01025390625
-0.02197265625
0.000732421875
0.0380859375
-0.017578125
0.046875
-0.0208740234375
-0.0040283203125
-0.0054931640625
-0.0377197265625
0.0040283203125
-0.0252685546875
0.003662109375
-0.005126953125
0.003662109375
-0.008056640625
0.008056640625
-0.0164794921875
0.0091552734375
-0.013916015625
0.0076904296875
0.00732421875
0.0025634765625
0.0098876953125
0.0010986328125
0.0025634765625
0.000732421875
0.005859375
-0.0428466796875
0.05859375
-0.062255859375
0.0164794921875
0.0545654296875
-0.0369873046875
0.0831298828125
-0.005859375
0.0208740234375
-0.0179443359375
0.0120849609375
-0.0150146484375
0.002197265625
-0.0084228515625
0.0084228515625
-0.005859375
0.0179443359375
-0.013916015625
0.019775390625
-0.0040283203125
-0.0069580078125
0.0347900390625
-0.0428466796875
0.03662109375
-0.0318603515625
0.0238037109375
-0.003662109375
0.005126953125
0.0
0.000732421875
-0.000732421875
0.0128173828125
0.0
0.009521484375
0.0018310546875
-0.0040283203125
-0.0018310546875
-0.0018310546875
-0.0032958984375
0.0142822265625
0.0025634765625
0.0201416015625
0.0054931640625
0.01611328125
-0.0069580078125
-0.075439453125
-0.0164794921875
-0.103271484375
-0.099609375
-0.052001953125
-0.0662841796875
-0.1197509765625
0.09521484375
-0.0849609375
0.073974609375
0.0040283203125
0.0029296875
0.0
-0.0032958984375
0.02197265625
-0.0003662109375
0.03955078125
0.009521484375
0.016845703125
0.0194091796875
-0.00146484375
0.012451171875
0.02783203125
-0.0135498046875
0.0556640625
-0.0274658203125
0.0439453125
-0.012451171875
0.0234375
0.0047607421875
0.0054931640625
0.005859375
0.0003662109375
0.00146484375
0.0018310546875
0.00439453125
-0.0003662109375
0.00732421875
0.002197265625
0.0069580078125
-0.0069580078125
0.010986328125
-0.00439453125
0.01171875
0.0069580078125
0.0062255859375
0.0084228515625
0.0029296875
0.0142822265625
-0.0303955078125
0.0516357421875
-0.052734375
0.002197265625
0.0399169921875
-0.0340576171875
0.0655517578125
0.0091552734375
0.0003662109375
0.0018310546875
0.0018310546875
-0.00146484375
0.009521484375
0.0003662109375
0.0087890625
-0.0120849609375
0.0135498046875
-0.0238037109375
0.0179443359375
-0.0003662109375
0.0025634765625
0.031494140625
-0.0281982421875
0.0296630859375
-0.02783203125
0.00439453125
-0.0054931640625
-0.00732421875
0.00146484375
-0.0029296875
0.0069580078125
0.0025634765625
0.00146484375
0.0010986328125
-0.0098876953125
-0.00146484375
-0.0084228515625
-0.0003662109375
-0.00439453125
0.0003662109375
-0.0018310546875
0.0062255859375
0.0025634765625
0.0076904296875
-0.0025634765625
-0.0025634765625
-0.0029296875
-0.008056640625
-0.0029296875
0.0384521484375
-0.10107421875
0.016845703125
0.005859375
-0.03369140625
0.110595703125
-0.0040283203125
0.00439453125
0.0142822265625
-0.0087890625
0.010986328125
-0.0040283203125
0.006591796875
0.002197265625
-0.0047607421875
0.015380859375
-0.018310546875
0.0164794921875
-0.003662109375
-0.003662109375
0.0311279296875
-0.0325927734375
0.043212890625
-0.03369140625
0.0186767578125
-0.0029296875
0.0479736328125
0.002197265625
0.075836181640625
-0.0054931640625
-0.08935546875
-0.00439453125
-0.136260986328125
0.0029296875
-0.0260009765625
0.0029296875
-0.0076904296875
-0.0040283203125
0.0018310546875
-0.003662109375
0.006591796875
0.003662109375
0.037353515625
0.0010986328125
0.07470703125
-0.097412109375
0.0684814453125
-0.0439453125
-0.052734375
0.107666015625
-0.0787353515625
0.0556640625
-0.0025634765625
-0.0029296875
-0.00439453125
0.00439453125
-0.0164794921875
0.005126953125
-0.0230712890625
0.0047607421875
-0.019775390625
0.0172119140625
-0.01171875
0.015380859375
0.01025390625
-0.01171875
0.028564453125
-0.028564453125
0.0274658203125
-0.0164794921875
0.0040283203125
-0.0010986328125
-0.0120849609375
0.005859375
-0.0113525390625
0.0098876953125
-0.00732421875
0.0029296875
-0.01611328125
-0.0076904296875
-0.016845703125
-0.0091552734375
-0.00146484375
-0.002197265625
0.005859375
0.00439453125
-0.0054931640625
0.002197265625
-0.005859375
-0.027099609375
0.0589599609375
-0.110595703125
0.0
0.0377197265625
-0.06005859375
0.1278076171875
-0.0113525390625
0.0087890625
-0.00732421875
0.0047607421875
0.0091552734375
0.0010986328125
-0.002197265625
0.0018310546875
-0.0303955078125
0.015380859375
-0.0281982421875
0.019775390625
-0.00439453125
-0.0032958984375
-0.005859375
-0.0205078125
-0.029296875
-0.01611328125
-0.0010986328125
-0.0069580078125
0.0260009765625
0.0040283203125
0.003662109375
0.0113525390625
-0.021240234375
0.009521484375
-0.0296630859375
0.01318359375
-0.018310546875
0.0164794921875
-0.027099609375
0.0245361328125
-0.0421142578125
0.0238037109375
-0.061553955078125
0.0223388671875
-0.063018798828125
0.0281982421875
-0.0216064453125
0.0087890625
0.0018310546875
-0.0029296875
0.00732421875
0.0010986328125
0.039581298828125
-0.1025390625
0.043243408203125
-0.0421142578125
-0.024932861328125
0.1025390625
-0.076202392578125
0.0322265625
-0.0179443359375
-0.0201416015625
0.074005126953125
-0.0157470703125
0.057525634765625
-0.0106201171875
0.015380859375
-0.005126953125
0.0040283203125
0.0047607421875
0.000732421875
-0.0025634765625
0.0267333984375
-0.034423828125
0.041015625
-0.0439453125
0.0355224609375
-0.0245361328125
0.03076171875
-0.01904296875
0.0135498046875
-0.008056640625
0.0069580078125
0.0047607421875
0.025634765625
-0.0029296875
0.015380859375
-0.0084228515625
-0.0010986328125
-0.0062255859375
0.0157470703125
-0.00146484375
0.0234375
0.0032958984375
0.0216064453125
-0.0010986328125
0.0098876953125
-0.00732421875
0.0091552734375
-0.0128173828125
0.071044921875
-0.0948486328125
0.027099609375
0.018310546875
-0.0406494140625
0.106201171875
-0.0069580078125
-0.003662109375
0.015380859375
-0.006591796875
0.018310546875
0.0003662109375
-0.0091552734375
0.003662109375
-0.02490234375
0.0084228515625
-0.012451171875
0.0069580078125
0.0157470703125
-0.0098876953125
0.0289306640625
-0.0369873046875
0.0263671875
-0.0340576171875
0.02197265625
-0.010986328125
0.0128173828125
0.005126953125
0.000732421875
0.0054931640625
0.0032958984375
-0.005126953125
0.0150146484375
-0.005859375
0.010986328125
-0.0029296875
-0.0098876953125
0.0040283203125
-0.010986328125
-0.00146484375
0.0029296875
-0.002197265625
0.006591796875
0.0003662109375
-0.0040283203125
-0.0018310546875
0.022705078125
-0.104034423828125
0.017578125
-0.02783203125
-0.021240234375
0.118316650390625
-0.0120849609375
0.0450439453125
-0.00439453125
0.0003662109375
0.0032958984375
0.0025634765625
0.00732421875
0.0098876953125
0.002197265625
0.0146484375
-0.021240234375
0.017578125
-0.0128173828125
0.002197265625
0.028564453125
-0.03076171875
0.03662109375
-0.029296875
0.017578125
-0.008056640625
0.008056640625
-0.005859375
0.0025634765625
-0.0032958984375
-0.00146484375
0.005126953125
-0.0040283203125
0.0025634765625
-0.0025634765625
-0.005126953125
0.0098876953125
-0.0076904296875
0.013580322265625
-0.0029296875
0.008453369140625
0.0062255859375
-0.0003662109375
-0.00146484375
0.0032958984375
-0.005859375
0.013916015625
-0.0010986328125
0.0032958984375
0.002197265625
-0.0069580078125
-0.00439453125
-0.0032958984375
-0.005859375
0.0032958984375
-0.015380859375
0.0633544921875
-0.095977783203125
-0.0018310546875
0.0205078125
-0.0655517578125
0.104400634765625
-0.003662109375
0.003662109375
-0.0018310546875
-0.000732421875
-0.010650634765625
0.0069580078125
-0.010284423828125
0.008056640625
-0.009521484375
0.01318359375
-0.02197265625
0.018310546875
-0.0135498046875
0.00439453125
0.017578125
-0.0186767578125
0.021240234375
-0.022705078125
-0.0106201171875
-0.0018310546875
-0.016845703125
0.00439453125
-0.009521484375
0.008056640625
-0.01318359375
0.00732421875
-0.0087890625
0.000732421875
-0.01025390625
0.000732421875
-0.003662109375
0.0010986328125
0.0018310546875
0.0025634765625
-0.0069580078125
0.000732421875
-0.0150146484375
-0.000732421875
-0.0106201171875
0.0018310546875
-0.005126953125
0.0029296875
-0.000732421875
-0.0025634765625
-0.00732421875
-0.0010986328125
-0.0157470703125
0.005126953125
-0.0069580078125
0.0029296875
0.0150146484375
-0.059326171875
0.064453125
-0.0721435546875
-0.0208740234375
0.0703125
-0.066650390625
0.084228515625
0.0029296875
0.005126953125
0.0029296875
-0.0032958984375
-0.0054931640625
0.0029296875
-0.0120849609375
0.01904296875
-0.0087890625
0.015380859375
-0.0106201171875
0.012451171875
-0.0076904296875
-0.0018310546875
0.01318359375
-0.022705078125
0.0205078125
-0.0194091796875
0.00732421875
-0.0032958984375
0.00439453125
0.0018310546875
0.0062255859375
-0.0032958984375
0.002197265625
0.002197265625
0.012451171875
0.000732421875
0.0238037109375
-0.0084228515625
0.0223388671875
-0.008056640625
0.0113525390625
-0.01025390625
0.00146484375
-0.009521484375
0.000732421875
-0.005126953125
-0.006591796875
-0.0054931640625
-0.012451171875
-0.0087890625
-0.005126953125
-0.0084228515625
0.0084228515625
-0.0003662109375
0.01025390625
0.0
0.006591796875
-0.010986328125
0.03662109375
-0.120880126953125
0.00439453125
-0.0186767578125
-0.03515625
0.118316650390625
-0.0076904296875
0.0186767578125
-0.00732421875
-0.0091552734375
-0.00146484375
-0.0098876953125
0.0069580078125
-0.0010986328125
-0.00732421875
0.01318359375
-0.0245361328125
0.0186767578125
-0.02783203125
0.0084228515625
0.01318359375
-0.022705078125
0.0406494140625
-0.0303955078125
0.019775390625
-0.012451171875
0.0084228515625
-0.0010986328125
-0.0087890625
0.0087890625
-0.0062255859375
0.005859375
0.00439453125
0.00146484375
0.0018310546875
0.0025634765625
0.0025634765625
0.00146484375
-0.0032958984375
0.010986328125
-0.0098876953125
0.0120849609375
-0.0164794921875
-0.0062255859375
-0.0146484375
-0.0076904296875
-0.005126953125
0.0025634765625
0.0062255859375
0.00732421875
-0.008056640625
0.0062255859375
-0.012451171875
-0.00439453125
0.0421142578125
-0.116119384765625
0.0399169921875
-0.0322265625
-0.0201416015625
0.128204345703125
-0.0267333984375
0.047607421875
0.000732421875
-0.005126953125
0.0032958984375
-0.0018310546875
-0.003662109375
0.01318359375
-0.022705078125
0.0208740234375
-0.0582275390625
0.025634765625
-0.0494384765625
0.02490234375
-0.0018310546875
-0.00439453125
0.0179443359375
-0.02197265625
-0.000732421875
-0.009521484375
-0.008056640625
0.002197265625
-0.00732421875
0.005859375
-0.01025390625
0.005859375
-0.008056640625
0.005859375
-0.017578125
0.0135498046875
-0.01904296875
0.009521484375
-0.0018310546875
0.0003662109375
0.005859375
0.005126953125
0.0025634765625
-0.0003662109375
-0.0018310546875
-0.005859375
-0.01171875
0.0040283203125
-0.0084228515625
0.0032958984375
0.0032958984375
-0.005859375
0.003662109375
-0.00439453125
0.0
-0.0032958984375
-0.0135498046875
-0.000732421875
-0.010986328125
0.0032958984375
0.022705078125
-0.087158203125
0.0655517578125
-0.0758056640625
-0.0340576171875
0.09228515625
-0.0802001953125
0.082763671875
-0.0018310546875
0.0003662109375
0.0032958984375
-0.003662109375
-0.00439453125
-0.0054931640625
-0.01904296875
0.00146484375
-0.0208740234375
0.0216064453125
-0.0091552734375
0.0142822265625
0.01025390625
-0.006591796875
0.0208740234375
-0.0234375
0.0128173828125
-0.0230712890625
0.0025634765625
0.0018310546875
0.00439453125
0.0040283203125
0.016845703125
-0.006591796875
0.0
-0.0029296875
-0.01171875
0.0025634765625
0.0069580078125
0.0029296875
0.018310546875
-0.0029296875
0.00732421875
-0.00732421875
-0.0018310546875
-0.002197265625
0.009521484375
0.0018310546875
0.013916015625
0.0003662109375
0.015380859375
0.0010986328125
0.0069580078125
-0.005126953125
-0.003662109375
0.0003662109375
0.0032958984375
0.0054931640625
0.005859375
-0.0003662109375
-0.0003662109375
-0.002197265625
0.0032958984375
-0.0025634765625
0.0230712890625
-0.09228515625
0.0289306640625
-0.03076171875
-0.006591796875
0.10400390625
-0.0267333984375
0.0421142578125
-0.01171875
0.0029296875
0.0040283203125
0.003662109375
0.006591796875
0.00146484375
-0.0087890625
0.003662109375
-0.02197265625
0.01318359375
-0.015380859375
0.019775390625
0.01171875
-0.0076904296875
0.0274658203125
-0.031494140625
0.01611328125
-0.0260009765625
-0.0025634765625
-0.0032958984375
-0.0032958984375
0.01318359375
0.00146484375
0.0062255859375
-0.002197265625
-0.000732421875
-0.006591796875
-0.00439453125
0.0003662109375
0.0
0.0106201171875
0.002197265625
0.006591796875
0.0003662109375
-0.0003662109375
-0.006591796875
-0.0087890625
-0.002197265625
0.0010986328125
0.0032958984375
0.0076904296875
0.0010986328125
0.00439453125
0.0010986328125
0.0032958984375
-0.0054931640625
-0.0029296875
0.0029296875
0.03076171875
-0.0849609375
0.056396484375
-0.0509033203125
-0.025634765625
0.099609375
-0.0589599609375
0.056396484375
-0.006591796875
-0.00146484375
-0.000732421875
0.0069580078125
-0.000732421875
0.0032958984375
0.0062255859375
0.0
-0.02490234375
0.025634765625
-0.0355224609375
0.02783203125
-0.0032958984375
-0.00732421875
0.0194091796875
-0.03515625
0.0164794921875
-0.031494140625
-0.005859375
0.0029296875
-0.0087890625
0.009521484375
-0.0032958984375
-0.003662109375
0.000732421875
0.0
-0.008056640625
0.0029296875
-0.0087890625
0.006591796875
0.003662109375
0.003662109375
0.003662109375
-0.006591796875
-0.0040283203125
-0.0054931640625
-0.0087890625
-0.000732421875
-0.0054931640625
0.0025634765625
0.000732421875
0.0025634765625
0.0135498046875
-0.0025634765625
-0.0025634765625
-0.0025634765625
-0.0128173828125
0.0029296875
0.01904296875
-0.0977783203125
0.0040283203125
-0.0274658203125
-0.0260009765625
0.1051025390625
-0.0098876953125
0.0355224609375
-0.002197265625
0.008056640625
-0.00439453125
0.000732421875
-0.006591796875
-0.0054931640625
-0.0084228515625
0.008056640625
-0.0091552734375
0.017578125
-0.0157470703125
0.0098876953125
-0.003662109375
-0.0091552734375
0.013916015625
-0.025634765625
0.01611328125
-0.0135498046875
0.008056640625
0.0010986328125
-0.0087890625
-0.0003662109375
-0.013916015625
0.0054931640625
-0.0047607421875
0.003662109375
-0.0054931640625
0.0025634765625
-0.0150146484375
0.0018310546875
-0.0040283203125
-0.0040283203125
0.003662109375
0.0025634765625
-0.000732421875
0.0047607421875
-0.0029296875
-0.0010986328125
0.0003662109375
-0.00732421875
0.0054931640625
0.0003662109375
0.0069580078125
0.0040283203125
0.0062255859375
-0.002197265625
0.0029296875
-0.0047607421875
0.0025634765625
0.00146484375
0.005126953125
0.0032958984375
0.012451171875
-0.0838623046875
0.0150146484375
-0.0201416015625
0.0010986328125
0.0897216796875
-0.003662109375
0.029296875
0.005126953125
0.002197265625
0.00439453125
0.0010986328125
0.000732421875
0.00439453125
-0.0146484375
0.005126953125
-0.0230712890625
0.0091552734375
-0.0142822265625
0.013916015625
0.018310546875
-0.0098876953125
0.037353515625
-0.0303955078125
0.012451171875
-0.015380859375
-0.0018310546875
-0.0010986328125
0.003662109375
0.002197265625
-0.0010986328125
-0.002197265625
-0.0032958984375
0.00146484375
0.0047607421875
0.006591796875
0.0091552734375
-0.0010986328125
0.0076904296875
-0.0029296875
-0.0010986328125
-0.0047607421875
0.000732421875
-0.0018310546875
0.0062255859375
0.0010986328125
0.0047607421875
0.0018310546875
0.005126953125
-0.0025634765625
0.00439453125
0.0
0.0062255859375
0.0025634765625
0.0252685546875
-0.103271484375
0.0230712890625
-0.0333251953125
-0.018310546875
0.1116943359375
-0.0216064453125
0.047607421875
0.0040283203125
0.0054931640625
0.0018310546875
0.006591796875
0.0054931640625
0.0062255859375
0.005859375
0.008056640625
-0.0194091796875
0.0172119140625
-0.0377197265625
0.01611328125
-0.0146484375
-0.008056640625
0.022705078125
-0.032958984375
0.0150146484375
-0.017578125
-0.0087890625
-0.00146484375
-0.0150146484375
-0.00439453125
-0.01025390625
0.005859375
-0.0025634765625
0.00439453125
0.0018310546875
-0.0047607421875
-0.0069580078125
-0.010986328125
-0.005859375
-0.010986328125
0.0087890625
-0.0076904296875
0.005126953125
0.00146484375
-0.0054931640625
0.0003662109375
-0.0032958984375
-0.0062255859375
0.003662109375
-0.0018310546875
0.002197265625
-0.0047607421875
-0.008056640625
-0.0047607421875
0.01611328125
-0.1072998046875
0.0252685546875
-0.031494140625
-0.0194091796875
0.1124267578125
-0.0194091796875
0.038818359375
0.0003662109375
0.0047607421875
-0.005126953125
0.008056640625
-0.0106201171875
0.000732421875
-0.0062255859375
-0.0025634765625
-0.0069580078125
0.0172119140625
-0.0164794921875
0.01611328125
-0.005859375
-0.0128173828125
0.01318359375
-0.02197265625
0.0106201171875
-0.0062255859375
-0.005126953125
0.000732421875
-0.0146484375
0.0018310546875
-0.008056640625
0.005126953125
0.003662109375
0.0010986328125
-0.00439453125
-0.000732421875
-0.0054931640625
0.0029296875
0.0146484375
-0.000732421875
0.0164794921875
-0.00439453125
-0.0029296875
0.0010986328125
0.003662109375
-0.00146484375
0.0186767578125
0.0032958984375
0.0091552734375
0.000732421875
0.0025634765625
-0.005126953125
0.0098876953125
-0.000732421875
0.015380859375
-0.0040283203125
0.013916015625
-0.0919189453125
0.025634765625
-0.02783203125
0.0069580078125
0.097412109375
-0.0146484375
0.0369873046875
-0.0054931640625
0.00146484375
-0.0018310546875
0.0040283203125
0.0010986328125
0.0018310546875
-0.01025390625
0.01025390625
-0.0186767578125
0.0194091796875
-0.0135498046875
0.015380859375
0.013916015625
-0.0087890625
0.0311279296875
-0.03515625
0.02490234375
-0.0234375
0.0238037109375
-0.000732421875
0.0201416015625
0.0054931640625
0.019775390625
-0.0054931640625
0.0164794921875
-0.0025634765625
0.0098876953125
0.003662109375
0.010986328125
-0.0076904296875
0.002197265625
-0.012451171875
-0.002197265625
-0.01171875
0.0025634765625
0.0
0.0040283203125
-0.005859375
0.0076904296875
-0.013916015625
0.0054931640625
-0.0025634765625
0.0047607421875
0.0010986328125
-0.012451171875
0.0003662109375
-0.01904296875
0.000732421875
-0.0062255859375
0.00439453125
-0.00146484375
0.0010986328125
0.015380859375
-0.108062744140625
-0.0047607421875
0.0032958984375
-0.02783203125
0.134063720703125
-0.0091552734375
0.0260009765625
-0.01025390625
0.0029296875
-0.0245361328125
0.0047607421875
-0.0384521484375
0.0087890625
-0.0538330078125
0.015380859375
-0.0439453125
0.0128173828125
-0.027099609375
0.012451171875
-0.0010986328125
-0.0098876953125
0.0062255859375
-0.03076171875
0.0010986328125
-0.0113525390625
0.0113525390625
-0.005126953125
-0.006591796875
-0.0069580078125
-0.01904296875
0.0040283203125
-0.003662109375
0.003662109375
0.0142822265625
-0.0029296875
0.0025634765625
-0.003662109375
-0.0010986328125
-0.0054931640625
0.0062255859375
-0.0018310546875
0.0091552734375
-0.0018310546875
0.00732421875
-0.0062255859375
-0.0025634765625
-0.00146484375
0.00146484375
0.0018310546875
-0.0040283203125
-0.000732421875
-0.003662109375
-0.0076904296875
0.0157470703125
-0.1036376953125
0.019775390625
-0.0201416015625
-0.0267333984375
0.1153564453125
-0.034423828125
0.03955078125
-0.0018310546875
0.0032958984375
0.0047607421875
0.005859375
0.00439453125
0.0003662109375
0.00146484375
0.00146484375
0.0003662109375
0.01171875
-0.0029296875
0.01171875
0.005859375
-0.0018310546875
0.0296630859375
-0.021240234375
0.0362548828125
-0.0194091796875
0.0223388671875
-0.006591796875
0.0091552734375
-0.003662109375
-0.0003662109375
0.0069580078125
0.0062255859375
0.00732421875
0.0069580078125
0.00146484375
-0.005859375
-0.0032958984375
-0.00439453125
-0.0032958984375
0.0084228515625
-0.0003662109375
0.0091552734375
-0.0018310546875
-0.0047607421875
0.0010986328125
0.0018310546875
-0.00146484375
0.02783203125
-0.08935546875
0.0296630859375
-0.012451171875
-0.0069580078125
0.095947265625
-0.0098876953125
0.0186767578125
0.015380859375
-0.0018310546875
0.0120849609375
-0.0018310546875
-0.006591796875
-0.0018310546875
-0.01611328125
0.00439453125
-0.0106201171875
0.009521484375
-0.0084228515625
0.002197265625
0.0179443359375
-0.034423828125
0.04248046875
-0.04833984375
0.0406494140625
-0.0267333984375
0.0208740234375
-0.0142822265625
0.0029296875
-0.0098876953125
0.009521484375
-0.0069580078125
0.01611328125
0.0029296875
0.0
-0.000732421875
-0.0172119140625
-0.005859375
-0.015380859375
-0.006591796875
-0.01025390625
-0.002197265625
-0.012451171875
0.003662109375
-0.010986328125
0.0029296875
-0.0087890625
0.0069580078125
0.0135498046875
-0.089385986328125
-0.00146484375
-0.0120849609375
-0.04248046875
0.126739501953125
-0.0234375
0.057861328125
-0.01025390625
0.022705078125
-0.03515625
0.0194091796875
-0.0545654296875
0.01171875
-0.0472412109375
0.006591796875
-0.0391845703125
0.01904296875
-0.0362548828125
0.02490234375
-0.0032958984375
-0.00732421875
0.035888671875
-0.038818359375
0.0194091796875
-0.01904296875
-0.0076904296875
0.00146484375
-0.0087890625
0.00146484375
-0.003662109375
0.0029296875
-0.012451171875
0.0003662109375
-0.012451171875
-0.0047607421875
-0.0025634765625
-0.0025634765625
-0.0018310546875
0.0029296875
0.0135498046875
-0.0032958984375
0.0106201171875
-0.0029296875
-0.00439453125
-0.0003662109375
-0.0010986328125
-0.00439453125
0.005126953125
-0.0029296875
0.01611328125
-0.0443115234375
0.0611572265625
-0.07763671875
-0.012451171875
0.0509033203125
-0.0582275390625
0.08203125
0.006591796875
-0.00146484375
0.0142822265625
0.002197265625
0.00146484375
0.0032958984375
-0.00732421875
0.0025634765625
-0.002197265625
0.0106201171875
-0.0062255859375
0.0150146484375
0.0128173828125
0.0029296875
0.022705078125
-0.019775390625
0.01904296875
-0.0263671875
0.021240234375
-0.0142822265625
0.0205078125
-0.0040283203125
0.016845703125
0.0054931640625
0.000732421875
0.00439453125
-0.000732421875
-0.00146484375
0.0040283203125
0.00146484375
0.0040283203125
-0.0047607421875
0.0040283203125
-0.0018310546875
0.0091552734375
0.002197265625
0.01318359375
-0.0040283203125
0.00146484375
-0.0025634765625
0.0098876953125
-0.000732421875
0.0208740234375
0.01025390625
0.0208740234375
0.002197265625
0.0201416015625
-0.005126953125
0.010986328125
-0.0428466796875
0.0369873046875
-0.06005859375
-0.0069580078125
0.041015625
-0.0435791015625
0.060791015625
0.0032958984375
-0.00439453125
-0.0029296875
-0.0106201171875
-0.0106201171875
-0.0032958984375
0.00732421875
0.00439453125
0.005126953125
0.0098876953125
-0.0223388671875
0.012451171875
-0.013916015625
0.0018310546875
0.0322265625
-0.032958984375
0.0362548828125
-0.0406494140625
0.0040283203125
-0.018310546875
-0.0047607421875
-0.005859375
-0.0010986328125
0.0029296875
0.0087890625
-0.00146484375
0.00146484375
-0.0054931640625
-0.005859375
-0.0040283203125
0.0069580078125
-0.0040283203125
-0.00146484375
-0.0018310546875
-0.0194091796875
0.000732421875
-0.03369140625
0.0003662109375
-0.0545654296875
-0.003662109375
-0.04248046875
-0.003662109375
-0.0040283203125
-0.079498291015625
0.0032958984375
-0.0098876953125
-0.0142822265625
0.090850830078125
-0.0106201171875
0.02490234375
0.0025634765625
0.005126953125
0.0062255859375
0.01025390625
0.032958984375
0.0128173828125
0.022705078125
0.02197265625
-0.01171875
0.03369140625
-0.0135498046875
0.0274658203125
0.0054931640625
-0.006591796875
0.0234375
-0.0208740234375
0.019775390625
0.0010986328125
0.0062255859375
0.0076904296875
-0.010986328125
0.0029296875
-0.0245361328125
0.0040283203125
-0.0322265625
0.0084228515625
-0.0234375
0.0076904296875
-0.0205078125
-0.0018310546875
-0.0380859375
-0.0003662109375
-0.0263671875
0.003662109375
-0.005859375
-0.000732421875
-0.00146484375
-0.0040283203125
-0.0040283203125
-0.009521484375
-0.0084228515625
0.00146484375
-0.00439453125
0.0076904296875
0.0040283203125
-0.0054931640625
0.0263671875
-0.087890625
0.0611572265625
-0.0728759765625
-0.01904296875
0.090087890625
-0.0589599609375
0.0791015625
-0.0032958984375
0.0
-0.0062255859375
-0.0054931640625
-0.009521484375
-0.003662109375
-0.0157470703125
0.012451171875
-0.01611328125
0.0150146484375
-0.0172119140625
0.01171875
-0.013916015625
-0.0029296875
0.01611328125
-0.0263671875
0.029296875
-0.0164794921875
0.021240234375
0.000732421875
0.01171875
-0.0040283203125
0.0054931640625
-0.005859375
0.01171875
-0.0018310546875
0.017578125
0.0025634765625
0.0260009765625
-0.0054931640625
0.005859375
-0.0069580078125
-0.002197265625
-0.002197265625
0.006591796875
0.000732421875
0.0084228515625
0.002197265625
0.005126953125
-0.0029296875
0.000732421875
-0.003662109375
0.0062255859375
-0.0029296875
0.0062255859375
0.003662109375
0.0029296875
0.0025634765625
-0.002197265625
0.0040283203125
-0.0010986328125
0.005126953125
0.0069580078125
-0.0025634765625
0.0087890625
-0.00146484375
0.0040283203125
0.0010986328125
0.006591796875
0.0054931640625
0.0172119140625
0.000732421875
0.03369140625
-0.0908203125
0.05419921875
-0.0377197265625
-0.005126953125
0.09521484375
-0.034423828125
0.044677734375
-0.010986328125
-0.0003662109375
-0.0146484375
0.0047607421875
0.00146484375
0.0047607421875
0.002197265625
0.0054931640625
-0.0223388671875
0.015380859375
-0.029296875
0.0164794921875
-0.0025634765625
0.0018310546875
0.0260009765625
-0.022705078125
0.021240234375
-0.0260009765625
-0.000732421875
-0.0069580078125
0.008056640625
-0.0010986328125
0.0047607421875
-0.003662109375
-0.010986328125
0.0025634765625
-0.0029296875
0.003662109375
0.008056640625
0.0
0.0032958984375
0.0025634765625
-0.00439453125
-0.003662109375
-0.0010986328125
-0.0076904296875
0.0098876953125
-0.0069580078125
0.010986328125
-0.0047607421875
-0.002197265625
-0.0025634765625
-0.0003662109375
-0.0003662109375
0.0128173828125
-0.006591796875
0.0062255859375
-0.0087890625
-0.009521484375
-0.0003662109375
-0.0054931640625
0.0018310546875
0.005859375
0.0010986328125
0.0076904296875
-0.005859375
-0.0032958984375
-0.005859375
-0.010986328125
0.0032958984375
-0.000732421875
0.0
0.0091552734375
-0.088623046875
0.0018310546875
-0.005859375
-0.0186767578125
0.1083984375
-0.012451171875
0.0281982421875
-0.009521484375
0.0032958984375
-0.012451171875
0.0098876953125
-0.000732421875
0.0135498046875
-0.0018310546875
0.009521484375
-0.02490234375
0.0091552734375
-0.0340576171875
0.0157470703125
-0.008056640625
-0.0025634765625
0.0208740234375
-0.0281982421875
0.0047607421875
-0.0179443359375
-0.022705078125
-0.00146484375
-0.0164794921875
-0.000732421875
-0.0142822265625
0.0029296875
-0.01171875
-0.0047607421875
-0.0120849609375
-0.0062255859375
-0.005859375
0.0032958984375
0.00439453125
0.0003662109375
0.0003662109375
-0.0003662109375
-0.0106201171875
-0.0003662109375
-0.009521484375
-0.0047607421875
0.019775390625
-0.095947265625
0.013916015625
-0.018310546875
-0.01611328125
0.099609375
-0.0142822265625
0.0274658203125
0.0032958984375
0.0029296875
0.002197265625
0.0018310546875
-0.00439453125
-0.0003662109375
-0.006591796875
0.0029296875
-0.0135498046875
0.01904296875
-0.0091552734375
0.017578125
0.0087890625
-0.010986328125
0.0186767578125
-0.0325927734375
0.008056640625
-0.01611328125
0.005126953125
0.0018310546875
0.0098876953125
0.0025634765625
0.0106201171875
0.0047607421875
0.006591796875
-0.0032958984375
0.0010986328125
-0.0062255859375
0.0032958984375
-0.00146484375
0.008056640625
0.0003662109375
0.0047607421875
-0.002197265625
0.00146484375
0.0025634765625
0.0128173828125
0.0032958984375
0.0040283203125
-0.0047607421875
-0.005126953125
-0.0062255859375
0.01904296875
-0.08935546875
0.019775390625
-0.00146484375
-0.0120849609375
0.0977783203125
-0.010986328125
0.013916015625
0.0146484375
0.0025634765625
0.008056640625
0.00439453125
-0.00439453125
0.000732421875
-0.005859375
0.006591796875
-0.0076904296875
0.019775390625
-0.006591796875
0.01611328125
0.01318359375
-0.018310546875
0.03955078125
-0.0380859375
0.02490234375
-0.0146484375
0.0029296875
-0.0018310546875
-0.0047607421875
0.0010986328125
-0.005126953125
0.0062255859375
0.0029296875
-0.0010986328125
0.00146484375
-0.0025634765625
-0.000732421875
0.0032958984375
-0.0010986328125
0.0018310546875
-0.0010986328125
0.0
-0.0010986328125
0.0003662109375
0.01171875
-0.0369873046875
0.0545654296875
-0.0618896484375
-0.0150146484375
0.040283203125
-0.0611572265625
0.069580078125
-0.005126953125
0.0076904296875
-0.002197265625
0.000732421875
-0.0069580078125
0.0032958984375
-0.008056640625
0.010986328125
-0.0084228515625
0.01171875
-0.0208740234375
0.01318359375
-0.0106201171875
0.0029296875
0.025634765625
-0.02783203125
0.03076171875
-0.029296875
0.002197265625
-0.006591796875
-0.0018310546875
0.0003662109375
0.0032958984375
0.002197265625
-0.003662109375
0.0040283203125
-0.003662109375
-0.000732421875
-0.0018310546875
-0.005126953125
0.003662109375
0.0
0.003662109375
0.000732421875
0.0018310546875
0.0
0.005126953125
-0.0029296875
0.0406494140625
-0.11279296875
0.02783203125
-0.0435791015625
-0.04248046875
0.113525390625
-0.03369140625
0.0487060546875
0.003662109375
0.002197265625
-0.00146484375
0.0018310546875
-0.0054931640625
0.00146484375
-0.0003662109375
0.0029296875
-0.01904296875
0.0201416015625
-0.0274658203125
0.0223388671875
0.0062255859375
-0.010986328125
0.0377197265625
-0.03076171875
0.021240234375
-0.0150146484375
-0.00439453125
-0.000732421875
-0.005126953125
0.000732421875
-0.005126953125
0.005126953125
-0.0062255859375
0.009521484375
-0.006591796875
0.0040283203125
-0.0018310546875
-0.00439453125
0.0029296875
-0.0040283203125
-0.0032958984375
0.0
0.0029296875
-0.002197265625
0.0421142578125
-0.1116943359375
0.030029296875
-0.044677734375
-0.0509033203125
0.1160888671875
-0.046142578125
0.0556640625
-0.0120849609375
0.005859375
-0.0289306640625
0.0040283203125
-0.024169921875
-0.00146484375
-0.0128173828125
0.0025634765625
-0.0135498046875
0.0150146484375
-0.019775390625
0.019775390625
0.0084228515625
-0.0120849609375
0.0318603515625
-0.03515625
0.015380859375
-0.0157470703125
-0.0010986328125
-0.005859375
0.006591796875
-0.00146484375
0.010986328125
0.005859375
-0.0029296875
0.0054931640625
-0.0032958984375
-0.0047607421875
0.0069580078125
-0.006591796875
0.0120849609375
0.000732421875
0.0040283203125
0.002197265625
-0.0018310546875
-0.0164794921875
0.0501708984375
-0.078369140625
0.01171875
0.0223388671875
-0.0487060546875
0.0919189453125
-0.013916015625
0.0018310546875
0.0003662109375
-0.0069580078125
0.0047607421875
0.006591796875
-0.0047607421875
0.0142822265625
-0.017578125
0.01318359375
-0.0216064453125
0.01171875
0.000732421875
0.0
0.030029296875
-0.0318603515625
0.03076171875
-0.03076171875
0.010986328125
-0.00732421875
0.00439453125
0.000732421875
-0.00732421875
0.0018310546875
-0.00732421875
0.0029296875
0.0029296875
0.0025634765625
0.005859375
-0.0010986328125
0.0047607421875
-0.0025634765625
0.0003662109375
-0.0040283203125
0.0029296875
-0.000732421875
0.0062255859375
-0.0252685546875
0.0439453125
-0.0728759765625
-0.0025634765625
0.0281982421875
-0.0501708984375
0.0838623046875
-0.0084228515625
0.005859375
0.00146484375
0.0010986328125
0.00146484375
0.005859375
-0.008056640625
0.005126953125
-0.02197265625
0.01318359375
-0.0201416015625
0.018310546875
0.0
0.0047607421875
0.0223388671875
-0.029296875
0.028564453125
-0.032958984375
0.0164794921875
-0.010986328125
-0.0029296875
0.0029296875
-0.0087890625
0.00732421875
0.008056640625
-0.002197265625
0.0087890625
-0.0018310546875
-0.00732421875
-0.000732421875
-0.005126953125
-0.0018310546875
0.002197265625
-0.00146484375
0.00732421875
-0.0003662109375
0.0
-0.0091552734375
0.03515625
-0.0911865234375
0.0087890625
0.013916015625
-0.03515625
0.0992431640625
-0.0120849609375
0.00732421875
-0.0054931640625
0.0018310546875
0.0010986328125
0.0025634765625
-0.008056640625
0.0087890625
-0.010986328125
0.0120849609375
-0.0040283203125
0.01318359375
0.0003662109375
0.0032958984375
0.0157470703125
-0.02490234375
0.0252685546875
-0.029296875
0.0135498046875
-0.005126953125
0.000732421875
0.0047607421875
-0.01171875
0.0025634765625
-0.00146484375
0.00146484375
0.0076904296875
0.000732421875
0.0047607421875
-0.0032958984375
-0.00439453125
-0.0040283203125
0.0010986328125
-0.0032958984375
0.0091552734375
-0.0025634765625
0.0157470703125
-0.0908203125
0.0142822265625
-0.0234375
-0.015380859375
0.103271484375
-0.0208740234375
0.0406494140625
-0.005126953125
-0.0054931640625
0.00732421875
0.000732421875
0.0069580078125
0.0106201171875
-0.0146484375
0.0128173828125
-0.0267333984375
0.0172119140625
-0.00732421875
0.005126953125
0.0223388671875
-0.0208740234375
0.0263671875
-0.0325927734375
0.010986328125
-0.0128173828125
0.005126953125
-0.0003662109375
0.00146484375
0.003662109375
-0.013916015625
0.0040283203125
-0.0084228515625
-0.0003662109375
0.0054931640625
0.002197265625
-0.0010986328125
0.0032958984375
-0.0047607421875
-0.0047607421875
-0.00146484375
-0.005859375
0.0223388671875
-0.0596923828125
0.062255859375
-0.0516357421875
-0.0260009765625
0.072509765625
-0.065185546875
0.06005859375
-0.0018310546875
-0.005859375
-0.0087890625
0.0029296875
-0.012451171875
0.00732421875
-0.022705078125
0.0087890625
-0.0428466796875
0.01025390625
-0.0487060546875
0.0146484375
-0.0091552734375
-0.0047607421875
0.0355224609375
-0.0322265625
0.0252685546875
-0.022705078125
0.000732421875
-0.0084228515625
0.0
-0.0029296875
0.002197265625
0.0040283203125
-0.0087890625
0.0010986328125
0.006591796875
-0.01318359375
0.0296630859375
-0.010986328125
0.0289306640625
0.0
0.01318359375
-0.003662109375
-0.021240234375
-0.00146484375
-0.01904296875
-0.000732421875
-0.0010986328125
-0.005859375
0.046142578125
-0.123809814453125
0.041748046875
-0.05126953125
-0.0340576171875
0.119781494140625
-0.0347900390625
0.046875
-0.0113525390625
-0.000732421875
-0.0128173828125
0.01171875
-0.0040283203125
0.010986328125
-0.018310546875
0.0098876953125
-0.029296875
0.019775390625
-0.013916015625
0.019775390625
0.002197265625
-0.0084228515625
0.019775390625
-0.0274658203125
0.028564453125
-0.006591796875
0.032958984375
0.013916015625
0.021240234375
0.005859375
0.0062255859375
0.00146484375
0.008056640625
0.005126953125
0.006591796875
0.00439453125
0.0032958984375
-0.000732421875
0.0047607421875
-0.0076904296875
0.005126953125
-0.002197265625
0.00439453125
0.00439453125
0.0
0.002197265625
-0.07763671875
-0.005126953125
-0.1212158203125
-0.0955810546875
-0.139923095703125
-0.043212890625
-0.178375244140625
0.112060546875
-0.1552734375
0.0567626953125
-0.1343994140625
-0.0128173828125
-0.09375
-0.015380859375
-0.064849853515625
-0.015380859375
0.003662109375
0.005126953125
0.036651611328125
0.0311279296875
0.00732421875
0.02490234375
0.03515625
-0.0120849609375
0.0626220703125
-0.02783203125
0.049072265625
-0.015380859375
0.0252685546875
-0.003662109375
0.030029296875
0.005859375
0.0267333984375
0.0120849609375
0.005859375
0.0142822265625
0.006591796875
0.009521484375
0.02783203125
0.0054931640625
0.173980712890625
0.005859375
0.160064697265625
0.0120849609375
0.0245361328125
0.005126953125
0.0201416015625
-0.0054931640625
0.05859375
-0.1058349609375
0.0435791015625
0.0069580078125
0.206207275390625
0.0765380859375
0.16259765625
-0.0626220703125
-0.051300048828125
-0.0347900390625
-0.027099609375
-0.00146484375
-0.0172119140625
0.0194091796875
-0.0076904296875
0.025634765625
-0.030029296875
0.027099609375
0.0179443359375
0.0120849609375
0.0355224609375
-0.0208740234375
0.012451171875
-0.021240234375
-0.044677734375
0.005859375
-0.046142578125
0.024169921875
-0.006591796875
0.0205078125
-0.0113525390625
0.0135498046875
0.031494140625
0.006591796875
0.0318603515625
0.043212890625
0.032958984375
0.056396484375
0.0216064453125
0.01171875
0.0146484375
-0.002197265625
0.024169921875
-0.0069580078125
-0.416046142578125
-0.006591796875
-0.395172119140625
-0.002197265625
0.00732421875
0.0003662109375
0.0091552734375
-0.052001953125
0.0655517578125
-0.0882568359375
-0.0435791015625
0.0391845703125
-0.0069580078125
0.0692138671875
0.1483154296875
-0.003662109375
0.113922119140625
0.0010986328125
0.061553955078125
-0.0029296875
0.03955078125
-0.0040283203125
0.0487060546875
0.0029296875
0.0322265625
0.0069580078125
0.132568359375
-0.009521484375
0.1658935546875
-0.03955078125
0.066680908203125
-0.03515625
0.027130126953125
-0.0091552734375
0.0054931640625
-0.0069580078125
0.0010986328125
-0.0032958984375
0.0032958984375
0.0018310546875
-0.0062255859375
-0.000732421875
-0.012451171875
-0.006591796875
-0.0040283203125
-0.0106201171875
0.0018310546875
-0.0018310546875
-0.022003173828125
0.0047607421875
-0.028228759765625
0.0003662109375
0.0
-0.005859375
0.003662109375
-0.00146484375
-0.010986328125
0.00146484375
-0.0142822265625
0.0
-0.0025634765625
0.000732421875
0.00146484375
-0.0062255859375
0.024932861328125
-0.109893798828125
-0.0179443359375
0.0032958984375
-0.048370361328125
0.114288330078125
-0.0010986328125
0.0076904296875
-0.0091552734375
0.002197265625
-0.0113525390625
-0.000732421875
-0.006591796875
0.0032958984375
-0.0120849609375
0.0146484375
-0.024169921875
0.0216064453125
-0.0238037109375
0.009521484375
0.0252685546875
-0.0260009765625
0.0615234375
-0.0391845703125
0.0355224609375
-0.0091552734375
-0.0032958984375
0.0069580078125
-0.0113525390625
0.00146484375
-0.0106201171875
-0.00146484375
-0.01025390625
-0.0018310546875
-0.010986328125
0.00439453125
-0.005126953125
0.0010986328125
-0.003662109375
-0.0069580078125
-0.0135498046875
-0.0025634765625
-0.01025390625
0.005126953125
-0.000732421875
0.0018310546875
-0.00732421875
-0.0029296875
-0.01318359375
-0.0003662109375
-0.01025390625
0.0029296875
-0.01171875
0.0029296875
0.0069580078125
-0.103668212890625
-0.0113525390625
-0.0025634765625
-0.0325927734375
0.119049072265625
-0.00439453125
0.019775390625
0.0032958984375
0.005126953125
-0.008056640625
-0.0003662109375
-0.01171875
0.005859375
-0.0098876953125
0.015380859375
-0.01611328125
0.0179443359375
-0.0135498046875
0.0091552734375
0.0047607421875
-0.0186767578125
0.021240234375
-0.0230712890625
0.018310546875
-0.00439453125
0.0054931640625
0.002197265625
-0.000732421875
0.0018310546875
-0.0084228515625
0.005859375
-0.0106201171875
-0.00146484375
-0.0047607421875
-0.0040283203125
0.00146484375
-0.00146484375
0.00439453125
0.003662109375
0.0
0.008056640625
-0.0076904296875
-0.0040283203125
-0.0003662109375
-0.0062255859375
0.008056640625
0.000732421875
0.0025634765625
0.0084228515625
-0.0128173828125
0.0040283203125
-0.0120849609375
-0.0062255859375
0.0457763671875
-0.1168212890625
0.016845703125
0.005859375
-0.038818359375
0.1300048828125
0.00439453125
0.0076904296875
0.0179443359375
-0.00146484375
0.005859375
0.0040283203125
-0.0040283203125
0.00732421875
-0.01904296875
0.010986328125
-0.0201416015625
0.01611328125
-0.00146484375
0.01318359375
0.016845703125
-0.019775390625
0.0120849609375
-0.028564453125
0.00146484375
-0.006591796875
-0.000732421875
-0.0003662109375
-0.0003662109375
-0.000732421875
-0.0106201171875
0.005126953125
-0.01171875
0.0025634765625
-0.003662109375
-0.0025634765625
-0.01318359375
-0.0010986328125
-0.01171875
-0.0040283203125
-0.0018310546875
0.000732421875
-0.003662109375
0.0003662109375
-0.0003662109375
-0.0047607421875
0.031494140625
-0.1021728515625
0.0391845703125
-0.038818359375
-0.0322265625
0.113525390625
-0.05126953125
0.052734375
-0.005126953125
-0.00439453125
0.0091552734375
0.0
0.005859375
0.0062255859375
-0.01318359375
0.0076904296875
-0.0281982421875
0.018310546875
-0.017578125
0.018310546875
0.0150146484375
-0.01171875
0.0333251953125
-0.0377197265625
0.013916015625
-0.0186767578125
0.00439453125
0.0054931640625
0.0087890625
0.0040283203125
0.0040283203125
-0.0025634765625
0.000732421875
0.0
0.000732421875
0.0025634765625
0.005126953125
-0.00146484375
0.00146484375
-0.003662109375
-0.002197265625
-0.0018310546875
0.0
0.00146484375
0.002197265625
0.0032958984375
0.005126953125
-0.00146484375
0.010986328125
-0.09521484375
0.0040283203125
-0.02197265625
-0.0142822265625
0.10693359375
-0.0120849609375
0.0380859375
-0.0113525390625
-0.00439453125
-0.01171875
-0.0032958984375
-0.0084228515625
0.009521484375
-0.0087890625
0.010986328125
-0.017578125
0.0076904296875
-0.01318359375
0.008056640625
0.01025390625
-0.012451171875
0.0186767578125
-0.031494140625
0.0142822265625
-0.01611328125
0.0087890625
-0.0040283203125
0.003662109375
0.0
-0.0128173828125
0.000732421875
-0.005126953125
-0.0029296875
0.00732421875
0.0029296875
0.0029296875
0.00439453125
-0.002197265625
-0.000732421875
-0.0010986328125
-0.006591796875
0.002197265625
-0.000732421875
0.02783203125
-0.0963134765625
0.0029296875
-0.008056640625
-0.0362548828125
0.107666015625
-0.0029296875
0.0146484375
0.00439453125
0.002197265625
-0.0054931640625
0.00146484375
-0.008056640625
0.0032958984375
-0.0091552734375
0.0120849609375
-0.01318359375
0.0157470703125
-0.0194091796875
0.0091552734375
0.0164794921875
-0.02490234375
0.0406494140625
-0.0369873046875
0.0164794921875
-0.01171875
-0.005126953125
-0.00146484375
-0.009521484375
0.0032958984375
0.0029296875
0.0047607421875
0.006591796875
-0.005126953125
0.0047607421875
-0.00439453125
0.0062255859375
0.0010986328125
0.0087890625
-0.002197265625
0.0003662109375
-0.002197265625
-0.0018310546875
-0.002197265625
0.02783203125
-0.068115234375
0.0589599609375
-0.063720703125
-0.0164794921875
0.0648193359375
-0.0673828125
0.0743408203125
-0.0172119140625
0.01611328125
0.0047607421875
-0.0003662109375
0.002197265625
-0.0010986328125
-0.0120849609375
0.005859375
-0.021240234375
0.0164794921875
-0.01611328125
0.0142822265625
0.0018310546875
-0.00732421875
0.0186767578125
-0.0296630859375
0.0179443359375
-0.02783203125
0.009521484375
-0.0047607421875
0.0040283203125
0.00439453125
-0.0047607421875
0.0047607421875
-0.0047607421875
-0.00146484375
-0.0032958984375
0.0
0.00439453125
-0.0032958984375
0.01318359375
-0.0098876953125
-0.0047607421875
-0.002197265625
-0.0142822265625
0.0062255859375
0.0252685546875
-0.104736328125
0.0142822265625
-0.022705078125
-0.02490234375
0.11279296875
-0.017578125
0.0281982421875
-0.0032958984375
0.0
0.00732421875
0.0040283203125
0.012451171875
0.005859375
-0.0098876953125
0.0040283203125
-0.0263671875
0.0146484375
-0.0025634765625
0.010986328125
0.0347900390625
-0.016845703125
0.0325927734375
-0.0260009765625
0.00732421875
-0.009521484375
0.0084228515625
-0.005126953125
0.00439453125
-0.003662109375
-0.0047607421875
0.006591796875
-0.0084228515625
0.002197265625
-0.006591796875
-0.0076904296875
-0.0047607421875
-0.0018310546875
0.01171875
0.0018310546875
0.0
0.002197265625
-0.00439453125
-0.0223388671875
0.0450439453125
-0.0791015625
-0.0003662109375
0.0230712890625
-0.0377197265625
0.085693359375
-0.0128173828125
0.01025390625
-0.0087890625
-0.0003662109375
0.005126953125
-0.00146484375
0.0032958984375
0.00732421875
-0.0172119140625
0.017578125
-0.0238037109375
0.0135498046875
-0.0018310546875
-0.0076904296875
0.02490234375
-0.0303955078125
0.034423828125
-0.0234375
-0.00146484375
0.0
-0.0113525390625
0.0003662109375
0.003662109375
0.0
0.0047607421875
0.00732421875
0.01025390625
0.00439453125
-0.00732421875
-0.003662109375
-0.009521484375
-0.0069580078125
0.00439453125
-0.00146484375
0.0062255859375
0.00439453125
0.003662109375
0.005126953125
-0.0062255859375
-0.0047607421875
0.0062255859375
-0.099609375
0.0106201171875
-0.0267333984375
-0.008056640625
0.1083984375
-0.0194091796875
0.041748046875
-0.008056640625
-0.0040283203125
-0.000732421875
0.000732421875
-0.0018310546875
0.0098876953125
-0.013916015625
0.0120849609375
-0.0208740234375
0.0120849609375
-0.010986328125
0.0087890625
0.012451171875
-0.0179443359375
0.037353515625
-0.0362548828125
0.01025390625
-0.0142822265625
-0.0084228515625
0.0025634765625
0.0
0.0029296875
-0.0003662109375
0.00146484375
0.0003662109375
0.0025634765625
-0.0054931640625
0.00146484375
-0.0018310546875
-0.0025634765625
0.003662109375
0.0003662109375
0.0040283203125
-0.000732421875
-0.0018310546875
0.0010986328125
-0.0025634765625
0.000732421875
0.0369873046875
-0.113525390625
0.02490234375
-0.0384521484375
-0.0421142578125
0.117919921875
-0.0347900390625
0.0487060546875
0.0
0.0029296875
-0.000732421875
0.005126953125
0.0
0.00732421875
-0.0062255859375
0.0069580078125
-0.0245361328125
0.018310546875
-0.0179443359375
0.015380859375
0.019775390625
-0.0194091796875
0.0347900390625
-0.0325927734375
0.01171875
-0.0076904296875
0.0
0.003662109375
0.0029296875
-0.000732421875
0.003662109375
-0.0018310546875
-0.006591796875
0.0
-0.0087890625
0.0003662109375
0.0047607421875
-0.00439453125
0.0062255859375
-0.0018310546875
-0.0003662109375
-0.002197265625
-0.0025634765625
-0.013916015625
0.0443115234375
-0.08056640625
0.003662109375
0.016845703125
-0.049072265625
0.0919189453125
-0.01171875
0.0069580078125
-0.0018310546875
0.005859375
0.002197265625
0.0003662109375
-0.0025634765625
0.003662109375
-0.0208740234375
0.013916015625
-0.02197265625
0.01904296875
0.0047607421875
0.0040283203125
0.028564453125
-0.028564453125
0.0201416015625
-0.029296875
0.00146484375
-0.008056640625
0.006591796875
0.002197265625
-0.002197265625
0.008056640625
-0.00732421875
-0.0003662109375
0.0054931640625
-0.0076904296875
0.0076904296875
0.00146484375
0.0
0.000732421875
-0.00146484375
-0.0010986328125
-0.0010986328125
0.0018310546875
0.00439453125
-0.002197265625
0.00439453125
-0.005859375
-0.006591796875
0.002197265625
-0.0029296875
0.005859375
0.006591796875
-0.002197265625
0.0054931640625
-0.0062255859375
-0.0054931640625
-0.0018310546875
-0.0054931640625
0.0025634765625
-0.0069580078125
0.0062255859375
0.0260009765625
-0.1168212890625
0.006591796875
-0.0135498046875
-0.032958984375
0.123779296875
0.0003662109375
0.0146484375
0.0003662109375
-0.003662109375
-0.0084228515625
-0.0025634765625
-0.0018310546875
0.00146484375
-0.0062255859375
0.0091552734375
-0.0164794921875
0.00732421875
-0.016845703125
0.0029296875
0.01318359375
-0.0146484375
0.03076171875
-0.0205078125
0.01025390625
-0.0113525390625
0.00439453125
-0.0098876953125
0.0047607421875
0.00439453125
-0.0010986328125
0.0029296875
-0.01025390625
-0.005126953125
-0.0010986328125
-0.0040283203125
0.0120849609375
-0.0032958984375
0.00146484375
0.00439453125
-0.009521484375
0.0098876953125
-0.0029296875
-0.00146484375
0.00732421875
-0.00439453125
-0.0029296875
-0.0047607421875
-0.00732421875
-0.0025634765625
-0.003662109375
0.005126953125
-0.0018310546875
0.003662109375
-0.009521484375
-0.0003662109375
-0.0047607421875
-0.0029296875
0.0062255859375
0.0003662109375
0.0029296875
0.002197265625
0.0186767578125
-0.0933837890625
0.047607421875
-0.0552978515625
-0.0252685546875
0.1025390625
-0.0538330078125
0.0633544921875
-0.00146484375
-0.0032958984375
-0.0069580078125
0.0003662109375
-0.0025634765625
0.005859375
0.000732421875
0.00732421875
-0.0091552734375
0.005859375
-0.01025390625
0.009521484375
-0.00146484375
0.005859375
0.017578125
-0.015380859375
0.02197265625
-0.01904296875
0.008056640625
-0.0062255859375
0.0054931640625
0.0040283203125
0.0010986328125
0.005859375
0.0025634765625
-0.00146484375
0.0010986328125
-0.0040283203125
0.0040283203125
-0.0025634765625
0.0032958984375
-0.0003662109375
-0.0040283203125
0.0032958984375
0.0010986328125
-0.002197265625
0.0047607421875
-0.002197265625
0.0029296875
0.0032958984375
-0.00439453125
-0.003662109375
-0.003662109375
-0.0889892578125
0.0113525390625
-0.0216064453125
-0.003662109375
0.10107421875
-0.010986328125
0.0311279296875
0.00146484375
-0.005126953125
0.0010986328125
0.0069580078125
-0.006591796875
0.0084228515625
-0.0150146484375
0.012451171875
-0.0135498046875
0.0172119140625
-0.01025390625
0.01318359375
0.0157470703125
-0.013916015625
0.0303955078125
-0.03369140625
0.006591796875
-0.009521484375
-0.0047607421875
0.00732421875
0.0054931640625
-0.0003662109375
0.005126953125
-0.00146484375
0.0040283203125
0.0018310546875
-0.00732421875
0.0010986328125
-0.01318359375
-0.000732421875
0.0
0.0
0.006591796875
-0.00439453125
0.0157470703125
-0.03955078125
0.0523681640625
-0.091552734375
-0.019775390625
0.041015625
-0.0604248046875
0.099609375
0.0069580078125
0.0
-0.0040283203125
0.0
-0.0128173828125
0.003662109375
-0.000732421875
0.00439453125
0.00439453125
0.00439453125
-0.0157470703125
0.0205078125
-0.0098876953125
0.00439453125
0.02490234375
-0.028564453125
0.030029296875
-0.0234375
0.019775390625
-0.0087890625
-0.005859375
0.0
-0.015380859375
-0.0003662109375
-0.00146484375
-0.0040283203125
0.0098876953125
-0.0032958984375
0.0018310546875
0.003662109375
-0.0120849609375
0.003662109375
-0.0087890625
0.0040283203125
0.0003662109375
-0.0032958984375
-0.002197265625
-0.005859375
-0.0098876953125
0.0047607421875
-0.0029296875
-0.0245361328125
0.0494384765625
-0.090087890625
0.0032958984375
0.0325927734375
-0.0516357421875
0.0966796875
-0.00732421875
0.002197265625
-0.0025634765625
0.0025634765625
0.0029296875
0.0018310546875
0.000732421875
0.0003662109375
-0.0428466796875
0.0106201171875
-0.0443115234375
0.0128173828125
0.0025634765625
0.0010986328125
0.0274658203125
-0.0186767578125
0.028564453125
-0.0238037109375
0.0106201171875
-0.008056640625
0.003662109375
0.0025634765625
-0.00439453125
-0.0003662109375
-0.0069580078125
0.0010986328125
0.008056640625
0.0003662109375
0.0120849609375
-0.0025634765625
-0.003662109375
-0.0010986328125
-0.003662109375
-0.005126953125
0.0029296875
0.0040283203125
0.0069580078125
0.00439453125
0.00146484375
-0.003662109375
-0.003662109375
0.0032958984375
0.0263671875
-0.0615234375
0.0589599609375
-0.044677734375
-0.0205078125
0.0703125
-0.0545654296875
0.047607421875
0.000732421875
0.0
-0.0010986328125
0.006591796875
-0.008056640625
0.006591796875
-0.0098876953125
0.0032958984375
-0.01025390625
0.0120849609375
-0.0172119140625
0.017578125
-0.0025634765625
0.00146484375
0.0245361328125
-0.030029296875
0.0230712890625
-0.029296875
0.0054931640625
-0.003662109375
-0.005859375
0.0047607421875
-0.000732421875
0.0032958984375
0.0062255859375
0.0003662109375
0.0040283203125
0.0010986328125
-0.00732421875
0.0003662109375
-0.0025634765625
-0.0032958984375
0.01171875
-0.002197265625
0.0025634765625
-0.0003662109375
0.002197265625
0.000732421875
-0.00146484375
0.0018310546875
-0.002197265625
0.00439453125
0.00732421875
0.00146484375
0.006591796875
0.000732421875
-0.0069580078125
0.0
0.022705078125
-0.1051025390625
0.040283203125
-0.0377197265625
-0.032958984375
0.1160888671875
-0.0439453125
0.0487060546875
-0.0076904296875
0.0003662109375
-0.0040283203125
0.006591796875
-0.0010986328125
0.005126953125
0.0010986328125
0.00439453125
-0.009521484375
0.012451171875
-0.0274658203125
0.0179443359375
-0.0018310546875
-0.0025634765625
0.0325927734375
-0.0296630859375
0.0318603515625
-0.024169921875
0.0029296875
-0.0084228515625
-0.0146484375
-0.00146484375
-0.009521484375
0.0003662109375
-0.0029296875
-0.006591796875
-0.002197265625
-0.0106201171875
-0.0150146484375
-0.0032958984375
-0.0106201171875
0.00146484375
0.00146484375
-0.000732421875
0.00146484375
-0.00146484375
-0.0040283203125
-0.000732421875
-0.0003662109375
-0.0296630859375
0.066650390625
-0.091552734375
0.0087890625
0.03662109375
-0.06005859375
0.0966796875
-0.005859375
0.0
0.0076904296875
0.0025634765625
0.018310546875
0.00439453125
0.003662109375
0.003662109375
-0.024169921875
0.0106201171875
-0.022705078125
0.021240234375
0.005126953125
-0.0025634765625
0.0194091796875
-0.0252685546875
0.005126953125
-0.016845703125
0.00146484375
-0.005126953125
0.009521484375
0.000732421875
0.008056640625
0.0018310546875
-0.0010986328125
0.0040283203125
-0.0146484375
-0.002197265625
-0.0106201171875
-0.00146484375
0.0029296875
0.0018310546875
0.005859375
0.0
0.013916015625
-0.002197265625
0.015380859375
-0.0860595703125
0.0018310546875
-0.0179443359375
-0.0098876953125
0.0911865234375
-0.005126953125
0.0274658203125
0.0054931640625
0.0040283203125
0.002197265625
0.0018310546875
-0.01318359375
0.003662109375
-0.0164794921875
0.009521484375
-0.0106201171875
0.01171875
-0.002197265625
0.01171875
0.0106201171875
-0.0146484375
0.016845703125
-0.032958984375
0.015380859375
-0.0142822265625
0.0135498046875
0.002197265625
-0.0032958984375
0.003662109375
-0.0113525390625
0.000732421875
-0.0003662109375
0.002197265625
0.0062255859375
0.002197265625
-0.002197265625
-0.0003662109375
-0.006591796875
-0.0018310546875
0.0040283203125
-0.00146484375
0.0054931640625
0.0018310546875
0.005859375
0.00439453125
0.0150146484375
-0.0670166015625
0.0450439453125
-0.0516357421875
-0.01904296875
0.0732421875
-0.046875
0.0545654296875
-0.00732421875
0.0054931640625
-0.0142822265625
0.0032958984375
-0.002197265625
0.0
0.0003662109375
0.006591796875
-0.0135498046875
0.018310546875
-0.0234375
0.01318359375
-0.0032958984375
-0.010986328125
0.031494140625
-0.0281982421875
0.025634765625
-0.01611328125
0.00146484375
-0.003662109375
0.002197265625
0.000732421875
0.00439453125
0.00439453125
-0.0069580078125
0.0018310546875
-0.0040283203125
0.0029296875
0.010986328125
-0.0025634765625
0.008056640625
-0.0003662109375
0.000732421875
-0.0040283203125
-0.00732421875
0.0018310546875
0.0029296875
0.0040283203125
0.02197265625
-0.047607421875
0.0552978515625
-0.0556640625
-0.0201416015625
0.047607421875
-0.06005859375
0.0618896484375
0.0029296875
0.00732421875
0.0025634765625
0.005859375
-0.0084228515625
0.00146484375
-0.01025390625
0.0054931640625
-0.0062255859375
0.012451171875
-0.015380859375
0.0146484375
-0.008056640625
-0.000732421875
0.027099609375
-0.0311279296875
0.0322265625
-0.0267333984375
0.005126953125
-0.003662109375
-0.0076904296875
0.0010986328125
-0.0032958984375
0.0003662109375
0.005859375
0.0010986328125
0.0032958984375
0.002197265625
-0.0032958984375
-0.000732421875
-0.0106201171875
-0.0029296875
0.0029296875
-0.0025634765625
0.0087890625
0.0
0.0
0.0003662109375
-0.0040283203125
0.0
0.0069580078125
-0.0662841796875
0.0552978515625
-0.0509033203125
-0.0157470703125
0.0780029296875
-0.062255859375
0.0611572265625
-0.0018310546875
-0.0018310546875
-0.0054931640625
-0.0032958984375
-0.0040283203125
0.0032958984375
-0.000732421875
0.012451171875
-0.009521484375
0.0164794921875
-0.01611328125
0.01171875
-0.0087890625
-0.0098876953125
0.0216064453125
-0.024169921875
0.0252685546875
-0.0186767578125
0.01025390625
-0.0040283203125
-0.002197265625
-0.0003662109375
-0.008056640625
0.0
-0.003662109375
0.0091552734375
0.0047607421875
0.0003662109375
0.012451171875
-0.00732421875
-0.005126953125
-0.0062255859375
-0.0157470703125
0.0054931640625
-0.0032958984375
0.0076904296875
0.005859375
-0.00732421875
-0.00146484375
-0.0018310546875
-0.0120849609375
0.00439453125
-0.0040283203125
0.0029296875
0.003662109375
0.0010986328125
0.0069580078125
-0.0062255859375
-0.0010986328125
-0.006591796875
-0.0120849609375
0.0025634765625
-0.0029296875
0.0029296875
0.0010986328125
0.00146484375
-0.0040283203125
-0.00439453125
-0.0047607421875
-0.005126953125
-0.01025390625
0.0076904296875
0.006591796875
-0.0933837890625
0.0142822265625
-0.0157470703125
-0.0179443359375
0.1043701171875
-0.0164794921875
0.019775390625
0.000732421875
0.0032958984375
0.0084228515625
-0.0029296875
0.005126953125
-0.0054931640625
-0.0164794921875
0.0091552734375
-0.017578125
0.016845703125
-0.005859375
0.0120849609375
0.0076904296875
-0.0062255859375
0.0157470703125
-0.0234375
0.0157470703125
-0.0150146484375
0.0157470703125
-0.000732421875
0.0128173828125
-0.0029296875
-0.0120849609375
0.0076904296875
-0.072509765625
0.0472412109375
0.0238037109375
-0.0703125
0.1072998046875
-0.1201171875
0.024169921875
0.0439453125
-0.030029296875
0.078369140625
-0.0281982421875
0.019775390625
0.000732421875
-0.0025634765625
0.0128173828125
-0.0010986328125
0.013916015625
0.0062255859375
-0.0230712890625
0.0263671875
-0.041748046875
0.0347900390625
-0.0186767578125
0.01318359375
0.0164794921875
-0.0252685546875
0.0274658203125
-0.0384521484375
0.0098876953125
-0.0142822265625
0.0040283203125
0.00146484375
0.00146484375
-0.0025634765625
0.003662109375
-0.0113525390625
-0.0029296875
0.00146484375
0.0
0.0091552734375
0.0062255859375
0.0003662109375
-0.0032958984375
0.0003662109375
-0.0076904296875
-0.0040283203125
-0.002197265625
-0.0040283203125
0.0029296875
0.002197265625
0.0029296875
0.0040283203125
0.000732421875
-0.0025634765625
-0.000732421875
-0.003662109375
-0.0010986328125
0.002197265625
0.0
0.0047607421875
-0.0025634765625
-0.0010986328125
-0.0003662109375
-0.0032958984375
0.00146484375
-0.0003662109375
0.0025634765625
-0.0029296875
0.0
-0.017578125
0.030029296875
-0.0889892578125
0.00146484375
0.02197265625
-0.0421142578125
0.10400390625
-0.010986328125
0.003662109375
0.002197265625
-0.00439453125
0.002197265625
0.003662109375
-0.003662109375
0.0069580078125
-0.0076904296875
0.008056640625
-0.0252685546875
0.0106201171875
-0.0157470703125
0.0084228515625
0.02197265625
-0.0164794921875
0.029296875
-0.028564453125
0.0040283203125
-0.0084228515625
-0.006591796875
0.0
0.0040283203125
0.00146484375
0.0029296875
0.0047607421875
0.002197265625
-0.00146484375
-0.01025390625
-0.0025634765625
-0.003662109375
-0.0018310546875
0.01171875
-0.002197265625
0.003662109375
-0.0010986328125
0.0029296875
-0.0025634765625
0.0018310546875
0.0040283203125
-0.0091552734375
0.005859375
-0.0003662109375
-0.005859375
0.006591796875
-0.005126953125
-0.002197265625
0.0040283203125
-0.003662109375
-0.0003662109375
-0.0029296875
-0.0003662109375
0.0032958984375
-0.0142822265625
0.0413818359375
-0.0926513671875
-0.0029296875
0.0172119140625
-0.0501708984375
0.1007080078125
-0.010986328125
0.010986328125
0.000732421875
0.0029296875
0.0120849609375
0.0018310546875
-0.00439453125
0.0018310546875
-0.0194091796875
0.0091552734375
-0.01171875
0.0179443359375
-0.008056640625
0.0087890625
0.008056640625
-0.01611328125
0.0223388671875
-0.027099609375
0.0179443359375
-0.0146484375
0.0047607421875
-0.0032958984375
-0.006591796875
-0.0003662109375
-0.00439453125
-0.0003662109375
0.00146484375
0.0010986328125
0.00439453125
-0.0025634765625
-0.0010986328125
-0.0003662109375
-0.006591796875
0.0040283203125
0.0003662109375
0.0018310546875
0.00439453125
0.0018310546875
0.00439453125
-0.0025634765625
-0.0047607421875
-0.0047607421875
-0.0106201171875
0.0003662109375
0.031494140625
-0.10986328125
0.032958984375
-0.0457763671875
-0.030029296875
0.1197509765625
-0.043212890625
0.0538330078125
-0.019775390625
0.000732421875
0.0
0.0018310546875
0.0062255859375
0.003662109375
-0.0084228515625
0.00732421875
-0.029296875
0.01025390625
-0.0263671875
0.0091552734375
0.0076904296875
-0.0069580078125
0.0296630859375
-0.017578125
0.0135498046875
-0.0135498046875
0.00439453125
-0.010986328125
0.010986328125
-0.0032958984375
0.0098876953125
0.00439453125
-0.01318359375
0.0032958984375
-0.0084228515625
-0.0029296875
0.018310546875
-0.005859375
0.0142822265625
0.00146484375
-0.0032958984375
0.0018310546875
-0.00439453125
-0.0025634765625
0.0098876953125
0.0010986328125
0.0098876953125
0.002197265625
-0.006591796875
0.0010986328125
-0.0062255859375
-0.002197265625
0.005126953125
-0.0003662109375
0.006591796875
0.0003662109375
0.0263671875
-0.03662109375
0.0428466796875
-0.06005859375
-0.0179443359375
0.0399169921875
-0.0391845703125
0.06591796875
0.008056640625
0.0003662109375
-0.0032958984375
0.00732421875
-0.0091552734375
0.005859375
-0.0010986328125
0.0025634765625
-0.01025390625
0.0087890625
-0.0223388671875
0.0113525390625
-0.0128173828125
0.0142822265625
0.025634765625
-0.0172119140625
0.0380859375
-0.037353515625
0.0040283203125
-0.01171875
-0.005859375
-0.000732421875
0.0018310546875
0.0054931640625
0.0054931640625
0.005126953125
-0.0062255859375
-0.003662109375
-0.005859375
-0.0018310546875
0.012451171875
-0.00146484375
0.0032958984375
0.002197265625
-0.0084228515625
-0.000732421875
-0.0128173828125
0.0003662109375
0.002197265625
-0.002197265625
0.0333251953125
-0.101806640625
0.0054931640625
0.002197265625
-0.03076171875
0.1065673828125
-0.0047607421875
0.01171875
0.00732421875
0.005126953125
-0.0040283203125
0.0003662109375
-0.0098876953125
0.0
-0.0091552734375
0.01171875
-0.01611328125
0.02197265625
-0.01904296875
0.009521484375
0.01171875
-0.0234375
0.0296630859375
-0.0274658203125
0.015380859375
-0.0087890625
0.0069580078125
-0.0076904296875
-0.0069580078125
0.0025634765625
-0.003662109375
0.0062255859375
0.00732421875
-0.0040283203125
-0.002197265625
-0.0029296875
-0.00732421875
0.0010986328125
0.0003662109375
0.0025634765625
0.005859375
-0.0010986328125
0.0040283203125
-0.0032958984375
0.0245361328125
-0.109130859375
0.0281982421875
-0.04833984375
-0.029296875
0.1171875
-0.03515625
0.0574951171875
-0.0054931640625
0.0032958984375
-0.0054931640625
0.002197265625
0.0
0.0040283203125
-0.009521484375
0.01171875
-0.0252685546875
0.0146484375
-0.0172119140625
0.0113525390625
0.01171875
-0.01611328125
0.030029296875
-0.0311279296875
0.0150146484375
-0.0135498046875
-0.0010986328125
-0.0025634765625
0.0018310546875
0.0
0.000732421875
0.005126953125
0.00146484375
0.005126953125
0.0010986328125
0.0025634765625
-0.0076904296875
-0.0018310546875
-0.000732421875
-0.0084228515625
0.0069580078125
-0.005126953125
0.0025634765625
0.000732421875
0.0263671875
-0.100341796875
0.0186767578125
-0.0384521484375
-0.02783203125
0.1083984375
-0.0260009765625
0.0516357421875
-0.00732421875
0.00732421875
0.002197265625
-0.00146484375
0.0010986328125
0.0018310546875
-0.0120849609375
0.008056640625
-0.0208740234375
0.015380859375
-0.0146484375
0.0186767578125
0.0150146484375
-0.0146484375
0.02783203125
-0.0362548828125
0.006591796875
-0.0194091796875
0.00146484375
0.0010986328125
0.0098876953125
0.0040283203125
-0.0025634765625
-0.0029296875
-0.0069580078125
-0.0003662109375
0.0003662109375
0.00146484375
0.0047607421875
0.0029296875
0.0010986328125
-0.0018310546875
-0.0069580078125
-0.0029296875
-0.002197265625
0.0029296875
0.0128173828125
-0.0234375
0.046875
-0.08349609375
-0.0084228515625
0.02783203125
-0.047607421875
0.0933837890625
-0.0018310546875
0.0
-0.0040283203125
-0.00146484375
-0.0062255859375
0.01025390625
-0.0062255859375
0.0076904296875
-0.0157470703125
0.00732421875
-0.0186767578125
0.013916015625
-0.003662109375
0.0047607421875
0.0245361328125
-0.0245361328125
0.019775390625
-0.027099609375
0.005126953125
-0.0069580078125
0.0047607421875
0.002197265625
0.0062255859375
-0.00146484375
-0.0010986328125
0.0025634765625
-0.0047607421875
0.00439453125
0.00146484375
-0.00146484375
-0.002197265625
0.000732421875
0.000732421875
-0.002197265625
0.0106201171875
-0.000732421875
0.01318359375
-0.021240234375
0.0567626953125
-0.09375
-0.010986328125
0.0267333984375
-0.064453125
0.100341796875
0.00146484375
0.006591796875
-0.0018310546875
0.0010986328125
-0.0087890625
-0.0003662109375
-0.005126953125
0.0040283203125
-0.0146484375
0.013916015625
-0.0194091796875
0.0234375
-0.0069580078125
-0.00146484375
0.019775390625
-0.0311279296875
0.025634765625
-0.02197265625
0.005126953125
-0.0054931640625
0.0
-0.0047607421875
-0.0003662109375
0.0003662109375
-0.0018310546875
0.0076904296875
0.000732421875
-0.0010986328125
0.0029296875
-0.0047607421875
-0.0018310546875
-0.0003662109375
-0.0069580078125
0.0047607421875
-0.00439453125
0.0010986328125
0.0223388671875
-0.0516357421875
0.0673828125
-0.062255859375
-0.0146484375
0.052734375
-0.0684814453125
0.0673828125
-0.000732421875
-0.00146484375
0.005859375
0.003662109375
-0.0062255859375
0.0091552734375
-0.0128173828125
0.0084228515625
-0.0128173828125
0.012451171875
-0.016845703125
0.019775390625
-0.003662109375
-0.000732421875
0.0296630859375
-0.0340576171875
0.029296875
-0.0274658203125
0.006591796875
-0.0003662109375
-0.0084228515625
0.0040283203125
-0.0032958984375
0.0010986328125
0.0054931640625
0.0032958984375
0.0010986328125
0.003662109375
0.0003662109375
-0.0062255859375
0.0018310546875
-0.0069580078125
0.0
0.0032958984375
-0.0054931640625
0.00439453125
-0.003662109375
0.0029296875
0.0087890625
-0.0047607421875
0.00146484375
-0.0032958984375
-0.0098876953125
0.00146484375
-0.002197265625
-0.000732421875
0.02783203125
-0.095947265625
0.0098876953125
-0.0106201171875
-0.0303955078125
0.1025390625
-0.0135498046875
0.018310546875
0.003662109375
0.000732421875
0.003662109375
0.002197265625
-0.0098876953125
0.0062255859375
-0.016845703125
0.0087890625
-0.013916015625
0.0120849609375
-0.0084228515625
0.0113525390625
0.0062255859375
-0.013916015625
0.0267333984375
-0.032958984375
0.024169921875
-0.017578125
0.0047607421875
0.00146484375
-0.0076904296875
0.002197265625
-0.005859375
0.000732421875
0.005859375
0.00439453125
0.0010986328125
0.005859375
-0.0087890625
-0.0025634765625
-0.0003662109375
-0.005859375
0.0091552734375
-0.0010986328125
0.00146484375
0.006591796875
-0.0076904296875
0.00439453125
0.0003662109375
-0.0091552734375
0.00732421875
-0.0010986328125
-0.002197265625
0.0047607421875
-0.0032958984375
0.0025634765625
0.0047607421875
-0.0018310546875
0.0
-0.0010986328125
-0.0076904296875
0.0010986328125
-0.0018310546875
0.0010986328125
0.005126953125
0.0
0.0018310546875
-0.00439453125
-0.005859375
0.0
-0.0018310546875
0.00439453125
0.003662109375
0.000732421875
0.0150146484375
-0.0955810546875
0.00146484375
-0.009521484375
-0.021240234375
0.1051025390625
-0.008056640625
0.018310546875
-0.0003662109375
-0.000732421875
-0.0062255859375
0.0003662109375
-0.0029296875
0.0
-0.002197265625
0.0069580078125
-0.015380859375
0.0164794921875
-0.0146484375
0.0084228515625
0.0040283203125
-0.01318359375
0.02490234375
-0.0245361328125
0.0186767578125
-0.017578125
0.0010986328125
-0.00439453125
0.00146484375
-0.0018310546875
-0.000732421875
0.003662109375
-0.0069580078125
0.00439453125
-0.0010986328125
0.0003662109375
0.00439453125
-0.00146484375
-0.0003662109375
-0.00439453125
0.0
-0.0029296875
-0.0003662109375
0.0
0.0029296875
0.0018310546875
0.0029296875
0.0
-0.00146484375
-0.0032958984375
0.0
-0.003662109375
0.0289306640625
-0.104736328125
0.016845703125
-0.0333251953125
-0.03369140625
0.1153564453125
-0.02197265625
0.046875
0.0010986328125
0.0003662109375
-0.0010986328125
-0.000732421875
-0.0003662109375
-0.00146484375
-0.0069580078125
0.0076904296875
-0.019775390625
0.02197265625
-0.0208740234375
0.0150146484375
0.00732421875
-0.0135498046875
0.0318603515625
-0.0322265625
0.0157470703125
-0.01611328125
0.005126953125
-0.002197265625
0.0047607421875
-0.0010986328125
-0.0010986328125
0.0032958984375
-0.0113525390625
0.003662109375
0.0
-0.002197265625
0.0142822265625
-0.0054931640625
0.00146484375
-0.0003662109375
-0.005859375
-0.002197265625
-0.0010986328125
-0.0025634765625
0.0003662109375
0.0018310546875
-0.003662109375
0.0010986328125
0.02783203125
-0.1051025390625
0.01025390625
-0.008056640625
-0.03076171875
0.1168212890625
-0.01318359375
0.0205078125
0.00146484375
-0.0029296875
0.003662109375
-0.0010986328125
-0.0076904296875
0.00732421875
-0.0146484375
0.0113525390625
-0.0172119140625
0.0164794921875
-0.0146484375
0.013916015625
0.0172119140625
-0.0194091796875
0.0377197265625
-0.03662109375
0.01904296875
-0.010986328125
-0.0010986328125
0.0040283203125
-0.002197265625
0.0
0.000732421875
-0.0003662109375
-0.002197265625
0.0010986328125
-0.0062255859375
0.000732421875
-0.0018310546875
0.000732421875
0.0054931640625
-0.002197265625
-0.0003662109375
-0.0018310546875
0.0
0.0010986328125
0.0267333984375
-0.0849609375
0.064453125
-0.0750732421875
-0.0289306640625
0.0911865234375
-0.0703125
0.0802001953125
-0.005859375
0.005859375
-0.000732421875
0.002197265625
-0.009521484375
-0.0018310546875
-0.0146484375
0.0054931640625
-0.0113525390625
0.0142822265625
-0.0120849609375
0.0146484375
-0.003662109375
-0.0062255859375
0.01611328125
-0.0234375
0.0274658203125
-0.016845703125
0.0040283203125
-0.006591796875
-0.005859375
-0.0003662109375
-0.0010986328125
0.0040283203125
0.0025634765625
-0.0018310546875
-0.0025634765625
-0.0032958984375
-0.0076904296875
0.00439453125
0.0029296875
0.0018310546875
0.0
-0.00439453125
0.0054931640625
-0.0421142578125
0.059326171875
-0.06884765625
-0.005859375
0.0479736328125
-0.057861328125
0.076904296875
-0.0084228515625
0.0040283203125
-0.005126953125
0.0025634765625
0.0003662109375
0.0029296875
-0.00146484375
0.0087890625
-0.0150146484375
0.0098876953125
-0.017578125
0.013916015625
0.0054931640625
-0.0003662109375
0.0322265625
-0.0238037109375
0.0201416015625
-0.02197265625
-0.0040283203125
-0.003662109375
0.0018310546875
0.000732421875
0.0054931640625
-0.00146484375
0.01171875
0.000732421875
-0.00146484375
-0.0010986328125
-0.01171875
0.0025634765625
0.005126953125
-0.0003662109375
-0.013916015625
0.022705078125
-0.0201416015625
0.0260009765625
