0.742767333984375
-0.749725341796875
0.743133544921875
-0.749725341796875
0.0003662109375
0.0
-0.0003662109375
0.0
-0.0003662109375
0.01171875
0.0
1.0
0.0003662109375
0.37579345703125
0.0003662109375
-0.60577392578125
-0.0003662109375
-0.315338134765625
0.0047607421875
-0.893310546875
0.0
1.0
-0.005126953125
0.9530029296875
0.0003662109375
0.034820556640625
0.0003662109375
-0.9295654296875
-0.0003662109375
0.0
-0.0003662109375
1.0
0.0003662109375
-0.861053466796875
-0.002197265625
0.097076416015625
0.0029296875
0.499542236328125
-1.0
-0.0029296875
-0.0032958984375
-1.0
0.0
0.002197265625
0.006591796875
0.0234375
1.0
-1.0
-1.0
-0.0234375
-0.262969970703125
0.0
1.0
0.0
0.39373779296875
0.0
-0.852264404296875
0.0
0.0018310546875
0.0
0.97021484375
0.0
-0.005126953125
0.0
-0.188995361328125
0.0
-1.0
0.178375244140625
0.188629150390625
0.0
0.33697509765625
-0.173248291015625
0.0069580078125
0.0
-0.30694580078125
1.0
0.0
0.0
0.47027587890625
-0.912322998046875
-0.0062255859375
0.0
0.998779296875
-0.45892333984375
-1.0
0.165924072265625
0.0
0.029296875
-0.318634033203125
0.925872802734375
0.0
-0.029296875
0.32342529296875
-0.409820556640625
-0.038482666015625
0.0
1.0
-0.681976318359375
-0.79217529296875
0.120147705078125
0.130401611328125
0.0040283203125
-0.173980712890625
0.313873291015625
0.0
0.0018310546875
-0.456329345703125
0.872039794921875
-0.00146484375
-0.005859375
0.964691162109375
-1.0
-0.56256103515625
0.085357666015625
0.49627685546875
-0.147613525390625
-0.705047607421875
0.61492919921875
0.0
0.02783203125
-0.230010986328125
0.69586181640625
0.0
-0.02783203125
0.40032958984375
-0.60357666015625
-0.312042236328125
0.047271728515625
0.914154052734375
-0.792572021484375
-0.842010498046875
0.69293212890625
0.184600830078125
0.0
-0.34503173828125
0.63873291015625
0.0
0.0208740234375
0.078399658203125
-0.0794677734375
-0.0322265625
-0.0208740234375
1.0
-1.0
-0.49005126953125
0.222686767578125
0.37982177734375
-0.160797119140625
-0.868377685546875
0.921844482421875
0.0
0.02783203125
-0.108428955078125
0.316436767578125
0.0
-0.02783203125
0.59844970703125
-0.73980712890625
-0.226715087890625
0.070343017578125
0.857391357421875
-0.721160888671875
-0.706512451171875
0.65667724609375
0.043243408203125
0.0
-0.56585693359375
0.67022705078125
0.0
0.0128173828125
0.153106689453125
-0.15673828125
-0.043975830078125
-0.0128173828125
1.0
-1.0
-0.533966064453125
0.41717529296875
0.272491455078125
-0.137725830078125
-0.695159912109375
0.74200439453125
0.0
0.029296875
-0.225982666015625
0.30914306640625
0.0
-0.029296875
0.709808349609375
-0.785247802734375
-0.35418701171875
0.230010986328125
0.770233154296875
-0.683074951171875
-0.78704833984375
0.840911865234375
0.01904296875
0.0
-0.35784912109375
0.386383056640625
0.0
0.01171875
0.215362548828125
-0.234375
-0.138458251953125
0.046905517578125
1.0
-1.0
-0.66912841796875
0.68121337890625
0.279449462890625
-0.175811767578125
-0.63140869140625
0.63983154296875
0.0
0.029296875
-0.060089111328125
0.0721435546875
-0.0106201171875
-0.029296875
0.889984130859375
-0.908660888671875
-0.188262939453125
0.126739501953125
0.599212646484375
-0.54315185546875
-1.0
1.0
0.0098876953125
0.0
-0.087921142578125
0.118682861328125
0.0
0.0069580078125
0.277618408203125
-0.31646728515625
-0.226715087890625
0.163360595703125
0.9112548828125
-0.934295654296875
-0.859222412109375
0.918182373046875
0.310211181640625
-0.244293212890625
-0.41314697265625
0.38970947265625
0.0
0.0296630859375
0.000732421875
-0.00146484375
-0.061553955078125
0.0010986328125
0.46990966796875
-0.45562744140625
-0.78814697265625
0.807220458984375
0.952606201171875
-1.0
-0.649383544921875
0.60833740234375
0.075836181640625
0.0
0.0
0.035552978515625
0.0
0.0146484375
0.34576416015625
-0.36114501953125
-0.32891845703125
0.254913330078125
0.74713134765625
-0.76397705078125
-0.864349365234375
0.92333984375
0.40618896484375
-0.35675048828125
-0.305816650390625
0.305450439453125
0.0
0.0263671875
0.0238037109375
-0.087921142578125
-0.038482666015625
-0.017578125
0.836883544921875
-0.808319091796875
-0.898040771484375
0.874237060546875
0.52703857421875
-0.57135009765625
-0.56256103515625
0.609466552734375
0.111358642578125
-0.03076171875
0.0
0.0032958984375
0.0
0.0146484375
0.40216064453125
-0.41864013671875
-0.319366455078125
0.255279541015625
0.941619873046875
-0.986663818359375
-1.0
1.0
0.155303955078125
-0.090484619140625
-0.148345947265625
0.193023681640625
0.0
0.0281982421875
0.148345947265625
-0.154937744140625
-0.098175048828125
0.026397705078125
0.908294677734375
-0.937225341796875
-0.74456787109375
0.79400634765625
0.44244384765625
-0.40618896484375
-0.656341552734375
0.648284912109375
0.0
0.0062255859375
0.0
0.0010986328125
0.0
-0.00439453125
0.616424560546875
-0.643524169921875
-0.46771240234375
0.42523193359375
0.78668212890625
-0.831024169921875
-0.770599365234375
0.829193115234375
0.095977783203125
-0.0234375
-0.260772705078125
0.242095947265625
0.0
0.0216064453125
0.141754150390625
-0.145416259765625
-0.210235595703125
0.137725830078125
0.972015380859375
-1.0
-0.54461669921875
0.58563232421875
0.38531494140625
-0.32269287109375
-0.744232177734375
0.753387451171875
0.0
0.0186767578125
0.025634765625
0.0
-0.060455322265625
0.029693603515625
0.704681396484375
-0.749725341796875
-0.282012939453125
0.2581787109375
0.754852294921875
-0.748626708984375
-1.0
1.0
0.013916015625
0.0
-0.117218017578125
0.121978759765625
0.0
0.013916015625
0.213897705078125
-0.213531494140625
-0.41790771484375
0.35382080078125
0.894378662109375
-0.932464599609375
-0.65447998046875
0.73138427734375
0.39080810546875
-0.34027099609375
-0.42669677734375
0.364410400390625
0.0
0.0274658203125
0.0
-0.0069580078125
-0.129302978515625
0.059722900390625
0.676849365234375
-0.65338134765625
-0.75628662109375
0.78631591796875
0.74346923828125
-0.802093505859375
-0.52264404296875
0.53326416015625
0.078765869140625
-0.0010986328125
-0.090850830078125
0.091583251953125
-0.0029296875
0.0146484375
0.249420166015625
-0.262969970703125
-0.46295166015625
0.40142822265625
0.992919921875
-1.0
-0.780487060546875
0.844207763671875
0.256744384765625
-0.194854736328125
-0.252716064453125
0.220489501953125
0.0
0.0263671875
0.067413330078125
-0.078033447265625
-0.147247314453125
0.075103759765625
0.829193115234375
-0.826629638671875
-0.71453857421875
0.75408935546875
0.60101318359375
-0.57611083984375
-0.617889404296875
0.59478759765625
0.00146484375
0.0
-0.0194091796875
0.041412353515625
-0.0010986328125
0.0062255859375
0.50433349609375
-0.51751708984375
-0.54791259765625
0.50103759765625
0.829559326171875
-0.880096435546875
-0.712005615234375
0.769134521484375
0.165191650390625
-0.094146728515625
-0.238067626953125
0.221954345703125
0.0
0.024169921875
0.134796142578125
-0.179840087890625
-0.192291259765625
0.128204345703125
0.928070068359375
-0.914886474609375
-0.802825927734375
0.852996826171875
0.43621826171875
-0.40362548828125
-0.50396728515625
0.47027587890625
0.0
0.0
0.0
-0.0003662109375
-0.0234375
0.015380859375
0.56622314453125
-0.56072998046875
-0.603240966796875
0.57354736328125
0.835052490234375
-0.9010009765625
-0.77203369140625
0.800628662109375
0.097808837890625
-0.0135498046875
-0.100372314453125
0.108795166015625
0.0
0.021240234375
0.178009033203125
-0.192657470703125
-0.32232666015625
0.254180908203125
0.933929443359375
-0.971649169921875
-0.76947021484375
0.822235107421875
0.38714599609375
-0.33404541015625
-0.40728759765625
0.40069580078125
0.0
0.0
0.0311279296875
-0.0091552734375
-0.115386962890625
0.086090087890625
0.50360107421875
-0.55377197265625
-0.803558349609375
0.807586669921875
0.843109130859375
-0.865081787109375
-0.58013916015625
0.562164306640625
0.121246337890625
-0.070343017578125
0.0
0.042510986328125
0.0
0.0205078125
0.188995361328125
-0.206939697265625
-0.41094970703125
0.33477783203125
0.972015380859375
-1.0
-0.906097412109375
0.941986083984375
0.33807373046875
-0.279449462890625
-0.182037353515625
0.201080322265625
0.0
0.0040283203125
0.039215087890625
-0.0142822265625
-0.205108642578125
0.169952392578125
0.516021728515625
-0.57135009765625
-0.64056396484375
0.66510009765625
0.898773193359375
-0.9127197265625
-0.58599853515625
0.57318115234375
0.045074462890625
0.0
-0.067413330078125
0.086090087890625
-0.013916015625
0.024169921875
0.230743408203125
-0.250152587890625
-0.54571533203125
0.49810791015625
0.944183349609375
-0.9412841796875
-0.628509521484375
0.690765380859375
0.32415771484375
-0.306915283203125
-0.310943603515625
0.278717041015625
0.0
0.0208740234375
0.047637939453125
-0.085723876953125
-0.180206298828125
0.102203369140625
0.79144287109375
-0.77130126953125
-0.795135498046875
0.833953857421875
0.638397216796875
-0.634735107421875
-0.405059814453125
0.420440673828125
0.0216064453125
0.0
-0.118682861328125
0.109893798828125
-0.0201416015625
0.0157470703125
0.41204833984375
-0.43841552734375
-0.56365966796875
0.50872802734375
0.905364990234375
-0.916351318359375
-0.708343505859375
0.772796630859375
0.181671142578125
-0.132598876953125
-0.206939697265625
0.196319580078125
0.0
0.0234375
0.140655517578125
-0.187530517578125
-0.242828369140625
0.155303955078125
0.814544677734375
-0.781951904296875
-0.808685302734375
0.857757568359375
0.54241943359375
-0.52410888671875
-0.43585205078125
0.418243408203125
0.00146484375
0.0
-0.01171875
0.022003173828125
-0.037750244140625
0.0208740234375
0.55743408203125
-0.57611083984375
-0.70465087890625
0.662933349609375
0.821868896484375
-0.847503662109375
-0.57501220703125
0.62847900390625
0.119781494140625
-0.053131103515625
-0.181671142578125
0.185699462890625
0.0
0.0208740234375
0.215728759765625
-0.266998291015625
-0.313140869140625
0.225250244140625
0.893646240234375
-0.863983154296875
-0.819671630859375
0.878997802734375
0.38970947265625
-0.36700439453125
-0.35711669921875
0.328155517578125
0.0
0.008056640625
0.0040283203125
-0.000732421875
-0.085723876953125
0.045074462890625
0.650848388671875
-0.64239501953125
-0.69512939453125
0.68707275390625
0.76251220703125
-0.795135498046875
-0.62261962890625
0.66326904296875
0.072540283203125
-0.0150146484375
-0.095611572265625
0.093414306640625
0.0
0.018310546875
0.242462158203125
-0.267364501953125
-0.43914794921875
0.35858154296875
0.9515380859375
-0.9482421875
-0.67095947265625
0.73321533203125
0.305084228515625
-0.281280517578125
-0.38897705078125
0.38238525390625
0.0
0.006591796875
0.035186767578125
-0.077667236328125
-0.127471923828125
0.072540283203125
0.72222900390625
-0.69769287109375
-0.773895263671875
0.79217529296875
0.69732666015625
-0.717132568359375
-0.501007080078125
0.53399658203125
0.044342041015625
0.0
-0.096710205078125
0.088287353515625
-0.0146484375
0.0234375
0.33551025390625
-0.36993408203125
-0.49224853515625
0.42193603515625
0.917449951171875
-0.903900146484375
-0.740203857421875
0.804656982421875
0.246124267578125
-0.219757080078125
-0.251983642578125
0.236602783203125
0.0
0.017578125
0.082427978515625
-0.113922119140625
-0.227813720703125
0.149444580078125
0.77532958984375
-0.75701904296875
-0.745697021484375
0.785614013671875
0.619354248046875
-0.615692138671875
-0.462921142578125
0.476104736328125
0.02197265625
0.0
-0.062652587890625
0.056793212890625
-0.0281982421875
0.025634765625
0.45196533203125
-0.46844482421875
-0.642425537109375
0.597381591796875
0.843475341796875
-0.814544677734375
-0.58966064453125
0.66070556640625
0.203643798828125
-0.202545166015625
-0.238800048828125
0.212066650390625
0.0
0.0150146484375
0.123077392578125
-0.157501220703125
-0.282012939453125
0.212432861328125
0.819671630859375
-0.784515380859375
-0.840545654296875
0.900238037109375
0.54022216796875
-0.55377197265625
-0.312042236328125
0.302154541015625
0.01611328125
0.0
-0.064483642578125
0.054229736328125
-0.059722900390625
0.048736572265625
0.37652587890625
-0.38018798828125
-0.65338134765625
0.64605712890625
0.912689208984375
-0.900970458984375
-0.63214111328125
0.66766357421875
0.209869384765625
-0.202911376953125
-0.153839111328125
0.133697509765625
0.0
0.024169921875
0.120147705078125
-0.138458251953125
-0.34429931640625
0.275054931640625
0.477935791015625
-0.47064208984375
-0.915252685546875
0.9537353515625
0.847137451171875
-0.857391357421875
-0.239532470703125
0.245391845703125
0.053863525390625
-0.0296630859375
0.0
-0.0003662109375
-0.0245361328125
0.02197265625
0.45709228515625
-0.45562744140625
-0.817108154296875
0.782318115234375
0.71087646484375
-0.71856689453125
-0.657440185546875
0.64825439453125
0.33111572265625
-0.32379150390625
0.0
0.045806884765625
0.0
0.0164794921875
0.156768798828125
-0.194122314453125
-0.252716064453125
0.173980712890625
0.817840576171875
-0.788543701171875
-1.0
1.0
0.473175048828125
-0.51568603515625
-0.129669189453125
0.198150634765625
0.051300048828125
0.0
0.039581298828125
-0.033721923828125
-0.062652587890625
0.046905517578125
0.530303955078125
-0.57391357421875
-0.68817138671875
0.66217041015625
0.812347412109375
-0.79876708984375
-0.748260498046875
0.788543701171875
0.116851806640625
-0.091949462890625
0.000732421875
0.000732421875
0.0
0.019775390625
0.235137939453125
-0.269195556640625
-0.33148193359375
0.251251220703125
0.853729248046875
-0.851165771484375
-0.853363037109375
0.901702880859375
0.40948486328125
-0.37799072265625
-0.314239501953125
0.32562255859375
0.0
0.0
0.031494140625
-0.0113525390625
-0.057525634765625
0.044342041015625
0.718597412109375
-0.791839599609375
-0.73504638671875
0.69659423828125
0.69293212890625
-0.695159912109375
-0.697357177734375
0.69952392578125
0.056060791015625
0.0
-0.000732421875
0.057891845703125
-0.0245361328125
0.03076171875
0.217559814453125
-0.272857666015625
-0.48785400390625
0.42047119140625
1.0
-1.0
-0.843841552734375
0.867279052734375
0.265533447265625
-0.220123291015625
-0.142852783203125
0.179840087890625
0.0
0.0186767578125
0.062286376953125
-0.063751220703125
-0.263336181640625
0.190460205078125
0.65301513671875
-0.71783447265625
-0.756317138671875
0.784515380859375
0.771331787109375
-0.716766357421875
-0.47943115234375
0.49591064453125
0.012451171875
0.0
0.0
0.0087890625
-0.039947509765625
0.0325927734375
0.32672119140625
-0.37579345703125
-0.66546630859375
0.620086669921875
0.883026123046875
-0.878631591796875
-0.65301513671875
0.69036865234375
0.289337158203125
-0.243927001953125
-0.140655517578125
0.155303955078125
0.0
0.0234375
0.089019775390625
-0.113922119140625
-0.315338134765625
0.236602783203125
0.76361083984375
-0.783050537109375
-0.8837890625
0.918548583984375
0.639495849609375
-0.60137939453125
-0.299957275390625
0.30914306640625
0.0069580078125
0.0
0.0062255859375
-0.0010986328125
-0.099639892578125
0.067413330078125
0.45233154296875
-0.49407958984375
-0.72882080078125
0.70758056640625
0.856658935546875
-0.845306396484375
-0.649017333984375
0.65850830078125
0.183868408203125
-0.147247314453125
-0.0216064453125
0.064849853515625
0.0
0.0234375
0.153839111328125
-0.188262939453125
-0.42816162109375
0.33258056640625
0.834320068359375
-0.848968505859375
-0.824432373046875
0.868011474609375
0.51092529296875
-0.46112060546875
-0.246490478515625
0.274322509765625
0.0
0.0029296875
0.01318359375
-0.0296630859375
-0.088287353515625
0.048736572265625
0.598480224609375
-0.624847412109375
-0.859954833984375
0.847503662109375
0.75518798828125
-0.77606201171875
-0.54168701171875
0.544586181640625
0.132232666015625
-0.067779541015625
-0.0091552734375
0.054595947265625
-0.0029296875
0.0234375
0.237335205078125
-0.282012939453125
-0.42156982421875
0.33258056640625
0.881195068359375
-0.860687255859375
-0.897308349609375
0.946746826171875
0.38055419921875
-0.35565185546875
-0.177276611328125
0.195587158203125
0.0
0.01171875
0.049102783203125
-0.061187744140625
-0.152374267578125
0.095245361328125
0.66693115234375
-0.68853759765625
-0.751190185546875
0.76361083984375
0.71636962890625
-0.722259521484375
-0.59552001953125
0.627777099609375
0.066680908203125
-0.0263671875
0.0
0.0
-0.0029296875
0.0186767578125
0.295196533203125
-0.33880615234375
-0.56768798828125
0.48968505859375
0.909423828125
-0.898773193359375
-0.702850341796875
0.753387451171875
0.294464111328125
-0.260772705078125
-0.225616455078125
0.236602783203125
0.0
0.0186767578125
0.062652587890625
-0.078033447265625
-0.185333251953125
0.117584228515625
0.68011474609375
-0.70391845703125
-0.918914794921875
0.947113037109375
0.71380615234375
-0.716400146484375
-0.39483642578125
0.39593505859375
0.042510986328125
0.0
0.0
0.0186767578125
-0.050933837890625
0.043975830078125
0.36041259765625
-0.40472412109375
-0.551177978515625
0.508331298828125
0.906829833984375
-0.885955810546875
-0.737274169921875
0.781951904296875
0.231842041015625
-0.207305908203125
-0.159698486328125
0.164093017578125
0.0
0.018310546875
0.107696533203125
-0.127838134765625
-0.303619384765625
0.224884033203125
0.74127197265625
-0.76324462890625
-0.703216552734375
0.751922607421875
0.643524169921875
-0.607269287109375
-0.48565673828125
0.462554931640625
0.006591796875
0.0
-0.006591796875
0.036651611328125
-0.067779541015625
0.048370361328125
0.42376708984375
-0.47064208984375
-0.66839599609375
0.63031005859375
0.835052490234375
-0.834686279296875
-0.59808349609375
0.64276123046875
0.240264892578125
-0.188995361328125
-0.164825439453125
0.174713134765625
-0.0076904296875
0.0238037109375
0.108795166015625
-0.142852783203125
-0.36260986328125
0.269195556640625
0.77789306640625
-0.787445068359375
-0.80572509765625
0.853729248046875
0.578338623046875
-0.56585693359375
-0.287872314453125
0.277252197265625
0.0340576171875
0.00146484375
-0.035186767578125
0.051300048828125
-0.140289306640625
0.088287353515625
0.44134521484375
-0.46661376953125
-0.68121337890625
0.67498779296875
0.812713623046875
-0.796234130859375
-0.62445068359375
0.64642333984375
0.245025634765625
-0.212432861328125
-0.053131103515625
0.069244384765625
0.0
0.0205078125
0.175811767578125
-0.197418212890625
-0.48822021484375
0.38568115234375
0.738739013671875
-0.728118896484375
-0.723358154296875
0.785247802734375
0.55816650390625
-0.55487060546875
-0.287506103515625
0.301055908203125
0.0263671875
0.0
0.0
-0.037017822265625
-0.136260986328125
0.094146728515625
0.618988037109375
-0.60906982421875
-0.788177490234375
0.77972412109375
0.72991943359375
-0.74310302734375
-0.54168701171875
0.55084228515625
0.150177001953125
-0.103302001953125
-0.032958984375
0.073638916015625
-0.010986328125
0.02197265625
0.240264892578125
-0.279449462890625
-0.50030517578125
0.41241455078125
0.845306396484375
-0.821868896484375
-0.794036865234375
0.846038818359375
0.40289306640625
-0.39703369140625
-0.193756103515625
0.214996337890625
0.0106201171875
0.0
0.043975830078125
-0.065216064453125
-0.193756103515625
0.140655517578125
0.68670654296875
-0.69146728515625
-0.728485107421875
0.74346923828125
0.65045166015625
-0.63323974609375
-0.57684326171875
0.581634521484375
0.117950439453125
-0.105499267578125
0.0
0.0325927734375
-0.0186767578125
0.0216064453125
0.33111572265625
-0.37066650390625
-0.57940673828125
0.50726318359375
0.84417724609375
-0.825897216796875
-0.686737060546875
0.739837646484375
0.31976318359375
-0.301788330078125
-0.214263916015625
0.229644775390625
0.0040283203125
0.002197265625
0.062286376953125
-0.091217041015625
-0.217926025390625
0.161895751953125
0.75079345703125
-0.75189208984375
-0.812347412109375
0.828094482421875
0.60870361328125
-0.61383056640625
-0.46295166015625
0.453765869140625
0.077301025390625
-0.041412353515625
-0.005859375
0.052398681640625
-0.080596923828125
0.056793212890625
0.35272216796875
-0.39520263671875
-0.54315185546875
0.506500244140625
0.884857177734375
-0.862884521484375
-0.73468017578125
0.773529052734375
0.261505126953125
-0.240264892578125
-0.140655517578125
0.161529541015625
-0.0062255859375
0.0
0.091217041015625
-0.116851806640625
-0.33551025390625
0.275421142578125
0.79180908203125
-0.810150146484375
-0.69622802734375
0.731048583984375
0.57830810546875
-0.57135009765625
-0.46038818359375
0.442779541015625
0.037750244140625
0.0
-0.000732421875
0.043975830078125
-0.103302001953125
0.064483642578125
0.44903564453125
-0.48419189453125
-0.66619873046875
0.64715576171875
0.824066162109375
-0.833221435546875
-0.56549072265625
0.60174560546875
0.225982666015625
-0.175811767578125
-0.164093017578125
0.183135986328125
-0.01611328125
0.015380859375
0.126373291015625
-0.165557861328125
-0.38311767578125
0.31463623046875
0.797698974609375
-0.777923583984375
-0.74200439453125
0.78924560546875
0.54425048828125
-0.55303955078125
-0.35784912109375
0.327056884765625
0.03076171875
0.0
0.0
0.030059814453125
-0.176177978515625
0.123077392578125
0.54498291015625
-0.55194091796875
-0.64898681640625
0.65447998046875
0.745330810546875
-0.718597412109375
-0.58746337890625
0.61309814453125
0.208770751953125
-0.205841064453125
-0.086456298828125
0.106597900390625
-0.012451171875
0.013916015625
0.171417236328125
-0.210235595703125
-0.50177001953125
0.42742919921875
0.813079833984375
-0.781219482421875
-0.686004638671875
0.744964599609375
0.49041748046875
-0.50579833984375
-0.298858642578125
0.281646728515625
0.024169921875
0.0
0.0
-0.006256103515625
-0.165557861328125
0.115020751953125
0.57720947265625
-0.565093994140625
-0.779388427734375
0.787445068359375
0.761077880859375
-0.740570068359375
-0.482696533203125
0.496978759765625
0.160797119140625
-0.156036376953125
-0.071441650390625
0.098907470703125
-0.03076171875
0.021240234375
0.220489501953125
-0.261138916015625
-0.48492431640625
0.43402099609375
0.811614990234375
-0.765472412109375
-0.744598388671875
0.794036865234375
0.45306396484375
-0.47174072265625
-0.238800048828125
0.236236572265625
0.013916015625
0.0
0.02490234375
-0.040679931640625
-0.208404541015625
0.156402587890625
0.660736083984375
-0.64422607421875
-0.755218505859375
0.774261474609375
0.61529541015625
-0.59478759765625
-0.50872802734375
0.502471923828125
0.198150634765625
-0.205841064453125
-0.0267333984375
0.065216064453125
-0.0311279296875
0.0208740234375
0.276153564453125
-0.314605712890625
-0.56549072265625
0.51824951171875
0.847137451171875
-0.805389404296875
-0.676849365234375
0.721893310546875
0.338775634765625
-0.37542724609375
-0.225616455078125
0.231475830078125
0.037017822265625
-0.0029296875
0.039581298828125
-0.063751220703125
-0.224151611328125
0.168853759765625
0.68304443359375
-0.66839599609375
-0.782684326171875
0.813446044921875
0.68743896484375
-0.68157958984375
-0.48419189453125
0.458526611328125
0.089019775390625
-0.078765869140625
-0.008056640625
0.057525634765625
-0.074371337890625
0.048370361328125
0.32379150390625
-0.35418701171875
-0.53912353515625
0.517852783203125
0.83795166015625
-0.79437255859375
-0.69952392578125
0.743133544921875
0.33697509765625
-0.34979248046875
-0.186065673828125
0.188995361328125
0.0003662109375
0.0
0.067047119140625
-0.089019775390625
-0.302886962890625
0.242828369140625
0.72882080078125
-0.72332763671875
-0.741302490234375
0.783050537109375
0.62005615234375
-0.60211181640625
-0.43438720703125
0.418609619140625
0.083160400390625
-0.083892822265625
-0.0205078125
0.053131103515625
-0.086456298828125
0.050567626953125
0.36407470703125
-0.39739990234375
-0.64129638671875
0.63507080078125
0.874237060546875
-0.845306396484375
-0.60723876953125
0.63690185546875
0.260772705078125
-0.254913330078125
-0.164093017578125
0.175445556640625
-0.00439453125
0.0010986328125
0.085357666015625
-0.115386962890625
-0.35345458984375
0.303619384765625
0.75115966796875
-0.72772216796875
-0.74859619140625
0.793670654296875
0.61456298828125
-0.646820068359375
-0.39263916015625
0.358551025390625
0.048004150390625
-0.008056640625
0.0
0.030792236328125
-0.138092041015625
0.098541259765625
0.43585205078125
-0.44976806640625
-0.62628173828125
0.63177490234375
0.800628662109375
-0.763275146484375
-0.58636474609375
0.61419677734375
0.262603759765625
-0.274688720703125
-0.148345947265625
0.153106689453125
-0.005126953125
0.00439453125
0.112823486328125
-0.131500244140625
-0.46771240234375
0.40692138671875
0.807586669921875
-0.785614013671875
-0.66473388671875
0.72039794921875
0.507598876953125
-0.520416259765625
-0.35711669921875
0.317901611328125
0.071075439453125
-0.060089111328125
-0.00439453125
0.024200439453125
-0.133697509765625
0.095245361328125
0.45819091796875
-0.46075439453125
-0.761810302734375
0.76654052734375
0.818572998046875
-0.778656005859375
-0.514190673828125
0.53070068359375
0.222320556640625
-0.234405517578125
-0.089385986328125
0.089385986328125
-0.0142822265625
0.0120849609375
0.172882080078125
-0.194488525390625
-0.44537353515625
0.39300537109375
0.748626708984375
-0.703582763671875
-0.777923583984375
0.828460693359375
0.54388427734375
-0.56915283203125
-0.261505126953125
0.249053955078125
0.03369140625
-0.0146484375
0.0091552734375
-0.027130126953125
-0.179107666015625
0.135162353515625
0.57318115234375
-0.554473876953125
-0.716400146484375
0.73797607421875
0.684173583984375
-0.653045654296875
-0.532501220703125
0.54351806640625
0.232574462890625
-0.247955322265625
-0.071075439453125
0.081695556640625
-0.0186767578125
0.0087890625
0.228546142578125
-0.264434814453125
-0.51129150390625
0.47027587890625
0.831024169921875
-0.781585693359375
-0.758148193359375
0.794403076171875
0.379425048828125
-0.413848876953125
-0.210968017578125
0.212432861328125
0.060089111328125
-0.038482666015625
0.0263671875
-0.046905517578125
-0.199981689453125
0.152374267578125
0.614593505859375
-0.59698486328125
-0.750823974609375
0.778289794921875
0.71453857421875
-0.69256591796875
-0.54168701171875
0.516387939453125
0.130035400390625
-0.149444580078125
-0.006591796875
0.051300048828125
-0.032623291015625
0.027099609375
0.289337158203125
-0.32305908203125
-0.503570556640625
0.47174072265625
0.813079833984375
-0.76654052734375
-0.728851318359375
0.790008544921875
0.38275146484375
-0.40875244140625
-0.220489501953125
0.208770751953125
0.013916015625
0.0
0.052764892578125
-0.076568603515625
-0.276885986328125
0.225982666015625
0.70611572265625
-0.68853759765625
-0.710906982421875
0.750457763671875
0.61492919921875
-0.60028076171875
-0.463287353515625
0.468048095703125
0.125274658203125
-0.132232666015625
-0.048004150390625
0.053497314453125
-0.060455322265625
0.0267333984375
0.32855224609375
-0.36260986328125
-0.61236572265625
0.602874755859375
0.865447998046875
-0.821868896484375
-0.61968994140625
0.67498779296875
0.287139892578125
-0.313507080078125
-0.206573486328125
0.184234619140625
0.017578125
0.0
0.073638916015625
-0.094512939453125
-0.312774658203125
0.265899658203125
0.72918701171875
-0.70281982421875
-0.743865966796875
0.783782958984375
0.62188720703125
-0.63104248046875
-0.41864013671875
0.405426025390625
0.074371337890625
-0.060455322265625
-0.0234375
0.035186767578125
-0.095977783203125
0.062286376953125
0.37542724609375
-0.40032958984375
-0.63690185546875
0.63653564453125
0.79217529296875
-0.75299072265625
-0.55230712890625
0.59991455078125
0.33148193359375
-0.33697509765625
-0.213897705078125
0.191558837890625
-0.00439453125
0.0
0.106231689453125
-0.136260986328125
-0.40179443359375
0.35601806640625
0.74163818359375
-0.70831298828125
-0.70538330078125
0.75189208984375
0.55084228515625
-0.56182861328125
-0.299224853515625
0.287506103515625
0.100372314453125
-0.083892822265625
-0.088287353515625
0.082427978515625
-0.102569580078125
0.067779541015625
0.43402099609375
-0.44281005859375
-0.72479248046875
0.72735595703125
0.791107177734375
-0.758880615234375
-0.52227783203125
0.55926513671875
0.256378173828125
-0.276153564453125
-0.149444580078125
0.095947265625
0.010986328125
0.005859375
0.152374267578125
-0.1453857421875
-0.40325927734375
0.34979248046875
0.66510009765625
-0.61309814453125
-0.76434326171875
0.81781005859375
0.61492919921875
-0.65191650390625
-0.288238525390625
0.268463134765625
0.065582275390625
-0.039947509765625
-0.036651611328125
0.0098876953125
-0.145782470703125
0.107696533203125
0.53985595703125
-0.516021728515625
-0.70318603515625
0.70904541015625
0.668060302734375
-0.642059326171875
-0.52850341796875
0.56475830078125
0.279449462890625
-0.293731689453125
-0.120513916015625
0.111724853515625
-0.0029296875
0.0
0.195220947265625
-0.233306884765625
-0.46478271484375
0.42706298828125
0.772064208984375
-0.727386474609375
-0.731048583984375
0.780487060546875
0.435455322265625
-0.459625244140625
-0.275421142578125
0.251953125
0.096343994140625
-0.072906494140625
0.00146484375
-0.0128173828125
-0.164459228515625
0.121246337890625
0.58087158203125
-0.56329345703125
-0.744598388671875
0.76617431640625
0.714935302734375
-0.69476318359375
-0.514923095703125
0.52886962890625
0.173248291015625
-0.188629150390625
-0.075103759765625
0.071807861328125
-0.0142822265625
0.009521484375
0.260772705078125
-0.287506103515625
-0.49078369140625
0.46551513671875
0.775726318359375
-0.727752685546875
-0.679046630859375
0.733612060546875
0.402862548828125
-0.44793701171875
-0.299591064453125
0.280548095703125
0.059722900390625
-0.02490234375
0.0281982421875
-0.059356689453125
-0.233306884765625
0.183135986328125
0.634002685546875
-0.61456298828125
-0.716400146484375
0.750091552734375
0.65997314453125
-0.64276123046875
-0.459991455078125
0.480865478515625
0.170684814453125
-0.172515869140625
-0.089385986328125
0.084259033203125
-0.042144775390625
0.005859375
0.261138916015625
-0.296295166015625
-0.55889892578125
0.56256103515625
0.867645263671875
-0.826995849609375
-0.63616943359375
0.680877685546875
0.324493408203125
-0.37506103515625
-0.255645751953125
0.226348876953125
0.045806884765625
0.0
0.052764892578125
-0.061920166015625
-0.264434814453125
0.215362548828125
0.62115478515625
-0.60797119140625
-0.736541748046875
0.777191162109375
0.70574951171875
-0.69915771484375
-0.441314697265625
0.447906494140625
0.113922119140625
-0.106597900390625
-0.056793212890625
0.053131103515625
-0.060455322265625
0.037017822265625
0.310577392578125
-0.33843994140625
-0.60101318359375
0.59661865234375
0.770965576171875
-0.73834228515625
-0.59771728515625
0.64129638671875
0.40106201171875
-0.41680908203125
-0.234405517578125
0.223052978515625
0.013916015625
0.0
0.051666259765625
-0.074737548828125
-0.32818603515625
0.285675048828125
0.66876220703125
-0.65924072265625
-0.75518798828125
0.802459716796875
0.63177490234375
-0.62554931640625
-0.336212158203125
0.331817626953125
0.146881103515625
-0.138458251953125
-0.076934814453125
0.071075439453125
-0.094879150390625
0.054229736328125
0.286041259765625
-0.31317138671875
-0.66436767578125
0.68011474609375
0.845672607421875
-0.80865478515625
-0.57098388671875
0.60174560546875
0.33551025390625
-0.36920166015625
-0.165924072265625
0.1146240234375
0.027099609375
0.0
0.092681884765625
-0.0823974609375
-0.36114501953125
0.316436767578125
0.62628173828125
-0.59881591796875
-0.77239990234375
0.825164794921875
0.65740966796875
-0.65814208984375
-0.34063720703125
0.316070556640625
0.119781494140625
-0.111358642578125
-0.0201416015625
0.00146484375
-0.108428955078125
0.075103759765625
0.43365478515625
-0.423004150390625
-0.65997314453125
0.65960693359375
0.70611572265625
-0.67279052734375
-0.57720947265625
0.61639404296875
0.33697509765625
-0.36334228515625
-0.153472900390625
0.146881103515625
0.0106201171875
0.0
0.117584228515625
-0.165557861328125
-0.39739990234375
0.35638427734375
0.76617431640625
-0.72003173828125
-0.790740966796875
0.822967529296875
0.48748779296875
-0.49224853515625
-0.287506103515625
0.2786865234375
0.127838134765625
-0.120147705078125
-0.01171875
0.015045166015625
-0.143585205078125
0.095611572265625
0.46514892578125
-0.46917724609375
-0.68011474609375
0.69183349609375
0.778656005859375
-0.753021240234375
-0.61346435546875
0.61053466796875
0.221588134765625
-0.250885009765625
-0.061920166015625
0.091949462890625
0.013916015625
0.0
0.179840087890625
-0.208770751953125
-0.42596435546875
0.39337158203125
0.736907958984375
-0.704681396484375
-0.72515869140625
0.77130126953125
0.502471923828125
-0.520782470703125
-0.32818603515625
0.32598876953125
0.075836181640625
-0.055694580078125
0.0
-0.022705078125
-0.172515869140625
0.130401611328125
0.57464599609375
-0.57427978515625
-0.68853759765625
0.70465087890625
0.679412841796875
-0.647552490234375
-0.51275634765625
0.53619384765625
0.230377197265625
-0.246124267578125
-0.121246337890625
0.127105712890625
-0.0150146484375
0.0
0.176177978515625
-0.214996337890625
-0.48968505859375
0.46990966796875
0.848602294921875
-0.812347412109375
-0.675018310546875
0.722259521484375
0.405059814453125
-0.433624267578125
-0.304718017578125
0.292999267578125
0.069244384765625
-0.037384033203125
0.0157470703125
-0.029327392578125
-0.210968017578125
0.158233642578125
0.53509521484375
-0.535797119140625
-0.709075927734375
0.741668701171875
0.777557373046875
-0.744232177734375
-0.476470947265625
0.489288330078125
0.159332275390625
-0.175811767578125
-0.102569580078125
0.105865478515625
-0.037384033203125
0.01318359375
0.219024658203125
-0.252349853515625
-0.528839111328125
0.52117919921875
0.789276123046875
-0.750091552734375
-0.603607177734375
0.647918701171875
0.451202392578125
-0.48675537109375
-0.317901611328125
0.297393798828125
0.039581298828125
-0.005859375
0.0010986328125
-0.016876220703125
-0.278717041015625
0.226348876953125
0.629241943359375
-0.61566162109375
-0.688201904296875
0.728118896484375
0.69293212890625
-0.66253662109375
-0.393707275390625
0.399566650390625
0.171783447265625
-0.184600830078125
-0.138458251953125
0.144317626953125
-0.064117431640625
0.029296875
0.214630126953125
-0.245391845703125
-0.58123779296875
0.580169677734375
0.847503662109375
-0.811248779296875
-0.62005615234375
0.65850830078125
0.393707275390625
-0.42413330078125
-0.215728759765625
0.17138671875
0.039947509765625
-0.017578125
0.021636962890625
-0.01611328125
-0.312042236328125
0.255279541015625
0.568389892578125
-0.529205322265625
-0.722259521484375
0.770965576171875
0.750091552734375
-0.741668701171875
-0.389312744140625
0.381988525390625
0.137359619140625
-0.152374267578125
-0.072174072265625
0.071441650390625
-0.086456298828125
0.052764892578125
0.316436767578125
-0.33258056640625
-0.61456298828125
0.61053466796875
0.719696044921875
-0.68194580078125
-0.58966064453125
0.63067626953125
0.426666259765625
-0.45562744140625
-0.200714111328125
0.192291259765625
0.031524658203125
-0.009521484375
0.038116455078125
-0.080596923828125
-0.34320068359375
0.288604736328125
0.70355224609375
-0.65960693359375
-0.75042724609375
0.795135498046875
0.57684326171875
-0.55780029296875
-0.351593017578125
0.342437744140625
0.180206298828125
-0.188262939453125
-0.049102783203125
0.056427001953125
-0.104034423828125
0.061553955078125
0.34173583984375
-0.35748291015625
-0.62408447265625
0.62408447265625
0.80133056640625
-0.75958251953125
-0.62957763671875
0.66546630859375
0.315704345703125
-0.35198974609375
-0.141021728515625
0.128570556640625
0.027862548828125
-0.0135498046875
0.099639892578125
-0.126373291015625
-0.36151123046875
0.318634033203125
0.70025634765625
-0.65411376953125
-0.69512939453125
0.738372802734375
0.56475830078125
-0.56439208984375
-0.42999267578125
0.41680908203125
0.134063720703125
-0.134796142578125
0.0
0.01318359375
-0.125640869140625
0.076934814453125
0.42779541015625
-0.45233154296875
-0.64569091796875
0.65887451171875
0.73248291015625
-0.68450927734375
-0.52484130859375
0.55889892578125
0.295928955078125
-0.33001708984375
-0.202545166015625
0.203643798828125
0.026031494140625
-0.0201416015625
0.084991455078125
-0.124542236328125
-0.39813232421875
0.35858154296875
0.80572509765625
-0.770233154296875
-0.68524169921875
0.73284912109375
0.50360107421875
-0.495147705078125
-0.36590576171875
0.341339111328125
0.104400634765625
-0.108428955078125
-0.032958984375
0.054595947265625
-0.154571533203125
0.099639892578125
0.42230224609375
-0.44207763671875
-0.61456298828125
0.63763427734375
0.810150146484375
-0.769866943359375
-0.56329345703125
0.59442138671875
0.251251220703125
-0.275421142578125
-0.166290283203125
0.147613525390625
-0.0069580078125
0.0
0.124176025390625
-0.135528564453125
-0.43438720703125
0.40582275390625
0.73577880859375
-0.71051025390625
-0.64019775390625
0.68670654296875
0.56878662109375
-0.56292724609375
-0.36846923828125
0.354522705078125
0.070343017578125
-0.070343017578125
-0.03369140625
0.034820556640625
-0.180572509765625
0.129669189453125
0.48455810546875
-0.49847412109375
-0.64312744140625
0.66473388671875
0.726654052734375
-0.685638427734375
-0.48638916015625
0.51751708984375
0.273956298828125
-0.297760009765625
-0.188995361328125
0.174713134765625
-0.010986328125
0.0
0.109893798828125
-0.143951416015625
-0.48016357421875
0.44757080078125
0.787811279296875
-0.750823974609375
-0.67169189453125
0.72222900390625
0.509429931640625
-0.506866455078125
-0.257843017578125
0.242828369140625
0.091949462890625
-0.084991455078125
-0.064483642578125
0.0501708984375
-0.198516845703125
0.142120361328125
0.45306396484375
-0.447174072265625
-0.696990966796875
0.72698974609375
0.775360107421875
-0.734344482421875
-0.479766845703125
0.49920654296875
0.262969970703125
-0.281280517578125
-0.123809814453125
0.110260009765625
-0.02490234375
0.0
0.177276611328125
-0.201812744140625
-0.51568603515625
0.49957275390625
0.720428466796875
-0.673187255859375
-0.646087646484375
0.692962646484375
0.516754150390625
-0.528106689453125
-0.301788330078125
0.2698974609375
0.084625244140625
-0.075469970703125
-0.0029296875
-0.0076904296875
-0.214263916015625
0.158233642578125
0.52850341796875
-0.514190673828125
-0.792572021484375
0.845672607421875
0.680145263671875
-0.640228271484375
-0.380889892578125
0.383087158203125
0.280548095703125
-0.300323486328125
-0.111358642578125
0.111358642578125
-0.025299072265625
0.0
0.188629150390625
-0.233306884765625
-0.500274658203125
0.47723388671875
0.773529052734375
-0.729583740234375
-0.752655029296875
0.805023193359375
0.440948486328125
-0.460357666015625
-0.210968017578125
0.187164306640625
0.095977783203125
-0.075103759765625
0.02783203125
-0.031524658203125
-0.212066650390625
0.160064697265625
0.54974365234375
-0.535430908203125
-0.725921630859375
0.756317138671875
0.689666748046875
-0.653411865234375
-0.519317626953125
0.529205322265625
0.210601806640625
-0.249053955078125
-0.041778564453125
0.047637939453125
-0.017608642578125
0.003662109375
0.278350830078125
-0.309478759765625
-0.527374267578125
0.51605224609375
0.731048583984375
-0.683807373046875
-0.657440185546875
0.707611083984375
0.414947509765625
-0.420806884765625
-0.275421142578125
0.270660400390625
0.074737548828125
-0.079132080078125
0.0234375
-0.059722900390625
-0.232574462890625
0.177642822265625
0.658538818359375
-0.64239501953125
-0.713836669921875
0.748992919921875
0.57977294921875
-0.54132080078125
-0.453765869140625
0.475006103515625
0.204742431640625
-0.254547119140625
-0.098907470703125
0.096710205078125
-0.019805908203125
0.0069580078125
0.246124267578125
-0.283843994140625
-0.530670166015625
0.53619384765625
0.826629638671875
-0.784881591796875
-0.671356201171875
0.709442138671875
0.354156494140625
-0.380523681640625
-0.244659423828125
0.217559814453125
0.050567626953125
-0.049102783203125
0.049835205078125
-0.050567626953125
-0.250885009765625
0.217926025390625
0.60211181640625
-0.59332275390625
-0.658905029296875
0.696258544921875
0.67169189453125
-0.64312744140625
-0.470977783203125
0.483795166015625
0.170684814453125
-0.183135986328125
-0.096710205078125
0.092681884765625
-0.063385009765625
0.0142822265625
0.297393798828125
-0.32525634765625
-0.57098388671875
0.59002685546875
0.756683349609375
-0.71710205078125
-0.57098388671875
0.610565185546875
0.394073486328125
-0.41717529296875
-0.288970947265625
0.259307861328125
0.050933837890625
-0.0311279296875
0.040313720703125
-0.062652587890625
-0.305450439453125
0.249420166015625
0.63946533203125
-0.61859130859375
-0.712371826171875
0.759979248046875
0.64202880859375
-0.62188720703125
-0.345001220703125
0.355255126953125
0.170684814453125
-0.171051025390625
-0.136260986328125
0.124176025390625
-0.056793212890625
0.030029296875
0.292999267578125
-0.32122802734375
-0.59075927734375
0.586029052734375
0.778289794921875
-0.73651123046875
-0.62664794921875
0.66583251953125
0.368438720703125
-0.41204833984375
-0.209503173828125
0.172119140625
0.058990478515625
-0.01904296875
0.052764892578125
-0.0633544921875
-0.33184814453125
0.276519775390625
0.61529541015625
-0.59368896484375
-0.69622802734375
0.740936279296875
0.64276123046875
-0.60723876953125
-0.379791259765625
0.385650634765625
0.175079345703125
-0.189727783203125
-0.090850830078125
0.080596923828125
-0.065582275390625
0.032958984375
0.34320068359375
-0.36700439453125
-0.65960693359375
0.661468505859375
0.71966552734375
-0.67681884765625
-0.53509521484375
0.57318115234375
0.383453369140625
-0.40911865234375
-0.234405517578125
0.198516845703125
0.049468994140625
-0.03076171875
0.057159423828125
-0.087188720703125
-0.310211181640625
0.259307861328125
0.69732666015625
-0.64642333984375
-0.770599365234375
0.815643310546875
0.56878662109375
-0.55377197265625
-0.340972900390625
0.336578369140625
0.156402587890625
-0.178741455078125
-0.074005126953125
0.074371337890625
-0.070709228515625
0.046905517578125
0.36517333984375
-0.39044189453125
-0.63507080078125
0.64495849609375
0.74017333984375
-0.67938232421875
-0.60028076171875
0.63067626953125
0.345733642578125
-0.39520263671875
-0.173614501953125
0.151641845703125
0.040313720703125
-0.0208740234375
0.085357666015625
-0.105499267578125
-0.32891845703125
0.282379150390625
0.68304443359375
-0.64825439453125
-0.72515869140625
0.767669677734375
0.53106689453125
-0.50946044921875
-0.41058349609375
0.396636962890625
0.191192626953125
-0.210968017578125
-0.0267333984375
0.037017822265625
-0.075103759765625
0.037384033203125
0.40032958984375
-0.41973876953125
-0.63580322265625
0.64862060546875
0.74273681640625
-0.69659423828125
-0.55633544921875
0.59039306640625
0.260772705078125
-0.279449462890625
-0.223419189453125
0.210235595703125
0.088287353515625
-0.087921142578125
0.086090087890625
-0.126007080078125
-0.309844970703125
0.263702392578125
0.73321533203125
-0.68341064453125
-0.748260498046875
0.793670654296875
0.52593994140625
-0.51239013671875
-0.387115478515625
0.372467041015625
0.1109619140625
-0.164825439453125
-0.046905517578125
0.059722900390625
-0.0780029296875
0.070343017578125
0.39007568359375
-0.41351318359375
-0.56365966796875
0.58673095703125
0.77752685546875
-0.72698974609375
-0.61053466796875
0.63580322265625
0.247222900390625
-0.273590087890625
-0.204010009765625
0.184967041015625
0.058258056640625
-0.075469970703125
0.095245361328125
-0.115386962890625
-0.37249755859375
0.34722900390625
0.69769287109375
-0.66839599609375
-0.62664794921875
0.67425537109375
0.57501220703125
-0.54827880859375
-0.422637939453125
0.399932861328125
0.104766845703125
-0.145782470703125
-0.051300048828125
0.071441650390625
-0.108062744140625
0.064483642578125
0.37689208984375
-0.39813232421875
-0.63214111328125
0.68414306640625
0.78961181640625
-0.76214599609375
-0.45965576171875
0.47723388671875
0.292999267578125
-0.30804443359375
-0.272857666015625
0.242462158203125
0.016510009765625
-0.0245361328125
0.066314697265625
-0.083892822265625
-0.36590576171875
0.33880615234375
0.71783447265625
-0.67864990234375
-0.69989013671875
0.74566650390625
0.58746337890625
-0.58636474609375
-0.327056884765625
0.303985595703125
0.110260009765625
-0.119415283203125
-0.083160400390625
0.090118408203125
-0.151275634765625
0.112823486328125
0.37615966796875
-0.38092041015625
-0.59991455078125
0.63580322265625
0.72515869140625
-0.68743896484375
-0.53070068359375
0.55047607421875
0.350494384765625
-0.39263916015625
-0.199981689453125
0.1651611328125
0.028594970703125
-0.017578125
0.084625244140625
-0.099609375
-0.45562744140625
0.44134521484375
0.70062255859375
-0.64495849609375
-0.61236572265625
0.65008544921875
0.53729248046875
-0.51971435546875
-0.339874267578125
0.316802978515625
0.159332275390625
-0.199981689453125
-0.072540283203125
0.068511962890625
-0.105865478515625
0.074371337890625
0.39263916015625
-0.39154052734375
-0.72332763671875
0.75042724609375
0.72845458984375
-0.68597412109375
-0.45855712890625
0.48638916015625
0.303619384765625
-0.325225830078125
-0.194122314453125
0.158233642578125
0.053863525390625
-0.074005126953125
0.083526611328125
-0.106231689453125
-0.37213134765625
0.34576416015625
0.71490478515625
-0.64715576171875
-0.74017333984375
0.78521728515625
0.50946044921875
-0.50360107421875
-0.328155517578125
0.304351806640625
0.162261962890625
-0.212432861328125
-0.038116455078125
0.046539306640625
-0.108062744140625
0.088653564453125
0.41607666015625
-0.41864013671875
-0.61859130859375
0.64495849609375
0.69183349609375
-0.64495849609375
-0.51495361328125
0.54315185546875
0.345367431640625
-0.38751220703125
-0.228546142578125
0.191558837890625
0.020172119140625
-0.03076171875
0.101837158203125
-0.111724853515625
-0.40289306640625
0.38861083984375
0.72808837890625
-0.66656494140625
-0.64862060546875
0.69219970703125
0.43768310546875
-0.44097900390625
-0.40142822265625
0.38604736328125
0.204376220703125
-0.249053955078125
-0.0205078125
0.0157470703125
-0.074737548828125
0.048736572265625
0.42303466796875
-0.43292236328125
-0.66290283203125
0.68670654296875
0.71087646484375
-0.66436767578125
-0.53509521484375
0.55670166015625
0.240631103515625
-0.279083251953125
-0.199249267578125
0.195220947265625
0.090484619140625
-0.106231689453125
0.097076416015625
-0.136993408203125
-0.33111572265625
0.310577392578125
0.72698974609375
-0.67608642578125
-0.70684814453125
0.747894287109375
0.50213623046875
-0.50213623046875
-0.384918212890625
0.363311767578125
0.107666015625
-0.168487548828125
-0.042144775390625
0.055694580078125
-0.0787353515625
0.075469970703125
0.42962646484375
-0.43988037109375
-0.57135009765625
0.60284423828125
0.71160888671875
-0.66839599609375
-0.55230712890625
0.58453369140625
0.282379150390625
-0.327423095703125
-0.231475830078125
0.220123291015625
0.042144775390625
-0.041778564453125
0.098175048828125
-0.132965087890625
-0.37982177734375
0.35858154296875
0.74163818359375
-0.70318603515625
-0.63836669921875
0.67718505859375
0.46441650390625
-0.45562744140625
-0.353790283203125
0.359283447265625
0.164093017578125
-0.194854736328125
-0.093780517578125
0.091583251953125
-0.110992431640625
0.061553955078125
0.39117431640625
-0.40472412109375
-0.62884521484375
0.67864990234375
0.78302001953125
-0.75225830078125
-0.48199462890625
0.51275634765625
0.228179931640625
-0.262237548828125
-0.246490478515625
0.213165283203125
0.068511962890625
-0.067413330078125
0.093780517578125
-0.111358642578125
-0.37872314453125
0.35601806640625
0.66949462890625
-0.63287353515625
-0.66729736328125
0.70208740234375
0.58087158203125
-0.57427978515625
-0.329620361328125
0.335113525390625
0.1204833984375
-0.147613525390625
-0.095245361328125
0.084991455078125
-0.1109619140625
0.084625244140625
0.37652587890625
-0.38970947265625
-0.61932373046875
0.65960693359375
0.71234130859375
-0.66656494140625
-0.48162841796875
0.50579833984375
0.356719970703125
-0.40289306640625
-0.252716064453125
0.2069091796875
0.032623291015625
-0.01904296875
0.084991455078125
-0.0933837890625
-0.41241455078125
0.39666748046875
0.65338134765625
-0.60980224609375
-0.64935302734375
0.68231201171875
0.53326416015625
-0.51605224609375
-0.263702392578125
0.260040283203125
0.217926025390625
-0.237701416015625
-0.152740478515625
0.131134033203125
-0.089752197265625
0.041046142578125
0.316436767578125
-0.31683349609375
-0.70281982421875
0.74200439453125
0.709808349609375
-0.66802978515625
-0.50799560546875
0.52044677734375
0.332916259765625
-0.332916259765625
-0.1475830078125
0.101806640625
0.136627197265625
-0.152374267578125
0.0263671875
-0.0406494140625
-0.31793212890625
0.269561767578125
0.530303955078125
-0.471710205078125
-0.80865478515625
0.852996826171875
0.665496826171875
-0.650482177734375
-0.332183837890625
0.317535400390625
0.185302734375
-0.242462158203125
-0.037017822265625
0.0172119140625
-0.04248046875
0.048370361328125
0.33331298828125
-0.319732666015625
-0.63140869140625
0.65704345703125
0.58453369140625
-0.53692626953125
-0.63873291015625
0.65704345703125
0.475372314453125
-0.497711181640625
-0.136260986328125
0.135894775390625
0.093048095703125
-0.102935791015625
0.063018798828125
-0.104400634765625
-0.33477783203125
0.303253173828125
0.66107177734375
-0.62042236328125
-0.76837158203125
0.806854248046875
0.47174072265625
-0.444976806640625
-0.38311767578125
0.36993408203125
0.2589111328125
-0.32855224609375
0.0
0.01318359375
-0.0523681640625
0.032958984375
0.33111572265625
-0.35272216796875
-0.62884521484375
0.668792724609375
0.73468017578125
-0.69256591796875
-0.66729736328125
0.66949462890625
0.295196533203125
-0.304351806640625
-0.106231689453125
0.126373291015625
0.124908447265625
-0.143585205078125
0.089752197265625
-0.121978759765625
-0.34173583984375
0.305450439453125
0.63763427734375
-0.59442138671875
-0.70648193359375
0.752288818359375
0.58197021484375
-0.57830810546875
-0.43768310546875
0.406158447265625
0.15234375
-0.202911376953125
0.0
0.034454345703125
-0.0523681640625
0.047271728515625
0.36920166015625
-0.40655517578125
-0.65484619140625
0.67462158203125
0.66217041015625
-0.61126708984375
-0.54791259765625
0.56951904296875
0.390411376953125
-0.424835205078125
-0.206573486328125
0.205474853515625
0.064849853515625
-0.055694580078125
0.056427001953125
-0.099639892578125
-0.34539794921875
0.307281494140625
0.71124267578125
-0.67864990234375
-0.69366455078125
0.741668701171875
0.53472900390625
-0.50103759765625
-0.375030517578125
0.360015869140625
0.172882080078125
-0.217559814453125
-0.072540283203125
0.089019775390625
-0.083160400390625
0.046905517578125
0.309844970703125
-0.33990478515625
-0.59625244140625
0.63470458984375
0.810150146484375
-0.76727294921875
-0.56402587890625
0.58966064453125
0.310943603515625
-0.343902587890625
-0.231842041015625
0.1820068359375
0.055694580078125
-0.046905517578125
0.060089111328125
-0.052734375
-0.35235595703125
0.310943603515625
0.66473388671875
-0.63580322265625
-0.61566162109375
0.660369873046875
0.62884521484375
-0.61053466796875
-0.417144775390625
0.412750244140625
0.119781494140625
-0.154205322265625
-0.101470947265625
0.109893798828125
-0.097076416015625
0.065948486328125
0.32525634765625
-0.35125732421875
-0.59405517578125
0.62335205078125
0.73248291015625
-0.69329833984375
-0.47760009765625
0.50653076171875
0.393707275390625
-0.42303466796875
-0.304718017578125
0.25634765625
0.023834228515625
-0.0263671875
0.0234375
-0.0238037109375
-0.35235595703125
0.318634033203125
0.692230224609375
-0.65667724609375
-0.66546630859375
0.716033935546875
0.59185791015625
-0.57391357421875
-0.291900634765625
0.291900634765625
0.171783447265625
-0.197784423828125
-0.165557861328125
0.152374267578125
-0.083526611328125
0.051300048828125
0.262603759765625
-0.279449462890625
-0.60357666015625
0.61749267578125
0.809783935546875
-0.765472412109375
-0.54901123046875
0.58599853515625
0.355621337890625
-0.391510009765625
-0.2080078125
0.1640625
0.056060791015625
-0.042510986328125
0.0098876953125
-0.0238037109375
-0.33660888671875
0.297027587890625
0.63031005859375
-0.57464599609375
-0.66107177734375
0.701385498046875
0.62847900390625
-0.61492919921875
-0.374664306640625
0.379058837890625
0.182037353515625
-0.205474853515625
-0.111724853515625
0.093048095703125
-0.088653564453125
0.048004150390625
0.32818603515625
-0.33917236328125
-0.62811279296875
0.63909912109375
0.66583251953125
-0.60687255859375
-0.51129150390625
0.54974365234375
0.437652587890625
-0.468048095703125
-0.241729736328125
0.198486328125
0.058258056640625
-0.056427001953125
0.015380859375
-0.0355224609375
-0.33477783203125
0.286041259765625
0.695526123046875
-0.64056396484375
-0.73321533203125
0.769866943359375
0.52813720703125
-0.51275634765625
-0.313507080078125
0.317901611328125
0.207275390625
-0.246490478515625
-0.108428955078125
0.108428955078125
-0.05419921875
0.036285400390625
0.307281494140625
-0.33221435546875
-0.58087158203125
0.58782958984375
0.743133544921875
-0.69476318359375
-0.62774658203125
0.66986083984375
0.351959228515625
-0.369171142578125
-0.199615478515625
0.1651611328125
0.076202392578125
-0.086090087890625
0.060455322265625
-0.07177734375
-0.30511474609375
0.265167236328125
0.63177490234375
-0.59039306640625
-0.67535400390625
0.715667724609375
0.55999755859375
-0.53912353515625
-0.437286376953125
0.442779541015625
0.2083740234375
-0.257843017578125
-0.060821533203125
0.060821533203125
-0.0435791015625
0.0234375
0.34210205078125
-0.35491943359375
-0.58123779296875
0.594818115234375
0.71270751953125
-0.67681884765625
-0.57281494140625
0.61529541015625
0.303253173828125
-0.316802978515625
-0.262969970703125
0.247955322265625
0.124176025390625
-0.135894775390625
0.046905517578125
-0.068145751953125
-0.293731689453125
0.250152587890625
0.69696044921875
-0.66583251953125
-0.703948974609375
0.746063232421875
0.54132080078125
-0.52850341796875
-0.399566650390625
0.407989501953125
0.151611328125
-0.207305908203125
-0.084991455078125
0.080596923828125
-0.037353515625
0.0146484375
0.281646728515625
-0.30987548828125
-0.54461669921875
0.580902099609375
0.797332763671875
-0.74713134765625
-0.59954833984375
0.63177490234375
0.327423095703125
-0.351593017578125
-0.240264892578125
0.2039794921875
0.0523681640625
-0.076202392578125
0.044708251953125
-0.0487060546875
-0.288604736328125
0.277252197265625
0.61309814453125
-0.58563232421875
-0.64532470703125
0.686370849609375
0.61676025390625
-0.58599853515625
-0.406890869140625
0.410919189453125
0.184967041015625
-0.222686767578125
-0.117950439453125
0.105865478515625
-0.069244384765625
0.015380859375
0.32122802734375
-0.34246826171875
-0.58306884765625
0.628143310546875
0.74896240234375
-0.70867919921875
-0.490020751953125
0.521514892578125
0.345367431640625
-0.361846923828125
-0.32342529296875
0.280548095703125
0.068878173828125
-0.067413330078125
0.039947509765625
-0.0465087890625
-0.30584716796875
0.270294189453125
0.64202880859375
-0.60797119140625
-0.68048095703125
0.714202880859375
0.58160400390625
-0.55047607421875
-0.336944580078125
0.347198486328125
0.197052001953125
-0.240631103515625
-0.161163330078125
0.1314697265625
-0.060821533203125
0.036285400390625
0.304718017578125
-0.309844970703125
-0.58013916015625
0.60723876953125
0.746063232421875
-0.70135498046875
-0.56549072265625
0.58636474609375
0.369171142578125
-0.407989501953125
-0.224853515625
0.1849365234375
0.067413330078125
-0.043975830078125
0.006591796875
-0.0274658203125
-0.32855224609375
0.285675048828125
0.63946533203125
-0.58746337890625
-0.64093017578125
0.683807373046875
0.56878662109375
-0.54205322265625
-0.365509033203125
0.373565673828125
0.228179931640625
-0.257843017578125
-0.152374267578125
0.113525390625
-0.054229736328125
0.0164794921875
0.32525634765625
-0.319000244140625
-0.63763427734375
0.661468505859375
0.69512939453125
-0.65338134765625
-0.50946044921875
0.53875732421875
0.357086181640625
-0.365875244140625
-0.249420166015625
0.2142333984375
0.117584228515625
-0.118316650390625
0.012847900390625
-0.0556640625
-0.291168212890625
0.236236572265625
0.64825439453125
-0.58197021484375
-0.746795654296875
0.792572021484375
0.56549072265625
-0.53948974609375
-0.318267822265625
0.323394775390625
0.19482421875
-0.252716064453125
-0.138824462890625
0.119781494140625
-0.027099609375
0.0223388671875
0.32525634765625
-0.34429931640625
-0.55523681640625
0.56842041015625
0.68670654296875
-0.63360595703125
-0.64019775390625
0.670623779296875
0.345733642578125
-0.354888916015625
-0.205841064453125
0.170654296875
0.123443603515625
-0.139190673828125
0.029693603515625
-0.0465087890625
-0.279815673828125
0.241729736328125
0.63653564453125
-0.59075927734375
-0.646453857421875
0.686004638671875
0.480499267578125
-0.450836181640625
-0.513092041015625
0.508697509765625
0.255279541015625
-0.305084228515625
-0.041778564453125
0.061920166015625
0.021240234375
-0.039947509765625
0.302154541015625
-0.33770751953125
-0.57794189453125
0.60064697265625
0.711273193359375
-0.65777587890625
-0.60430908203125
0.636199951171875
0.280914306640625
-0.284576416015625
-0.264434814453125
0.261505126953125
0.173614501953125
-0.218292236328125
0.032958984375
-0.045440673828125
-0.205841064453125
0.184967041015625
0.598114013671875
-0.59442138671875
-0.757781982421875
0.812347412109375
0.63470458984375
-0.59735107421875
-0.468780517578125
0.442413330078125
0.1094970703125
-0.163330078125
-0.035552978515625
0.058624267578125
0.0194091796875
-0.076934814453125
0.181671142578125
-0.199615478515625
-0.483428955078125
0.56219482421875
0.726654052734375
-0.68890380859375
-0.743499755859375
0.760345458984375
0.476837158203125
-0.47796630859375
-0.167755126953125
0.154937744140625
0.0567626953125
-0.131866455078125
0.0325927734375
-0.019775390625
-0.295562744140625
0.301788330078125
0.54827880859375
-0.57867431640625
-0.64605712890625
0.701385498046875
0.615692138671875
-0.56439208984375
-0.50030517578125
0.46551513671875
0.24462890625
-0.31207275390625
0.0
0.0296630859375
-0.046142578125
-0.0054931640625
0.178009033203125
-0.204010009765625
-0.63873291015625
0.712371826171875
0.797332763671875
-0.759246826171875
-0.56878662109375
0.57208251953125
0.410919189453125
-0.401397705078125
-0.187530517578125
0.195953369140625
0.090484619140625
-0.133697509765625
0.025634765625
-0.02783203125
-0.31793212890625
0.287872314453125
0.52557373046875
-0.54205322265625
-0.74383544921875
0.796966552734375
0.752288818359375
-0.711639404296875
-0.358184814453125
0.324493408203125
0.165191650390625
-0.216827392578125
-0.056793212890625
0.089019775390625
-0.077301025390625
0.059722900390625
0.201080322265625
-0.225250244140625
-0.57684326171875
0.59954833984375
0.750091552734375
-0.716400146484375
-0.59698486328125
0.62188720703125
0.52044677734375
-0.54205322265625
-0.217559814453125
0.186798095703125
0.0087890625
-0.0146484375
0.02490234375
-0.031890869140625
-0.34722900390625
0.311676025390625
0.613128662109375
-0.58416748046875
-0.66583251953125
0.705780029296875
0.63433837890625
-0.61016845703125
-0.355255126953125
0.358917236328125
0.226715087890625
-0.241729736328125
-0.112091064453125
0.114654541015625
-0.088287353515625
0.03369140625
0.248321533203125
-0.279083251953125
-0.66400146484375
0.673187255859375
0.740203857421875
-0.694427490234375
-0.56658935546875
0.59625244140625
0.430328369140625
-0.440948486328125
-0.174346923828125
0.1446533203125
0.073638916015625
-0.076568603515625
0.033721923828125
-0.0428466796875
-0.283843994140625
0.228546142578125
0.61126708984375
-0.56768798828125
-0.763275146484375
0.803924560546875
0.64349365234375
-0.62335205078125
-0.388214111328125
0.377593994140625
0.179840087890625
-0.213897705078125
-0.057159423828125
0.058258056640625
-0.057891845703125
0.042510986328125
0.319366455078125
-0.32818603515625
-0.55487060546875
0.543487548828125
0.683074951171875
-0.63470458984375
-0.65374755859375
0.696258544921875
0.415679931640625
-0.439117431640625
-0.207672119140625
0.197784423828125
0.066314697265625
-0.066314697265625
0.049835205078125
-0.098907470703125
-0.292999267578125
0.240264892578125
0.65521240234375
-0.58673095703125
-0.698455810546875
0.733245849609375
0.54241943359375
-0.53582763671875
-0.407257080078125
0.425933837890625
0.216064453125
-0.258575439453125
-0.085723876953125
0.094879150390625
-0.0439453125
0.0208740234375
0.34466552734375
-0.38055419921875
-0.58380126953125
0.58489990234375
0.74639892578125
-0.70135498046875
-0.62994384765625
0.660369873046875
0.275054931640625
-0.297760009765625
-0.205841064453125
0.207305908203125
0.119781494140625
-0.114654541015625
0.070709228515625
-0.094879150390625
-0.293365478515625
0.246124267578125
0.67681884765625
-0.63653564453125
-0.701751708984375
0.737274169921875
0.56951904296875
-0.56256103515625
-0.439117431640625
0.420074462890625
0.1153564453125
-0.169586181640625
-0.051666259765625
0.081695556640625
-0.0369873046875
0.030426025390625
0.39007568359375
-0.41680908203125
-0.56219482421875
0.58160400390625
0.70208740234375
-0.65374755859375
-0.57794189453125
0.61749267578125
0.335845947265625
-0.374664306640625
-0.255279541015625
0.232208251953125
0.045440673828125
-0.039947509765625
0.071075439453125
-0.090484619140625
-0.33880615234375
0.306915283203125
0.71417236328125
-0.67791748046875
-0.65411376953125
0.694793701171875
0.51385498046875
-0.50177001953125
-0.410186767578125
0.406890869140625
0.171417236328125
-0.201446533203125
-0.070343017578125
0.083892822265625
-0.076934814453125
0.0303955078125
0.288604736328125
-0.32269287109375
-0.67095947265625
0.720428466796875
0.803558349609375
-0.75592041015625
-0.54534912109375
0.56219482421875
0.308380126953125
-0.337677001953125
-0.177276611328125
0.180206298828125
0.0633544921875
-0.076202392578125
0.058990478515625
-0.064849853515625
-0.368072509765625
0.35565185546875
0.55780029296875
-0.57135009765625
-0.76470947265625
0.80535888671875
0.64202880859375
-0.59625244140625
-0.33111572265625
0.32818603515625
0.1929931640625
-0.260772705078125
0.002197265625
0.0091552734375
-0.0992431640625
0.070343017578125
0.253448486328125
-0.291534423828125
-0.69403076171875
0.76031494140625
0.736907958984375
-0.690765380859375
-0.53839111328125
0.53802490234375
0.423736572265625
-0.444610595703125
-0.120147705078125
0.129669189453125
0.060821533203125
-0.071441650390625
0.048370361328125
-0.060821533203125
-0.41241455078125
0.39154052734375
0.60321044921875
-0.61126708984375
-0.753387451171875
0.790740966796875
0.62664794921875
-0.59588623046875
-0.270263671875
0.2508544921875
0.206573486328125
-0.230377197265625
-0.041046142578125
0.057525634765625
-0.103668212890625
0.058990478515625
0.257843017578125
-0.277252197265625
-0.71160888671875
0.74566650390625
0.810516357421875
-0.779388427734375
-0.54791259765625
0.56549072265625
0.348663330078125
-0.380889892578125
-0.121612548828125
0.095245361328125
0.069976806640625
-0.053131103515625
0.090850830078125
-0.091217041015625
-0.39080810546875
0.34576416015625
0.55523681640625
-0.54351806640625
-0.76507568359375
0.81048583984375
0.66217041015625
-0.64239501953125
-0.33111572265625
0.31866455078125
0.173248291015625
-0.188262939453125
0.0
-0.0047607421875
-0.089385986328125
0.063385009765625
0.39849853515625
-0.40435791015625
-0.68084716796875
0.68121337890625
0.66290283203125
-0.62445068359375
-0.55413818359375
0.59442138671875
0.380157470703125
-0.43109130859375
-0.157135009765625
0.143218994140625
0.048370361328125
-0.01025390625
0.097808837890625
-0.137725830078125
-0.38018798828125
0.32891845703125
0.72845458984375
-0.68194580078125
-0.74530029296875
0.78448486328125
0.49407958984375
-0.49847412109375
-0.302154541015625
0.306549072265625
0.171417236328125
-0.164093017578125
-0.062286376953125
0.030029296875
-0.100738525390625
0.061553955078125
0.43695068359375
-0.418243408203125
-0.65228271484375
0.65924072265625
0.744598388671875
-0.70941162109375
-0.60980224609375
0.62774658203125
0.2515869140625
-0.29302978515625
-0.128936767578125
0.119781494140625
0.051300048828125
-0.029296875
0.176544189453125
-0.202178955078125
-0.38531494140625
0.34503173828125
0.67169189453125
-0.61712646484375
-0.69476318359375
0.73577880859375
0.51568603515625
-0.53179931640625
-0.40216064453125
0.376861572265625
0.121246337890625
-0.117218017578125
-0.002197265625
0.013214111328125
-0.130401611328125
0.087921142578125
0.51788330078125
-0.52593994140625
-0.64239501953125
0.66693115234375
0.671722412109375
-0.628509521484375
-0.51678466796875
0.54681396484375
0.234375
-0.290435791015625
-0.195587158203125
0.179107666015625
0.051300048828125
-0.0260009765625
0.130767822265625
-0.160430908203125
-0.41204833984375
0.38201904296875
0.803558349609375
-0.762908935546875
-0.66656494140625
0.70794677734375
0.450103759765625
-0.454864501953125
-0.319000244140625
0.308380126953125
0.093414306640625
-0.102569580078125
-0.077667236328125
0.066680908203125
-0.145782470703125
0.103302001953125
0.47650146484375
-0.47576904296875
-0.61932373046875
0.64898681640625
0.757415771484375
-0.721893310546875
-0.52044677734375
0.54901123046875
0.228515625
-0.267364501953125
-0.192291259765625
0.1578369140625
0.0018310546875
0.0
0.164459228515625
-0.1600341796875
-0.445343017578125
0.43035888671875
0.733978271484375
-0.705047607421875
-0.59698486328125
0.63616943359375
0.483428955078125
-0.483795166015625
-0.380523681640625
0.360015869140625
0.112823486328125
-0.110260009765625
-0.041412353515625
0.038848876953125
-0.196319580078125
0.140655517578125
0.50103759765625
-0.50177001953125
-0.66802978515625
0.69586181640625
0.698455810546875
-0.661834716796875
-0.39520263671875
0.42449951171875
0.276885986328125
-0.301788330078125
-0.235137939453125
0.214996337890625
-0.0091552734375
0.0
0.128936767578125
-0.158966064453125
-0.48565673828125
0.46112060546875
0.779022216796875
-0.733978271484375
-0.65118408203125
0.69622802734375
0.467315673828125
-0.472808837890625
-0.243927001953125
0.228546142578125
0.116119384765625
-0.110260009765625
-0.086456298828125
0.059326171875
-0.199249267578125
0.146514892578125
0.47467041015625
-0.450103759765625
-0.687103271484375
0.71527099609375
0.730316162109375
-0.697357177734375
-0.447906494140625
0.46624755859375
0.264068603515625
-0.297760009765625
-0.157135009765625
0.12451171875
-0.008819580078125
0.0
0.200347900390625
-0.2080078125
-0.506500244140625
0.48822021484375
0.66802978515625
-0.63031005859375
-0.63067626953125
0.68524169921875
0.50177001953125
-0.49114990234375
-0.29595947265625
0.256378173828125
0.122711181640625
-0.123077392578125
-0.027099609375
0.019775390625
-0.196685791015625
0.141021728515625
0.55377197265625
-0.537994384765625
-0.728851318359375
0.74383544921875
0.57611083984375
-0.55010986328125
-0.454864501953125
0.47576904296875
0.308746337890625
-0.34686279296875
-0.112457275390625
0.123809814453125
0.029327392578125
-0.0146484375
0.175811767578125
-0.220489501953125
-0.49371337890625
0.45892333984375
0.69476318359375
-0.64862060546875
-0.769134521484375
0.815277099609375
0.45343017578125
-0.44317626953125
-0.203277587890625
0.1812744140625
0.157135009765625
-0.172149658203125
0.0142822265625
-0.0194091796875
-0.191925048828125
0.146881103515625
0.55926513671875
-0.537994384765625
-0.67242431640625
0.69476318359375
0.635101318359375
-0.605072021484375
-0.54901123046875
0.56622314453125
0.2197265625
-0.266632080078125
-0.067779541015625
0.081695556640625
0.015380859375
-0.0263671875
0.265533447265625
-0.297027587890625
-0.494049072265625
0.49664306640625
0.718963623046875
-0.676116943359375
-0.60980224609375
0.64605712890625
0.368804931640625
-0.375762939453125
-0.34173583984375
0.32928466796875
0.130767822265625
-0.140655517578125
0.005859375
-0.037750244140625
-0.225250244140625
0.175811767578125
0.669158935546875
-0.63250732421875
-0.693328857421875
0.727020263671875
0.57537841796875
-0.55084228515625
-0.398101806640625
0.415679931640625
0.163330078125
-0.214599609375
-0.167388916015625
0.174346923828125
0.015380859375
-0.034820556640625
0.235504150390625
-0.280181884765625
-0.505035400390625
0.52154541015625
0.796234130859375
-0.748260498046875
-0.619354248046875
0.658538818359375
0.364044189453125
-0.376495361328125
-0.277984619140625
0.2493896484375
0.049072265625
-0.087921142578125
0.0025634765625
-0.009521484375
-0.240234375
0.228912353515625
0.596282958984375
-0.57171630859375
-0.621551513671875
0.66180419921875
0.64459228515625
-0.61529541015625
-0.438018798828125
0.45013427734375
0.1885986328125
-0.234405517578125
-0.145050048828125
0.134063720703125
-0.0556640625
0.01318359375
0.281280517578125
-0.30145263671875
-0.55889892578125
0.598846435546875
0.743499755859375
-0.70245361328125
-0.500640869140625
0.530670166015625
0.367340087890625
-0.376495361328125
-0.31610107421875
0.284576416015625
0.091217041015625
-0.094512939453125
-0.0040283203125
-0.01171875
-0.300689697265625
0.251983642578125
0.614593505859375
-0.58343505859375
-0.668426513671875
0.727386474609375
0.63873291015625
-0.62078857421875
-0.326324462890625
0.320098876953125
0.1842041015625
-0.211334228515625
-0.187896728515625
0.178009033203125
-0.0618896484375
0.035919189453125
0.277618408203125
-0.30364990234375
-0.57281494140625
0.59332275390625
0.732147216796875
-0.69110107421875
-0.57501220703125
0.60504150390625
0.405059814453125
-0.432891845703125
-0.2039794921875
0.169189453125
0.063385009765625
-0.049835205078125
-0.0025634765625
-0.018310546875
-0.33953857421875
0.299224853515625
0.62152099609375
-0.57281494140625
-0.65081787109375
0.691497802734375
0.60028076171875
-0.57574462890625
-0.358184814453125
0.362579345703125
0.204376220703125
-0.236602783203125
-0.129669189453125
0.1080322265625
-0.068878173828125
0.035186767578125
0.33074951171875
-0.337310791015625
-0.65191650390625
0.67205810546875
0.69805908203125
-0.65301513671875
-0.48638916015625
0.52044677734375
0.352691650390625
-0.365509033203125
-0.247222900390625
0.204345703125
0.103668212890625
-0.105499267578125
0.032257080078125
-0.05126953125
-0.34246826171875
0.296661376953125
0.66619873046875
-0.60833740234375
-0.72991943359375
0.772796630859375
0.54791259765625
-0.52996826171875
-0.315704345703125
0.313140869140625
0.1724853515625
-0.227081298828125
-0.097076416015625
0.084259033203125
-0.0545654296875
0.037384033203125
0.34979248046875
-0.36114501953125
-0.60723876953125
0.63580322265625
0.67498779296875
-0.62884521484375
-0.56219482421875
0.58746337890625
0.359649658203125
-0.379791259765625
-0.211334228515625
0.17431640625
0.0802001953125
-0.097076416015625
0.076202392578125
-0.08642578125
-0.353790283203125
0.32452392578125
0.67681884765625
-0.62701416015625
-0.64349365234375
0.68817138671875
0.47503662109375
-0.46002197265625
-0.380523681640625
0.379425048828125
0.220458984375
-0.276885986328125
-0.086822509765625
0.072509765625
-0.0655517578125
0.037017822265625
0.40216064453125
-0.404327392578125
-0.62481689453125
0.66473388671875
0.69586181640625
-0.65228271484375
-0.51531982421875
0.54791259765625
0.246124267578125
-0.266998291015625
-0.242828369140625
0.20947265625
0.125640869140625
-0.141021728515625
0.087188720703125
-0.109130859375
-0.32965087890625
0.302520751953125
0.72442626953125
-0.66143798828125
-0.68304443359375
0.721893310546875
0.50103759765625
-0.49847412109375
-0.336944580078125
0.339874267578125
0.104736328125
-0.170684814453125
-0.120147705078125
0.113555908203125
-0.0633544921875
0.051666259765625
0.35894775390625
-0.36700439453125
-0.56475830078125
0.60943603515625
0.76177978515625
-0.72332763671875
-0.54571533203125
0.56915283203125
0.271759033203125
-0.302520751953125
-0.243560791015625
0.1988525390625
0.0531005859375
-0.084991455078125
0.109893798828125
-0.1124267578125
-0.402496337890625
0.40032958984375
0.66949462890625
-0.63470458984375
-0.59039306640625
0.62884521484375
0.51751708984375
-0.49774169921875
-0.352325439453125
0.350860595703125
0.161865234375
-0.203643798828125
-0.100372314453125
0.087554931640625
-0.123779296875
0.086090087890625
0.41094970703125
-0.41424560546875
-0.65631103515625
0.70941162109375
0.73175048828125
-0.69256591796875
-0.43402099609375
0.45452880859375
0.252716064453125
-0.275054931640625
-0.244659423828125
0.19482421875
0.0552978515625
-0.085723876953125
0.118316650390625
-0.12451171875
-0.417877197265625
0.42266845703125
0.70501708984375
-0.64935302734375
-0.64532470703125
0.67938232421875
0.52447509765625
-0.52301025390625
-0.269927978515625
0.258941650390625
0.120513916015625
-0.147979736328125
-0.117584228515625
0.0904541015625
-0.183868408203125
0.147613525390625
0.45123291015625
-0.438385009765625
-0.61932373046875
0.66546630859375
0.68487548828125
-0.64349365234375
-0.48565673828125
0.50177001953125
0.315704345703125
-0.35418701171875
-0.179473876953125
0.135498046875
0.013214111328125
-0.015380859375
0.140655517578125
-0.1431884765625
-0.51202392578125
0.49554443359375
0.68670654296875
-0.63763427734375
-0.53326416015625
0.57025146484375
0.46881103515625
-0.46771240234375
-0.361114501953125
0.347198486328125
0.188629150390625
-0.201812744140625
-0.058624267578125
0.0322265625
-0.180206298828125
0.126739501953125
0.51239013671875
-0.484161376953125
-0.727020263671875
0.769500732421875
0.62847900390625
-0.59405517578125
-0.404327392578125
0.425201416015625
0.261871337890625
-0.296295166015625
-0.173248291015625
0.139892578125
0.060791015625
-0.070709228515625
0.173614501953125
-0.1907958984375
-0.449737548828125
0.43841552734375
0.720794677734375
-0.66107177734375
-0.709075927734375
0.743865966796875
0.389312744140625
-0.38934326171875
-0.263671875
0.251220703125
0.170654296875
-0.220123291015625
-0.041046142578125
0.0113525390625
-0.1640625
0.152374267578125
0.55926513671875
-0.527740478515625
-0.65740966796875
0.68634033203125
0.57098388671875
-0.53472900390625
-0.48822021484375
0.50982666015625
0.296661376953125
-0.341339111328125
-0.144683837890625
0.117218017578125
0.0325927734375
-0.041046142578125
0.220489501953125
-0.224517822265625
-0.496978759765625
0.49078369140625
0.737640380859375
-0.694427490234375
-0.59735107421875
0.63031005859375
0.317901611328125
-0.320831298828125
-0.33441162109375
0.311309814453125
0.191192626953125
-0.225982666015625
-0.03076171875
0.0025634765625
-0.168853759765625
0.135894775390625
0.59881591796875
-0.55889892578125
-0.711639404296875
0.74713134765625
0.621185302734375
-0.59149169921875
-0.424835205078125
0.43878173828125
0.1732177734375
-0.2142333984375
-0.161895751953125
0.145416259765625
0.0311279296875
-0.070343017578125
0.244293212890625
-0.252349853515625
-0.457061767578125
0.49627685546875
0.762176513671875
-0.717498779296875
-0.63616943359375
0.66290283203125
0.358184814453125
-0.367706298828125
-0.30108642578125
0.260040283203125
0.09375
-0.129669189453125
-0.0062255859375
-0.006591796875
-0.257080078125
0.232574462890625
0.642059326171875
-0.59661865234375
-0.602508544921875
0.65008544921875
0.56878662109375
-0.54278564453125
-0.418609619140625
0.42889404296875
0.2032470703125
-0.259307861328125
-0.180206298828125
0.15087890625
-0.0260009765625
-0.012451171875
0.263702392578125
-0.2698974609375
-0.55120849609375
0.608367919921875
0.785247802734375
-0.745330810546875
-0.511993408203125
0.530670166015625
0.309844970703125
-0.315338134765625
-0.31536865234375
0.279083251953125
0.1007080078125
-0.131866455078125
-0.0087890625
-0.0146484375
-0.288970947265625
0.260772705078125
0.643890380859375
-0.59625244140625
-0.67974853515625
0.726287841796875
0.62078857421875
-0.60321044921875
-0.328155517578125
0.333648681640625
0.15087890625
-0.198516845703125
-0.162628173828125
0.146148681640625
-0.0849609375
0.057525634765625
0.300689697265625
-0.31097412109375
-0.55010986328125
0.59881591796875
0.722625732421875
-0.67828369140625
-0.52557373046875
0.54901123046875
0.389312744140625
-0.402496337890625
-0.247955322265625
0.207275390625
0.070343017578125
-0.075103759765625
0.00146484375
-0.0267333984375
-0.44464111328125
0.39666748046875
0.48858642578125
-0.426666259765625
-0.58087158203125
0.64056396484375
0.63507080078125
-0.61016845703125
-0.320831298828125
0.316436767578125
0.34246826171875
-0.35601806640625
-0.136627197265625
0.122344970703125
-0.071441650390625
0.0245361328125
0.232208251953125
-0.240631103515625
-0.825164794921875
0.843475341796875
0.55560302734375
-0.51312255859375
-0.481231689453125
0.49481201171875
0.48016357421875
-0.48492431640625
-0.121246337890625
0.0897216796875
0.231109619140625
-0.237335205078125
0.008056640625
-0.015380859375
-0.274688720703125
0.231475830078125
0.44024658203125
-0.385284423828125
-1.0
1.0
0.63470458984375
-0.60284423828125
-0.173980712890625
0.176177978515625
0.312408447265625
-0.382354736328125
0.0047607421875
-0.002197265625
0.019775390625
-0.0164794921875
0.235504150390625
-0.242828369140625
-0.60430908203125
0.61932373046875
0.47943115234375
-0.43109130859375
-0.810882568359375
0.828094482421875
0.55780029296875
-0.57135009765625
0.0
0.000732421875
0.186767578125
-0.237335205078125
0.070709228515625
-0.078765869140625
-0.323760986328125
0.32818603515625
0.58966064453125
-0.57135009765625
-0.76177978515625
0.78961181640625
0.235504150390625
-0.2003173828125
-0.37872314453125
0.38055419921875
0.509429931640625
-0.58856201171875
0.0205078125
0.0
0.0406494140625
-0.059356689453125
0.30548095703125
-0.35345458984375
-0.68780517578125
0.725189208984375
0.73248291015625
-0.67205810546875
-0.66070556640625
0.65740966796875
0.154205322265625
-0.175079345703125
-0.093780517578125
0.115386962890625
0.2515869140625
-0.297760009765625
0.060821533203125
-0.065948486328125
-0.242431640625
0.234771728515625
0.76507568359375
-0.77056884765625
-0.826263427734375
0.859954833984375
0.53253173828125
-0.52227783203125
-0.39556884765625
0.39044189453125
0.050537109375
-0.115753173828125
0.0281982421875
0.01318359375
-0.1102294921875
0.101104736328125
0.34722900390625
-0.42449951171875
-0.51385498046875
0.54718017578125
0.843109130859375
-0.794036865234375
-0.67828369140625
0.69659423828125
0.260406494140625
-0.279815673828125
-0.110260009765625
0.130035400390625
-0.025299072265625
0.0
0.105499267578125
-0.130767822265625
-0.495147705078125
0.48822021484375
0.816741943359375
-0.816741943359375
-0.58270263671875
0.61676025390625
0.500640869140625
-0.492218017578125
-0.37579345703125
0.36883544921875
0.076202392578125
-0.058624267578125
0.0
0.0047607421875
-0.219390869140625
0.155670166015625
0.48126220703125
-0.49847412109375
-0.714202880859375
0.746795654296875
0.839447021484375
-0.819671630859375
-0.433258056640625
0.447174072265625
0.169952392578125
-0.160430908203125
-0.132232666015625
0.142486572265625
-0.043609619140625
0.0205078125
0.193756103515625
-0.231109619140625
-0.540924072265625
0.51202392578125
0.772064208984375
-0.727020263671875
-0.638031005859375
0.683074951171875
0.50836181640625
-0.53399658203125
-0.268096923828125
0.250152587890625
0.02490234375
0.0
0.019775390625
-0.022003173828125
-0.301788330078125
0.242462158203125
0.58160400390625
-0.57574462890625
-0.707977294921875
0.738739013671875
0.680877685546875
-0.65264892578125
-0.355255126953125
0.368072509765625
0.216827392578125
-0.215362548828125
-0.134063720703125
0.139190673828125
-0.060455322265625
0.0238037109375
0.257843017578125
-0.289337158203125
-0.63287353515625
0.619354248046875
0.785247802734375
-0.744964599609375
-0.55596923828125
0.59295654296875
0.392608642578125
-0.42156982421875
-0.214599609375
0.1820068359375
0.063385009765625
-0.0325927734375
0.00439453125
-0.0164794921875
-0.284942626953125
0.221221923828125
0.61968994140625
-0.58087158203125
-0.762908935546875
0.798431396484375
0.65484619140625
-0.63873291015625
-0.385650634765625
0.388580322265625
0.171417236328125
-0.182037353515625
-0.065582275390625
0.0494384765625
-0.063018798828125
0.045074462890625
0.33807373046875
-0.342437744140625
-0.58819580078125
0.56182861328125
0.70831298828125
-0.66143798828125
-0.63433837890625
0.67901611328125
0.397003173828125
-0.43255615234375
-0.199981689453125
0.189727783203125
0.049468994140625
-0.021240234375
0.067779541015625
-0.112091064453125
-0.32012939453125
0.258941650390625
0.71014404296875
-0.65960693359375
-0.73687744140625
0.772430419921875
0.48199462890625
-0.46185302734375
-0.40618896484375
0.408355712890625
0.228546142578125
-0.242095947265625
-0.0296630859375
0.052764892578125
-0.093048095703125
0.049835205078125
0.37945556640625
-0.41424560546875
-0.63067626953125
0.63104248046875
0.76031494140625
-0.71636962890625
-0.60064697265625
0.62774658203125
0.265899658203125
-0.295196533203125
-0.164093017578125
0.172515869140625
0.070709228515625
-0.066680908203125
0.106597900390625
-0.132232666015625
-0.34466552734375
0.300689697265625
0.69879150390625
-0.67755126953125
-0.72442626953125
0.760345458984375
0.55706787109375
-0.55303955078125
-0.40728759765625
0.379425048828125
0.109893798828125
-0.118316650390625
0.0
0.042510986328125
-0.127105712890625
0.089019775390625
0.45159912109375
-0.48236083984375
-0.62042236328125
0.63397216796875
0.71197509765625
-0.67242431640625
-0.55596923828125
0.58599853515625
0.290069580078125
-0.32672119140625
-0.168853759765625
0.179473876953125
0.014312744140625
-0.00146484375
0.124176025390625
-0.160430908203125
-0.44244384765625
0.40069580078125
0.783050537109375
-0.746063232421875
-0.65301513671875
0.69586181640625
0.474273681640625
-0.483795166015625
-0.330352783203125
0.320465087890625
0.105499267578125
-0.098175048828125
-0.042144775390625
0.049468994140625
-0.169219970703125
0.113189697265625
0.47283935546875
-0.48126220703125
-0.69586181640625
0.72296142578125
0.769866943359375
-0.736907958984375
-0.48089599609375
0.50396728515625
0.21240234375
-0.248321533203125
-0.141021728515625
0.136260986328125
0.0040283203125
0.0
0.164093017578125
-0.186431884765625
-0.484161376953125
0.47027587890625
0.731048583984375
-0.696258544921875
-0.63433837890625
0.67169189453125
0.520782470703125
-0.528472900390625
-0.32891845703125
0.305816650390625
0.076934814453125
-0.065216064453125
-0.01171875
0.0076904296875
-0.231842041015625
0.176177978515625
0.53948974609375
-0.528106689453125
-0.695159912109375
0.728118896484375
0.688934326171875
-0.653778076171875
-0.403961181640625
0.423004150390625
0.256744384765625
-0.273590087890625
-0.161895751953125
0.160797119140625
-0.038116455078125
0.0003662109375
0.183502197265625
-0.220489501953125
-0.56072998046875
0.56805419921875
0.782684326171875
-0.739471435546875
-0.62481689453125
0.653778076171875
0.428131103515625
-0.438751220703125
-0.230743408203125
0.2208251953125
0.103668212890625
-0.089385986328125
-0.01318359375
-0.0150146484375
-0.263336181640625
0.199249267578125
0.53326416015625
-0.507598876953125
-0.759246826171875
0.801361083984375
0.697357177734375
-0.664764404296875
-0.390045166015625
0.388580322265625
0.2135009765625
-0.255645751953125
-0.085357666015625
0.0732421875
-0.0303955078125
0.025634765625
0.269561767578125
-0.277587890625
-0.57171630859375
0.56182861328125
0.697723388671875
-0.653411865234375
-0.63250732421875
0.672821044921875
0.443511962890625
-0.461090087890625
-0.227081298828125
0.212066650390625
0.081695556640625
-0.070343017578125
0.038116455078125
-0.074005126953125
-0.308380126953125
0.251983642578125
0.65447998046875
-0.61163330078125
-0.724090576171875
0.756683349609375
0.55194091796875
-0.52886962890625
-0.383819580078125
0.393341064453125
0.224151611328125
-0.257843017578125
-0.076202392578125
0.083160400390625
-0.056060791015625
0.0281982421875
0.33148193359375
-0.36224365234375
-0.61163330078125
0.617523193359375
0.75958251953125
-0.71417236328125
-0.61016845703125
0.63946533203125
0.308380126953125
-0.325958251953125
-0.190826416015625
0.177978515625
0.086456298828125
-0.082794189453125
0.086090087890625
-0.1036376953125
-0.35089111328125
0.316436767578125
0.67572021484375
-0.63543701171875
-0.68890380859375
0.712005615234375
0.56768798828125
-0.55523681640625
-0.41827392578125
0.406890869140625
0.125244140625
-0.168853759765625
-0.02783203125
0.037750244140625
-0.073974609375
0.059356689453125
0.41937255859375
-0.43658447265625
-0.63031005859375
0.64202880859375
0.71051025390625
-0.67022705078125
-0.54534912109375
0.57720947265625
0.297393798828125
-0.313507080078125
-0.205108642578125
0.211700439453125
0.039581298828125
-0.052764892578125
0.105499267578125
-0.145050048828125
-0.39447021484375
0.36737060546875
0.76177978515625
-0.72625732421875
-0.65850830078125
0.69622802734375
0.48052978515625
-0.47210693359375
-0.331451416015625
0.328155517578125
0.133331298828125
-0.146881103515625
-0.082427978515625
0.082427978515625
-0.135528564453125
0.084625244140625
0.43878173828125
-0.45123291015625
-0.65924072265625
0.69146728515625
0.772064208984375
-0.732879638671875
-0.49591064453125
0.52264404296875
0.2362060546875
-0.274688720703125
-0.190460205078125
0.1593017578125
0.017578125
-0.015380859375
0.146881103515625
-0.1541748046875
-0.459259033203125
0.44097900390625
0.71197509765625
-0.67095947265625
-0.61090087890625
0.64678955078125
0.51239013671875
-0.51568603515625
-0.331451416015625
0.325958251953125
0.113555908203125
-0.117218017578125
-0.063018798828125
0.03955078125
-0.189727783203125
0.140655517578125
0.49078369140625
-0.487091064453125
-0.690032958984375
0.72259521484375
0.692230224609375
-0.646820068359375
-0.408721923828125
0.42596435546875
0.2684326171875
-0.313140869140625
-0.196319580078125
0.193389892578125
0.0025634765625
-0.0062255859375
0.152374267578125
-0.184967041015625
-0.511260986328125
0.50689697265625
0.772430419921875
-0.730316162109375
-0.627777099609375
0.66326904296875
0.445343017578125
-0.440948486328125
-0.24169921875
0.221221923828125
0.119781494140625
-0.126373291015625
-0.072906494140625
0.0552978515625
-0.231842041015625
0.173980712890625
0.52117919921875
-0.497344970703125
-0.700286865234375
0.741302490234375
0.708343505859375
-0.677947998046875
-0.425933837890625
0.436187744140625
0.22119140625
-0.266265869140625
-0.131866455078125
0.1083984375
-0.012451171875
0.0025634765625
0.238433837890625
-0.2435302734375
-0.539825439453125
0.54205322265625
0.682342529296875
-0.640960693359375
-0.620819091796875
0.664031982421875
0.459991455078125
-0.466583251953125
-0.266265869140625
0.227783203125
0.110260009765625
-0.108795166015625
0.0
-0.0263671875
-0.268463134765625
0.221221923828125
0.631072998046875
-0.58453369140625
-0.714569091796875
0.738739013671875
0.56732177734375
-0.53729248046875
-0.402496337890625
0.421905517578125
0.2420654296875
-0.293365478515625
-0.105499267578125
0.100738525390625
-0.0281982421875
0.0135498046875
0.272125244140625
-0.299591064453125
-0.58892822265625
0.601043701171875
0.748626708984375
-0.707611083984375
-0.63140869140625
0.66180419921875
0.348297119140625
-0.357452392578125
-0.201080322265625
0.175048828125
0.114654541015625
-0.117950439453125
0.061920166015625
-0.0732421875
-0.296661376953125
0.247222900390625
0.63580322265625
-0.59515380859375
-0.698822021484375
0.738739013671875
0.57354736328125
-0.55267333984375
-0.437652587890625
0.436920166015625
0.1787109375
-0.230377197265625
-0.050567626953125
0.058258056640625
-0.0509033203125
0.036285400390625
0.37506103515625
-0.39849853515625
-0.59954833984375
0.62005615234375
0.70025634765625
-0.65264892578125
-0.55377197265625
0.58380126953125
0.326324462890625
-0.347930908203125
-0.248321533203125
0.244293212890625
0.073272705078125
-0.082061767578125
0.066314697265625
-0.109893798828125
-0.34466552734375
0.312408447265625
0.72332763671875
-0.69293212890625
-0.67279052734375
0.728485107421875
0.52227783203125
-0.49261474609375
-0.344635009765625
0.328521728515625
0.161895751953125
-0.188995361328125
-0.112823486328125
0.120147705078125
-0.106597900390625
0.056060791015625
0.36810302734375
-0.39923095703125
-0.60833740234375
0.64605712890625
0.77020263671875
-0.73248291015625
-0.54498291015625
0.56951904296875
0.277252197265625
-0.298126220703125
-0.213897705078125
0.1812744140625
0.057525634765625
-0.059722900390625
0.105499267578125
-0.1072998046875
-0.40069580078125
0.36956787109375
0.67572021484375
-0.64495849609375
-0.62994384765625
0.66949462890625
0.56732177734375
-0.55194091796875
-0.362213134765625
0.355255126953125
0.123443603515625
-0.148712158203125
-0.080230712890625
0.077667236328125
-0.138824462890625
0.100006103515625
0.44354248046875
-0.45233154296875
-0.64898681640625
0.68157958984375
0.68487548828125
-0.65008544921875
-0.43475341796875
0.45416259765625
0.299591064453125
-0.334381103515625
-0.249420166015625
0.2164306640625
0.040313720703125
-0.035186767578125
0.091217041015625
-0.10400390625
-0.45709228515625
0.42962646484375
0.74786376953125
-0.70941162109375
-0.68487548828125
0.72515869140625
0.48529052734375
-0.46771240234375
-0.211334228515625
0.198516845703125
0.153106689453125
-0.171051025390625
-0.115020751953125
0.100341796875
-0.176910400390625
0.128936767578125
0.42413330078125
-0.414215087890625
-0.67645263671875
0.70831298828125
0.72039794921875
-0.69073486328125
-0.47320556640625
0.48858642578125
0.282012939453125
-0.31939697265625
-0.150909423828125
0.1175537109375
0.0274658203125
-0.029296875
0.164093017578125
-0.1636962890625
-0.488922119140625
0.47650146484375
0.66986083984375
-0.62445068359375
-0.64166259765625
0.68304443359375
0.49371337890625
-0.48931884765625
-0.280914306640625
0.258941650390625
0.144317626953125
-0.165924072265625
-0.042510986328125
0.0205078125
-0.195953369140625
0.157135009765625
0.53802490234375
-0.507232666015625
-0.720794677734375
0.751556396484375
0.59808349609375
-0.56549072265625
-0.400665283203125
0.423736572265625
0.285308837890625
-0.323760986328125
-0.154571533203125
0.1307373046875
0.0263671875
-0.042510986328125
0.188629150390625
-0.2127685546875
-0.517852783203125
0.51202392578125
0.742401123046875
-0.685272216796875
-0.662933349609375
0.701385498046875
0.393341064453125
-0.393707275390625
-0.2178955078125
0.19921875
0.141754150390625
-0.171417236328125
-0.024566650390625
-0.008056640625
-0.216461181640625
0.182769775390625
0.56951904296875
-0.52008056640625
-0.685272216796875
0.719696044921875
0.601776123046875
-0.57794189453125
-0.469879150390625
0.484893798828125
0.229248046875
-0.275787353515625
-0.094512939453125
0.089752197265625
-0.0003662109375
-0.03076171875
0.270660400390625
-0.30364990234375
-0.531768798828125
0.55230712890625
0.702117919921875
-0.64605712890625
-0.592620849609375
0.633270263671875
0.370635986328125
-0.377227783203125
-0.300323486328125
0.2735595703125
0.130035400390625
-0.150177001953125
0.012451171875
-0.0296630859375
-0.262603759765625
0.222686767578125
0.659271240234375
-0.62774658203125
-0.675750732421875
0.716766357421875
0.56842041015625
-0.53765869140625
-0.385650634765625
0.398834228515625
0.1666259765625
-0.2171630859375
-0.149444580078125
0.147613525390625
0.00732421875
-0.039581298828125
0.258575439453125
-0.288604736328125
-0.54168701171875
0.57574462890625
0.789642333984375
-0.747528076171875
-0.58782958984375
0.618255615234375
0.330718994140625
-0.341339111328125
-0.263336181640625
0.2325439453125
0.08203125
-0.108428955078125
0.018341064453125
-0.0216064453125
-0.281982421875
0.254547119140625
0.62078857421875
-0.59295654296875
-0.641326904296875
0.676116943359375
0.59588623046875
-0.55487060546875
-0.407257080078125
0.417144775390625
0.19921875
-0.264434814453125
-0.130401611328125
0.121612548828125
-0.06591796875
0.037384033203125
0.302886962890625
-0.31646728515625
-0.58197021484375
0.61639404296875
0.728851318359375
-0.68743896484375
-0.50286865234375
0.52593994140625
0.349761962890625
-0.367340087890625
-0.291168212890625
0.2559814453125
0.092315673828125
-0.098175048828125
0.0157470703125
-0.0303955078125
-0.33917236328125
0.300689697265625
0.678314208984375
-0.63177490234375
-0.67388916015625
0.716766357421875
0.55450439453125
-0.54095458984375
-0.290802001953125
0.295562744140625
0.1864013671875
-0.232574462890625
-0.169952392578125
0.158966064453125
-0.0604248046875
0.043975830078125
0.287139892578125
-0.30694580078125
-0.61456298828125
0.64166259765625
0.765838623046875
-0.71783447265625
-0.53289794921875
0.55963134765625
0.341339111328125
-0.375396728515625
-0.201416015625
0.1669921875
0.073638916015625
-0.071807861328125
0.0296630859375
-0.0494384765625
-0.35784912109375
0.32708740234375
0.61968994140625
-0.56878662109375
-0.66693115234375
0.70794677734375
0.57574462890625
-0.55560302734375
-0.328887939453125
0.328155517578125
0.200714111328125
-0.238433837890625
-0.114288330078125
0.100341796875
-0.093780517578125
0.058624267578125
0.37176513671875
-0.381256103515625
-0.65045166015625
0.67791748046875
0.67572021484375
-0.62811279296875
-0.49444580078125
0.52447509765625
0.323760986328125
-0.342071533203125
-0.226348876953125
0.18310546875
0.106597900390625
-0.112091064453125
0.067779541015625
-0.0849609375
-0.39154052734375
0.34906005859375
0.70062255859375
-0.64788818359375
-0.70941162109375
0.74749755859375
0.49151611328125
-0.47027587890625
-0.264801025390625
0.272125244140625
0.188232421875
-0.240997314453125
-0.112091064453125
0.0919189453125
-0.0849609375
0.061553955078125
0.39886474609375
-0.401397705078125
-0.63031005859375
0.66363525390625
0.68780517578125
-0.64422607421875
-0.55194091796875
0.57904052734375
0.297393798828125
-0.319732666015625
-0.180938720703125
0.1468505859375
0.0765380859375
-0.095245361328125
0.130401611328125
-0.1365966796875
-0.385650634765625
0.36444091796875
0.67425537109375
-0.62811279296875
-0.65631103515625
0.69403076171875
0.45672607421875
-0.44866943359375
-0.355255126953125
0.345733642578125
0.1944580078125
-0.237701416015625
-0.063385009765625
0.06005859375
-0.1160888671875
0.086456298828125
0.48748779296875
-0.486724853515625
-0.63067626953125
0.66400146484375
0.59588623046875
-0.55670166015625
-0.47760009765625
0.50872802734375
0.266265869140625
-0.297027587890625
-0.231475830078125
0.1959228515625
0.10546875
-0.123809814453125
0.108428955078125
-0.12451171875
-0.401031494140625
0.38787841796875
0.75885009765625
-0.71087646484375
-0.67169189453125
0.70465087890625
0.42816162109375
-0.42413330078125
-0.291534423828125
0.284576416015625
0.1171875
-0.181304931640625
-0.090850830078125
0.08203125
-0.0985107421875
0.094512939453125
0.44866943359375
-0.444610595703125
-0.60247802734375
0.64239501953125
0.69989013671875
-0.66436767578125
-0.50067138671875
0.52227783203125
0.261505126953125
-0.294464111328125
-0.210968017578125
0.1732177734375
0.0208740234375
-0.055694580078125
0.141021728515625
-0.1424560546875
-0.435455322265625
0.44830322265625
0.71051025390625
-0.66766357421875
-0.57171630859375
0.60723876953125
0.47064208984375
-0.46441650390625
-0.335845947265625
0.324493408203125
0.144683837890625
-0.172149658203125
-0.087921142578125
0.0699462890625
-0.177642822265625
0.125274658203125
0.48162841796875
-0.470977783203125
-0.66070556640625
0.71453857421875
0.67279052734375
-0.63873291015625
-0.38677978515625
0.40472412109375
0.254913330078125
-0.284576416015625
-0.241729736328125
0.2105712890625
0.0509033203125
-0.055694580078125
0.142852783203125
-0.163330078125
-0.481597900390625
0.46588134765625
0.72296142578125
-0.67242431640625
-0.63360595703125
0.66986083984375
0.47064208984375
-0.47503662109375
-0.231475830078125
0.216827392578125
0.125244140625
-0.144317626953125
-0.113555908203125
0.0867919921875
-0.2017822265625
0.164093017578125
0.48052978515625
-0.459259033203125
-0.64642333984375
0.68963623046875
0.67388916015625
-0.63397216796875
-0.43182373046875
0.45123291015625
0.277984619140625
-0.33184814453125
-0.181671142578125
0.1314697265625
0.0179443359375
-0.0142822265625
0.179107666015625
-0.179443359375
-0.537994384765625
0.53436279296875
0.68231201171875
-0.62884521484375
-0.57464599609375
0.61199951171875
0.45452880859375
-0.44793701171875
-0.266632080078125
0.249053955078125
0.166290283203125
-0.180206298828125
-0.071075439453125
0.03515625
-0.206939697265625
0.156768798828125
0.53619384765625
-0.497711181640625
-0.730316162109375
0.767669677734375
0.61822509765625
-0.58526611328125
-0.368072509765625
0.389312744140625
0.244293212890625
-0.282379150390625
-0.176910400390625
0.14501953125
0.0465087890625
-0.065216064453125
0.186065673828125
-0.1988525390625
-0.501007080078125
0.50469970703125
0.727020263671875
-0.677947998046875
-0.644256591796875
0.676116943359375
0.406158447265625
-0.406158447265625
-0.2413330078125
0.227783203125
0.1314697265625
-0.175811767578125
-0.056793212890625
0.019775390625
-0.1973876953125
0.175811767578125
0.54425048828125
-0.509429931640625
-0.672454833984375
0.70904541015625
0.60064697265625
-0.56585693359375
-0.439849853515625
0.45635986328125
0.268463134765625
-0.305450439453125
-0.141021728515625
0.1204833984375
0.0260009765625
-0.047637939453125
0.232208251953125
-0.2464599609375
-0.517852783203125
0.52337646484375
0.723358154296875
-0.672088623046875
-0.58343505859375
0.62115478515625
0.333282470703125
-0.337677001953125
-0.290069580078125
0.265533447265625
0.181671142578125
-0.205474853515625
-0.042510986328125
0.0091552734375
-0.201446533203125
0.160430908203125
0.616790771484375
-0.55926513671875
-0.692596435546875
0.732513427734375
0.58380126953125
-0.56695556640625
-0.391876220703125
0.406524658203125
0.1644287109375
-0.2109375
-0.184600830078125
0.1622314453125
0.059326171875
-0.082061767578125
0.246124267578125
-0.2625732421875
-0.479034423828125
0.49920654296875
0.743133544921875
-0.687835693359375
-0.656341552734375
0.691497802734375
0.353424072265625
-0.364776611328125
-0.2222900390625
0.1966552734375
0.098876953125
-0.146514892578125
-0.059356689453125
0.032958984375
-0.230712890625
0.219024658203125
0.599212646484375
-0.56475830078125
-0.60321044921875
0.64349365234375
0.59332275390625
-0.56549072265625
-0.43914794921875
0.44793701171875
0.2039794921875
-0.254150390625
-0.168487548828125
0.1494140625
-0.000732421875
-0.035919189453125
0.257843017578125
-0.2611083984375
-0.53582763671875
0.58013916015625
0.734710693359375
-0.701751708984375
-0.521881103515625
0.55047607421875
0.339141845703125
-0.339874267578125
-0.287872314453125
0.261138916015625
0.1307373046875
-0.157135009765625
-0.056060791015625
0.0234375
-0.2589111328125
0.224884033203125
0.627044677734375
-0.57427978515625
-0.656707763671875
0.702484130859375
0.61639404296875
-0.59918212890625
-0.346466064453125
0.354888916015625
0.1666259765625
-0.20654296875
-0.200347900390625
0.1680908203125
-0.024169921875
-0.007720947265625
0.262237548828125
-0.2655029296875
-0.53619384765625
0.57208251953125
0.717132568359375
-0.671356201171875
-0.55047607421875
0.57537841796875
0.397003173828125
-0.410919189453125
-0.2376708984375
0.211334228515625
0.0831298828125
-0.102569580078125
-0.043975830078125
0.013916015625
-0.312408447265625
0.281280517578125
0.621551513671875
-0.56805419921875
-0.62664794921875
0.675018310546875
0.54534912109375
-0.52593994140625
-0.344635009765625
0.352691650390625
0.2515869140625
-0.306182861328125
-0.175811767578125
0.145751953125
-0.0399169921875
0.0157470703125
0.285675048828125
-0.290069580078125
-0.61968994140625
0.652313232421875
0.705413818359375
-0.66033935546875
-0.48236083984375
0.51385498046875
0.347930908203125
-0.356353759765625
-0.2384033203125
0.2098388671875
0.134429931640625
-0.147979736328125
-0.035919189453125
0.002197265625
-0.30145263671875
0.258575439453125
0.635101318359375
-0.57171630859375
-0.70648193359375
0.749725341796875
0.56256103515625
-0.54827880859375
-0.320098876953125
0.326690673828125
0.1929931640625
-0.242828369140625
-0.145416259765625
0.11865234375
-0.02197265625
0.005889892578125
0.320465087890625
-0.320098876953125
-0.57904052734375
0.60174560546875
0.685638427734375
-0.63836669921875
-0.54681396484375
0.56842041015625
0.346099853515625
-0.366241455078125
-0.2274169921875
0.197021484375
0.115386962890625
-0.128936767578125
0.015380859375
-0.0413818359375
-0.31756591796875
0.284210205078125
0.64971923828125
-0.58489990234375
-0.63946533203125
0.684173583984375
0.49664306640625
-0.48748779296875
-0.352325439453125
0.348663330078125
0.2120361328125
-0.268463134765625
-0.158233642578125
0.141357421875
-0.0142822265625
-0.0029296875
0.36334228515625
-0.368072509765625
-0.62188720703125
0.646820068359375
0.68560791015625
-0.64752197265625
-0.51751708984375
0.54425048828125
0.258209228515625
-0.272491455078125
-0.240631103515625
0.2083740234375
0.153076171875
-0.170318603515625
0.047637939453125
-0.0611572265625
-0.292266845703125
0.266998291015625
0.70062255859375
-0.63836669921875
-0.67864990234375
0.713470458984375
0.49920654296875
-0.49627685546875
-0.336944580078125
0.336578369140625
0.132568359375
-0.193389892578125
-0.152374267578125
0.1259765625
-0.0399169921875
0.029327392578125
0.40728759765625
-0.390045166015625
-0.53948974609375
0.57501220703125
0.68670654296875
-0.64862060546875
-0.53033447265625
0.55303955078125
0.275054931640625
-0.304351806640625
-0.279083251953125
0.2288818359375
0.085693359375
-0.100006103515625
0.072174072265625
-0.07763671875
-0.366607666015625
0.34576416015625
0.72625732421875
-0.66473388671875
-0.59295654296875
0.63323974609375
0.45599365234375
-0.44976806640625
-0.338409423828125
0.328887939453125
0.158935546875
-0.210968017578125
-0.156768798828125
0.14501953125
-0.0791015625
0.050201416015625
0.41314697265625
-0.409820556640625
-0.62078857421875
0.66839599609375
0.71197509765625
-0.67462158203125
-0.44097900390625
0.46038818359375
0.234771728515625
-0.261138916015625
-0.260040283203125
0.2215576171875
0.0699462890625
-0.107330322265625
0.066680908203125
-0.0823974609375
-0.366973876953125
0.37286376953125
0.69842529296875
-0.63543701171875
-0.61712646484375
0.65850830078125
0.51348876953125
-0.51092529296875
-0.287506103515625
0.283477783203125
0.120849609375
-0.179840087890625
-0.158233642578125
0.1292724609375
-0.1318359375
0.116119384765625
0.43585205078125
-0.414215087890625
-0.59112548828125
0.64385986328125
0.65118408203125
-0.61749267578125
-0.41497802734375
0.42926025390625
0.298858642578125
-0.328155517578125
-0.259307861328125
0.216064453125
0.056396484375
-0.084259033203125
0.091583251953125
-0.1043701171875
-0.451202392578125
0.44757080078125
0.70062255859375
-0.63360595703125
-0.56329345703125
0.60430908203125
0.43695068359375
-0.43585205078125
-0.240264892578125
0.234405517578125
0.1732177734375
-0.235870361328125
-0.187530517578125
0.1571044921875
-0.111328125
0.097076416015625
0.46148681640625
-0.441314697265625
-0.67572021484375
0.72076416015625
0.62994384765625
-0.59588623046875
-0.40252685546875
0.42193603515625
0.268463134765625
-0.297393798828125
-0.1951904296875
0.1483154296875
0.0809326171875
-0.108795166015625
0.1007080078125
-0.104736328125
-0.427398681640625
0.43109130859375
0.66143798828125
-0.59918212890625
-0.62445068359375
0.65740966796875
0.46148681640625
-0.46441650390625
-0.259674072265625
0.249786376953125
0.1593017578125
-0.219757080078125
-0.122711181640625
0.0736083984375
-0.1336669921875
0.127471923828125
0.50506591796875
-0.455963134765625
-0.63067626953125
0.67388916015625
0.57208251953125
-0.53912353515625
-0.43402099609375
0.44976806640625
0.278717041015625
-0.313507080078125
-0.224151611328125
0.1728515625
0.0780029296875
-0.103302001953125
0.176544189453125
-0.16552734375
-0.445709228515625
0.44830322265625
0.70794677734375
-0.654510498046875
-0.60943603515625
0.64019775390625
0.34503173828125
-0.351226806640625
-0.258941650390625
0.254547119140625
0.19921875
-0.252716064453125
-0.126373291015625
0.0809326171875
-0.1541748046875
0.133331298828125
0.51934814453125
-0.471343994140625
-0.63873291015625
0.69439697265625
0.62994384765625
-0.60430908203125
-0.42926025390625
0.43695068359375
0.171417236328125
-0.206207275390625
-0.203643798828125
0.15673828125
0.1124267578125
-0.142120361328125
0.212799072265625
-0.2025146484375
-0.458892822265625
0.46551513671875
0.694061279296875
-0.644622802734375
-0.57757568359375
0.60870361328125
0.355987548828125
-0.362579345703125
-0.298492431640625
0.288604736328125
0.156005859375
-0.211700439453125
-0.086456298828125
0.0421142578125
-0.182373046875
0.176910400390625
0.602508544921875
-0.54168701171875
-0.60540771484375
0.64935302734375
0.535797119140625
-0.514923095703125
-0.38055419921875
0.39556884765625
0.209503173828125
-0.247222900390625
-0.260772705078125
0.217529296875
0.064453125
-0.101104736328125
0.225616455078125
-0.217529296875
-0.484893798828125
0.51422119140625
0.751922607421875
-0.701019287109375
-0.51129150390625
0.53582763671875
0.317535400390625
-0.329986572265625
-0.279449462890625
0.261505126953125
0.1494140625
-0.190826416015625
-0.148345947265625
0.101806640625
-0.2105712890625
0.188262939453125
0.58673095703125
-0.52374267578125
-0.627410888671875
0.67315673828125
0.614959716796875
-0.59918212890625
-0.386749267578125
0.39337158203125
0.176513671875
-0.2080078125
-0.199981689453125
0.15234375
0.032958984375
-0.079498291015625
0.218292236328125
-0.20068359375
-0.52923583984375
0.57281494140625
0.688201904296875
-0.637298583984375
-0.487091064453125
0.50543212890625
0.383453369140625
-0.398834228515625
-0.277618408203125
0.260772705078125
0.1234130859375
-0.170318603515625
-0.093048095703125
0.053466796875
-0.266998291015625
0.277984619140625
0.602874755859375
-0.53765869140625
-0.60321044921875
0.639495849609375
0.524810791015625
-0.508331298828125
-0.291900634765625
0.294830322265625
0.234039306640625
-0.281280517578125
-0.264434814453125
0.21533203125
0.009521484375
-0.058258056640625
0.267364501953125
-0.2413330078125
-0.57501220703125
0.639495849609375
0.687835693359375
-0.644256591796875
-0.476104736328125
0.491485595703125
0.310577392578125
-0.325225830078125
-0.199249267578125
0.175445556640625
0.17578125
-0.216827392578125
-0.094482421875
0.0596923828125
-0.272491455078125
0.258575439453125
0.59149169921875
-0.52886962890625
-0.65155029296875
0.698455810546875
0.532501220703125
-0.518951416015625
-0.298126220703125
0.300323486328125
0.200347900390625
-0.250885009765625
-0.195220947265625
0.1439208984375
0.003662109375
-0.0303955078125
0.32122802734375
-0.287139892578125
-0.53839111328125
0.57904052734375
0.63140869140625
-0.59185791015625
-0.502105712890625
0.521881103515625
0.291168212890625
-0.310577392578125
-0.254180908203125
0.224884033203125
0.1614990234375
-0.211700439453125
-0.0076904296875
-0.0179443359375
-0.302154541015625
0.307647705078125
0.64605712890625
-0.58416748046875
-0.62335205078125
0.663665771484375
0.442047119140625
-0.432159423828125
-0.262969970703125
0.269927978515625
0.221954345703125
-0.276885986328125
-0.229644775390625
0.179443359375
-0.0091552734375
-0.0260009765625
0.39813232421875
-0.363677978515625
-0.55816650390625
0.61639404296875
0.64569091796875
-0.61163330078125
-0.467315673828125
0.484161376953125
0.236968994140625
-0.257843017578125
-0.228546142578125
0.200714111328125
0.140625
-0.187530517578125
0.0194091796875
-0.0380859375
-0.307647705078125
0.311309814453125
0.65228271484375
-0.59295654296875
-0.59442138671875
0.635467529296875
0.42926025390625
-0.43145751953125
-0.319732666015625
0.314239501953125
0.1593017578125
-0.21533203125
-0.190093994140625
0.146484375
-0.030029296875
0.0084228515625
0.45745849609375
-0.418975830078125
-0.58306884765625
0.62518310546875
0.59588623046875
-0.54754638671875
-0.403961181640625
0.428863525390625
0.238067626953125
-0.275421142578125
-0.282745361328125
0.249786376953125
0.10693359375
-0.165557861328125
0.0670166015625
-0.07470703125
-0.364410400390625
0.39080810546875
0.70794677734375
-0.65777587890625
-0.56915283203125
0.59661865234375
0.36627197265625
-0.37139892578125
-0.259307861328125
0.254180908203125
0.176513671875
-0.232177734375
-0.224151611328125
0.1761474609375
-0.093017578125
0.07470703125
0.46990966796875
-0.422271728515625
-0.57940673828125
0.63653564453125
0.63214111328125
-0.60284423828125
-0.397369384765625
0.408355712890625
0.202911376953125
-0.230377197265625
-0.249420166015625
0.211334228515625
0.1138916015625
-0.162261962890625
0.0966796875
-0.09814453125
-0.410552978515625
0.43695068359375
0.66510009765625
-0.61053466796875
-0.52667236328125
0.55560302734375
0.40692138671875
-0.41607666015625
-0.281280517578125
0.269561767578125
0.1556396484375
-0.214996337890625
-0.183868408203125
0.141357421875
-0.1351318359375
0.127838134765625
0.51385498046875
-0.463653564453125
-0.58123779296875
0.62994384765625
0.56146240234375
-0.54132080078125
-0.324493408203125
0.332183837890625
0.214996337890625
-0.253448486328125
-0.267730712890625
0.241363525390625
0.1036376953125
-0.145050048828125
0.1292724609375
-0.1300048828125
-0.453033447265625
0.49041748046875
0.688568115234375
-0.649017333984375
-0.49298095703125
0.51055908203125
0.330718994140625
-0.342803955078125
-0.208038330078125
0.200347900390625
0.1688232421875
-0.232208251953125
-0.199951171875
0.1636962890625
-0.175048828125
0.172882080078125
0.528106689453125
-0.48016357421875
-0.57757568359375
0.63250732421875
0.54351806640625
-0.529205322265625
-0.305816650390625
0.310943603515625
0.187896728515625
-0.226348876953125
-0.238800048828125
0.207305908203125
0.08349609375
-0.126373291015625
0.204742431640625
-0.189727783203125
-0.475738525390625
0.51934814453125
0.59735107421875
-0.56329345703125
-0.46624755859375
0.48675537109375
0.319000244140625
-0.329986572265625
-0.234771728515625
0.225616455078125
0.1669921875
-0.228179931640625
-0.116455078125
0.0889892578125
-0.19482421875
0.204376220703125
0.57354736328125
-0.52667236328125
-0.58673095703125
0.62774658203125
0.427764892578125
-0.421173095703125
-0.271392822265625
0.277618408203125
0.201080322265625
-0.239898681640625
-0.291168212890625
0.255279541015625
0.0670166015625
-0.103668212890625
0.316070556640625
-0.295562744140625
-0.485626220703125
0.52886962890625
0.60064697265625
-0.57171630859375
-0.46697998046875
0.48199462890625
0.236602783203125
-0.248687744140625
-0.218658447265625
0.206573486328125
0.18603515625
-0.252716064453125
-0.08203125
0.0589599609375
-0.239898681640625
0.263336181640625
0.58013916015625
-0.53692626953125
-0.55963134765625
0.59588623046875
0.426666259765625
-0.416046142578125
-0.291900634765625
0.297393798828125
0.167388916015625
-0.210235595703125
-0.2303466796875
0.193389892578125
0.0391845703125
-0.0662841796875
0.339874267578125
-0.312408447265625
-0.50653076171875
0.55157470703125
0.56402587890625
-0.53582763671875
-0.416046142578125
0.427398681640625
0.231475830078125
-0.244659423828125
-0.262969970703125
0.246124267578125
0.180908203125
-0.242462158203125
-0.0260009765625
0.008056640625
-0.297027587890625
0.32452392578125
0.64129638671875
-0.59515380859375
-0.54315185546875
0.57098388671875
0.360015869140625
-0.359649658203125
-0.254180908203125
0.257476806640625
0.169586181640625
-0.209136962890625
-0.2457275390625
0.204345703125
0.0135498046875
-0.0369873046875
0.373565673828125
-0.341339111328125
-0.56732177734375
0.62445068359375
0.60028076171875
-0.57244873046875
-0.355987548828125
0.350860595703125
0.208038330078125
-0.230377197265625
-0.258575439453125
0.235504150390625
0.148681640625
-0.1966552734375
0.022705078125
-0.034423828125
-0.340972900390625
0.362213134765625
0.60211181640625
-0.55780029296875
-0.53436279296875
0.55853271484375
0.392608642578125
-0.392608642578125
-0.248687744140625
0.251617431640625
0.181304931640625
-0.230743408203125
-0.21533203125
0.17578125
-0.0531005859375
0.0465087890625
0.418243408203125
-0.383819580078125
-0.57647705078125
0.61639404296875
0.55633544921875
-0.53033447265625
-0.327789306640625
0.335845947265625
0.218292236328125
-0.240264892578125
-0.269927978515625
0.241729736328125
0.1424560546875
-0.193359375
0.0662841796875
-0.066650390625
-0.396636962890625
0.432525634765625
0.63726806640625
-0.59259033203125
-0.52264404296875
0.54168701171875
0.339141845703125
-0.346099853515625
-0.191192626953125
0.190826416015625
0.195587158203125
-0.247955322265625
-0.2186279296875
0.1768798828125
-0.10400390625
0.10107421875
0.447906494140625
-0.404327392578125
-0.61639404296875
0.66107177734375
0.54498291015625
-0.52008056640625
-0.278350830078125
0.282745361328125
0.218658447265625
-0.256378173828125
-0.234771728515625
0.202545166015625
0.1109619140625
-0.156005859375
0.1329345703125
-0.1329345703125
-0.429595947265625
0.457061767578125
0.58453369140625
-0.55047607421875
-0.51605224609375
0.53289794921875
0.321197509765625
-0.328155517578125
-0.215362548828125
0.213897705078125
0.206573486328125
-0.267364501953125
-0.157470703125
0.123046875
-0.1402587890625
0.1549072265625
0.514190673828125
-0.467315673828125
-0.612762451171875
0.65081787109375
0.45928955078125
-0.44427490234375
-0.28125
0.290069580078125
0.222320556640625
-0.250518798828125
-0.245391845703125
0.207672119140625
0.1153564453125
-0.1611328125
0.1885986328125
-0.1724853515625
-0.469146728515625
0.511993408203125
0.61895751953125
-0.57940673828125
-0.50653076171875
0.52374267578125
0.267730712890625
-0.276153564453125
-0.195953369140625
0.186431884765625
0.213165283203125
-0.270294189453125
-0.1146240234375
0.0787353515625
-0.1798095703125
0.1878662109375
0.53106689453125
-0.48126220703125
-0.581268310546875
0.61895751953125
0.465484619140625
-0.451934814453125
-0.317535400390625
0.32305908203125
0.184967041015625
-0.219757080078125
-0.2373046875
0.1900634765625
0.101806640625
-0.13037109375
0.287139892578125
-0.261505126953125
-0.48638916015625
0.517852783203125
0.58306884765625
-0.54718017578125
-0.461090087890625
0.47503662109375
0.2490234375
-0.258941650390625
-0.247955322265625
0.233673095703125
0.206573486328125
-0.26953125
-0.09228515625
0.0626220703125
-0.235137939453125
0.2552490234375
0.60650634765625
-0.55596923828125
-0.56256103515625
0.595184326171875
0.418609619140625
-0.407257080078125
-0.264434814453125
0.2706298828125
0.169952392578125
-0.208770751953125
-0.2666015625
0.221954345703125
0.0615234375
-0.095947265625
0.301055908203125
-0.273956298828125
-0.50213623046875
0.54534912109375
0.62335205078125
-0.59002685546875
-0.429962158203125
0.442779541015625
0.236602783203125
-0.251983642578125
-0.229644775390625
0.209869384765625
0.1600341796875
-0.2208251953125
-0.0611572265625
0.0406494140625
-0.266265869140625
0.290802001953125
0.58782958984375
-0.53802490234375
-0.53253173828125
0.56292724609375
0.436920166015625
-0.433258056640625
-0.277984619140625
0.279815673828125
0.178741455078125
-0.222686767578125
-0.265899658203125
0.214599609375
0.0040283203125
-0.0146484375
0.37615966796875
-0.336212158203125
-0.54168701171875
0.57061767578125
0.57244873046875
-0.54425048828125
-0.381256103515625
0.392974853515625
0.242828369140625
-0.258209228515625
-0.254180908203125
0.231842041015625
0.1717529296875
-0.234771728515625
-0.0406494140625
0.019775390625
-0.346466064453125
0.37908935546875
0.63909912109375
-0.58673095703125
-0.54168701171875
0.56842041015625
0.398468017578125
-0.394073486328125
-0.209503173828125
0.214630126953125
0.189727783203125
-0.234405517578125
-0.252685546875
0.2047119140625
-0.040283203125
0.0208740234375
0.372100830078125
-0.331451416015625
-0.56622314453125
0.61126708984375
0.59002685546875
-0.56402587890625
-0.374664306640625
0.385284423828125
0.247955322265625
-0.271026611328125
-0.208404541015625
0.180572509765625
0.1417236328125
-0.199615478515625
0.019775390625
-0.02783203125
-0.384918212890625
0.42230224609375
0.59332275390625
-0.54571533203125
-0.52960205078125
0.55670166015625
0.392608642578125
-0.389678955078125
-0.227813720703125
0.225982666015625
0.217926025390625
-0.277252197265625
-0.214263916015625
0.15966796875
-0.093017578125
0.097412109375
0.45123291015625
-0.398834228515625
-0.58892822265625
0.62078857421875
0.52520751953125
-0.50323486328125
-0.347198486328125
0.356719970703125
0.221954345703125
-0.244659423828125
-0.225250244140625
0.194488525390625
0.17578125
-0.243927001953125
0.0677490234375
-0.071044921875
-0.433258056640625
0.48052978515625
0.63360595703125
-0.58892822265625
-0.54644775390625
0.56988525390625
0.336578369140625
-0.335845947265625
-0.197418212890625
0.196319580078125
0.206207275390625
-0.257476806640625
-0.17138671875
0.1241455078125
-0.09814453125
0.087158203125
0.457794189453125
-0.408355712890625
-0.58123779296875
0.62701416015625
0.53033447265625
-0.50799560546875
-0.36517333984375
0.37579345703125
0.216461181640625
-0.242095947265625
-0.21826171875
0.1783447265625
0.123779296875
-0.1783447265625
0.1669921875
-0.157470703125
-0.427032470703125
0.472808837890625
0.61419677734375
-0.56622314453125
-0.49114990234375
0.51019287109375
0.302154541015625
-0.310211181640625
-0.258209228515625
0.248687744140625
0.195953369140625
-0.258941650390625
-0.16259765625
0.1160888671875
-0.13916015625
0.1468505859375
0.555572509765625
-0.49664306640625
-0.57464599609375
0.61676025390625
0.48199462890625
-0.466949462890625
-0.333648681640625
0.330718994140625
0.181671142578125
-0.198516845703125
-0.243927001953125
0.208404541015625
0.1153564453125
-0.1856689453125
0.1864013671875
-0.1702880859375
-0.456329345703125
0.506500244140625
0.651947021484375
-0.609100341796875
-0.48016357421875
0.49664306640625
0.282012939453125
-0.294830322265625
-0.244293212890625
0.231475830078125
0.15966796875
-0.2197265625
-0.1376953125
0.09521484375
-0.169189453125
0.1783447265625
0.54278564453125
-0.48016357421875
-0.54754638671875
0.59039306640625
0.495880126953125
-0.483795166015625
-0.32379150390625
0.328887939453125
0.187164306640625
-0.226348876953125
-0.248291015625
0.199981689453125
0.060791015625
-0.0992431640625
0.2347412109375
-0.210235595703125
-0.47686767578125
0.521514892578125
0.619720458984375
-0.58087158203125
-0.423736572265625
0.43804931640625
0.280914306640625
-0.291900634765625
-0.249420166015625
0.237335205078125
0.1856689453125
-0.2523193359375
-0.1307373046875
0.0845947265625
-0.238800048828125
0.257080078125
0.58013916015625
-0.51568603515625
-0.55889892578125
0.59222412109375
0.463287353515625
-0.455596923828125
-0.251220703125
0.260406494140625
0.181671142578125
-0.219390869140625
-0.261871337890625
0.217193603515625
0.054931640625
-0.097412109375
0.2156982421875
-0.190093994140625
-0.51165771484375
0.56109619140625
0.649749755859375
-0.61785888671875
-0.424102783203125
0.436920166015625
0.273590087890625
-0.288238525390625
-0.214630126953125
0.197052001953125
0.16845703125
-0.22998046875
-0.090087890625
0.0582275390625
-0.267730712890625
0.287872314453125
0.53912353515625
-0.48748779296875
-0.56109619140625
0.59002685546875
0.452667236328125
-0.442413330078125
-0.255645751953125
0.265167236328125
0.226348876953125
-0.271026611328125
-0.223388671875
0.1834716796875
0.01171875
-0.0347900390625
0.296661376953125
-0.276519775390625
-0.53948974609375
0.58013916015625
0.57757568359375
-0.54315185546875
-0.393341064453125
0.405426025390625
0.254180908203125
-0.268096923828125
-0.218658447265625
0.202911376953125
0.20361328125
-0.274322509765625
-0.0531005859375
0.027099609375
-0.297027587890625
0.32855224609375
0.59039306640625
-0.53912353515625
-0.57647705078125
0.60504150390625
0.391143798828125
-0.390411376953125
-0.226348876953125
0.2318115234375
0.185333251953125
-0.227813720703125
-0.22265625
0.191925048828125
0.041015625
-0.063720703125
0.318634033203125
-0.306549072265625
-0.56768798828125
0.63250732421875
0.57244873046875
-0.53875732421875
-0.392608642578125
0.379425048828125
0.236236572265625
-0.253448486328125
-0.214996337890625
0.193023681640625
0.164794921875
-0.2244873046875
0.0054931640625
-0.0142822265625
-0.289703369140625
0.314239501953125
0.56988525390625
-0.53289794921875
-0.54827880859375
0.57464599609375
0.363677978515625
-0.362579345703125
-0.263702392578125
0.266998291015625
0.211334228515625
-0.250152587890625
-0.211669921875
0.175048828125
0.000732421875
-0.018310546875
0.398468017578125
-0.366607666015625
-0.54534912109375
0.58489990234375
0.53948974609375
-0.51275634765625
-0.373199462890625
0.381256103515625
0.192291259765625
-0.209869384765625
-0.246490478515625
0.225982666015625
0.1944580078125
-0.251983642578125
0.02197265625
-0.0303955078125
-0.320098876953125
0.35015869140625
0.62847900390625
-0.58636474609375
-0.53033447265625
0.55523681640625
0.340972900390625
-0.341339111328125
-0.231842041015625
0.2325439453125
0.158599853515625
-0.204376220703125
-0.2406005859375
0.202911376953125
-0.0128173828125
-0.0054931640625
0.400299072265625
-0.365875244140625
-0.51934814453125
0.56512451171875
0.56292724609375
-0.53692626953125
-0.374664306640625
0.385284423828125
0.187530517578125
-0.215728759765625
-0.244659423828125
0.234771728515625
0.1527099609375
-0.1988525390625
0.04248046875
-0.059326171875
-0.347198486328125
0.380523681640625
0.59552001953125
-0.55340576171875
-0.48895263671875
0.51239013671875
0.350860595703125
-0.353790283203125
-0.254180908203125
0.252716064453125
0.186431884765625
-0.231109619140625
-0.2230224609375
0.180908203125
-0.0728759765625
0.0556640625
0.429962158203125
-0.392608642578125
-0.54168701171875
0.58599853515625
0.54681396484375
-0.51898193359375
-0.314239501953125
0.323028564453125
0.187896728515625
-0.211334228515625
-0.265533447265625
0.232940673828125
0.160400390625
-0.214599609375
0.0618896484375
-0.06005859375
-0.397735595703125
0.437652587890625
0.61712646484375
-0.57171630859375
-0.49627685546875
0.51531982421875
0.347198486328125
-0.351593017578125
-0.208404541015625
0.208404541015625
0.171783447265625
-0.219757080078125
-0.2109375
0.1680908203125
-0.0948486328125
0.082763671875
0.430694580078125
-0.388214111328125
-0.55084228515625
0.59552001953125
0.52154541015625
-0.50067138671875
-0.319366455078125
