0.286041259765625
-0.294097900390625
0.286773681640625
-0.286041259765625
0.000732421875
0.0142822265625
-0.000732421875
0.0113525390625
0.0018310546875
0.0003662109375
0.0029296875
-0.01171875
0.01025390625
-0.0113525390625
0.0205078125
-0.0047607421875
0.00439453125
0.0216064453125
-0.0146484375
0.09228515625
0.0465087890625
0.285308837890625
-0.1182861328125
0.768402099609375
-0.1651611328125
0.733612060546875
0.471710205078125
0.180572509765625
0.56549072265625
0.0003662109375
-0.029296875
0.0
-0.33514404296875
0.0
-0.50946044921875
-0.0318603515625
-0.134765625
-0.0003662109375
0.606903076171875
0.00439453125
0.44903564453125
0.0003662109375
-1.0
0.0267333984375
-0.681610107421875
-0.0003662109375
0.0
0.0
-0.797332763671875
-0.0003662109375
0.0
0.0003662109375
1.0
0.000732421875
1.0
0.0003662109375
0.0
0.0
0.0
0.0
-1.0
-0.000732421875
-1.0
-0.000732421875
-0.33404541015625
0.0
0.0
0.0
0.0
0.0
0.0
0.0
0.0
0.0
0.0
0.0
0.0
0.0
0.194854736328125
0.0
0.53765869140625
0.0
0.61090087890625
0.0003662109375
0.49591064453125
0.000732421875
0.42376708984375
0.0003662109375
0.401031494140625
0.0
0.265533447265625
0.0
0.065216064453125
0.0
0.0047607421875
0.0
0.0
0.0
0.0
0.0
0.0
0.0
-0.0106201171875
0.0
-0.056427001953125
0.0
-0.031524658203125
0.0
0.0157470703125
0.0
-0.0172119140625
0.0
-0.0662841796875
0.0
-0.0494384765625
0.0
-0.03662109375
0.0
-0.066650390625
0.0
-0.0443115234375
-0.0003662109375
-0.0311279296875
0.0
-0.0611572265625
0.0003662109375
-0.056396484375
-0.0069580078125
-0.041015625
-0.029296875
-0.0435791015625
-0.056060791015625
-0.0172119140625
-0.059722900390625
-0.023834228515625
-0.034423828125
-0.043975830078125
-0.0234375
-0.0582275390625
-0.01904296875
-0.0582275390625
-0.010986328125
-0.0611572265625
-0.010986328125
-0.0670166015625
-0.0069580078125
-0.0391845703125
-0.016845703125
-0.104736328125
-0.0216064453125
-0.126373291015625
-0.0172119140625
-0.047637939453125
-0.0318603515625
-0.0164794921875
-0.0377197265625
-0.0113525390625
-0.029296875
-0.006591796875
-0.0238037109375
-0.0062255859375
-0.041748046875
-0.02197265625
-0.0450439453125
0.030029296875
-0.0384521484375
0.053497314453125
-0.0142822265625
0.013580322265625
-0.0069580078125
0.0087890625
-0.0303955078125
0.0128173828125
-0.026397705078125
0.0098876953125
-0.031524658203125
-0.009521484375
-0.0303955078125
-0.008056640625
-0.028564453125
0.005126953125
-0.022705078125
-0.014312744140625
-0.024169921875
-0.021270751953125
-0.031494140625
-0.0062255859375
-0.0289306640625
0.012847900390625
-0.02197265625
0.011016845703125
-0.0135498046875
0.0029296875
-0.02197265625
-0.011383056640625
-0.0267333984375
-0.023468017578125
-0.0223388671875
-0.01171875
-0.018310546875
-0.018310546875
-0.0179443359375
-0.0128173828125
-0.01611328125
0.003662109375
-0.0135498046875
0.00732421875
-0.0146484375
0.0003662109375
-0.0032958984375
-0.0084228515625
-0.005859375
0.0
-0.0289306640625
0.0113525390625
-0.0340576171875
0.0091552734375
-0.0245361328125
0.0062255859375
-0.0362548828125
-0.0296630859375
-0.009521484375
-0.0157470703125
-0.01171875
0.0205078125
-0.0076904296875
0.01025390625
0.0128173828125
0.0146484375
-0.012451171875
0.0106201171875
-0.0054931640625
0.005126953125
-0.003662109375
0.0084228515625
-0.0084228515625
0.0040283203125
-0.0029296875
-0.0084228515625
0.0025634765625
-0.01171875
-0.002197265625
-0.010986328125
-0.0025634765625
-0.0084228515625
0.0003662109375
-0.002197265625
0.0
-0.00146484375
-0.004791259765625
-0.005126953125
-0.0018310546875
-0.0087890625
0.008819580078125
-0.0135498046875
0.0164794921875
-0.025634765625
0.0201416015625
-0.0223388671875
0.0230712890625
-0.0234375
0.0369873046875
-0.0355224609375
0.0380859375
-0.0164794921875
0.04541015625
0.015380859375
0.0516357421875
0.0648193359375
-0.0010986328125
0.145050048828125
-0.0567626953125
0.188995361328125
-0.02490234375
0.1219482421875
0.03369140625
0.04541015625
0.0699462890625
-0.0560302734375
0.1094970703125
-0.182373046875
0.140655517578125
-0.247222900390625
0.238067626953125
-0.210601806640625
0.205810546875
-0.132568359375
0.0626220703125
-0.133697509765625
0.021240234375
-0.158599853515625
0.02490234375
-0.06298828125
-0.0743408203125
0.0040283203125
-0.129638671875
-0.06298828125
-0.0523681640625
-0.07177734375
-0.06298828125
-0.0205078125
-0.0933837890625
0.0267333984375
-0.082061767578125
0.066650390625
-0.072540283203125
0.0948486328125
-0.0970458984375
0.09814453125
-0.0849609375
0.091217041015625
-0.0450439453125
0.067047119140625
-0.035888671875
-0.0029296875
-0.035888671875
-0.0179443359375
-0.0421142578125
0.0146484375
-0.034423828125
0.021240234375
-0.0230712890625
0.0333251953125
-0.030029296875
0.024169921875
-0.0142822265625
0.005859375
-0.00146484375
0.00439453125
-0.0150146484375
0.00146484375
-0.016845703125
-0.003662109375
-0.013946533203125
0.0029296875
-0.033355712890625
-0.0267333984375
-0.0347900390625
-0.0032958984375
-0.030029296875
0.0380859375
-0.0062255859375
0.018310546875
0.00146484375
0.0120849609375
-0.029296875
0.0098876953125
-0.0274658203125
0.0040283203125
-0.0230712890625
0.00146484375
-0.01904296875
0.002197265625
-0.0120849609375
0.0040283203125
-0.0098876953125
0.0106201171875
-0.015380859375
0.0201416015625
-0.024169921875
0.0223388671875
-0.0340576171875
0.0179443359375
-0.0296630859375
0.0216064453125
-0.0186767578125
0.024169921875
-0.012451171875
0.0150146484375
-0.00732421875
0.0098876953125
-0.01611328125
0.0098876953125
-0.0216064453125
0.0128173828125
-0.02490234375
0.01171875
-0.0252685546875
0.0047607421875
-0.0263671875
0.005859375
-0.0380859375
0.0106201171875
-0.0054931640625
0.01318359375
0.000732421875
0.0120849609375
-0.0252685546875
0.010986328125
-0.0201416015625
0.0098876953125
-0.011749267578125
0.000732421875
-0.013946533203125
-0.0355224609375
-0.0106201171875
0.005126953125
-0.00439453125
0.054931640625
0.029693603515625
0.0230712890625
0.033355712890625
0.0142822265625
-0.005859375
0.0113525390625
0.002197265625
0.005126953125
0.0087890625
0.005126953125
0.0098876953125
0.0018310546875
0.0040283203125
-0.00439453125
0.0087890625
-0.00439453125
0.0106201171875
0.00146484375
0.0025634765625
0.00439453125
0.005126953125
0.002197265625
0.00439453125
-0.0040283203125
0.006591796875
-0.0025634765625
0.0040283203125
0.0054931640625
0.005126953125
0.005859375
0.00439453125
0.0029296875
0.0003662109375
0.0091552734375
0.002197265625
0.0146484375
0.01025390625
0.013214111328125
0.0032958984375
0.011749267578125
0.0010986328125
0.006591796875
0.013916015625
-0.00146484375
0.009521484375
-0.0003662109375
0.0032958984375
-0.00146484375
0.00146484375
-0.012481689453125
0.0003662109375
-0.007720947265625
-0.0234375
-0.0274658203125
-0.0303955078125
0.0
-0.0205078125
0.036651611328125
0.0054931640625
0.016876220703125
0.01025390625
0.010986328125
-0.017578125
0.005859375
-0.019775390625
0.0018310546875
-0.0164794921875
0.0003662109375
-0.012451171875
-0.005126953125
-0.0010986328125
-0.015380859375
0.0146484375
-0.0076904296875
0.005126953125
-0.00439453125
-0.0018310546875
-0.008087158203125
-0.000732421875
0.047607421875
-0.005859375
0.031890869140625
-0.003662109375
-0.03369140625
0.00439453125
-0.0201416015625
0.005126953125
-0.010986328125
-0.000732421875
-0.0106201171875
-0.00146484375
-0.011016845703125
0.0032958984375
-0.013580322265625
0.000732421875
-0.0091552734375
-0.008056640625
-0.0076904296875
-0.0040283203125
-0.006591796875
0.0076904296875
-0.0018310546875
0.003662109375
-0.0003662109375
-0.0029296875
0.00146484375
0.00732421875
-0.0025634765625
0.0018310546875
-0.003662109375
-0.038848876953125
-0.034423828125
-0.037017822265625
-0.0025634765625
-0.0025634765625
0.041015625
0.021636962890625
0.0091552734375
0.0120849609375
0.0018310546875
0.0003662109375
0.0113525390625
0.009918212890625
0.017974853515625
-0.0003662109375
0.023834228515625
0.0040283203125
0.02783203125
0.0054931640625
0.028564453125
0.0040283203125
0.0340576171875
0.0054931640625
0.0150146484375
-0.0003662109375
-0.0010986328125
0.005859375
-0.0029296875
0.0113525390625
-0.0179443359375
0.005859375
-0.0245361328125
0.0076904296875
-0.024169921875
0.009521484375
-0.0223388671875
0.0098876953125
-0.019775390625
0.01318359375
-0.016143798828125
0.010986328125
-0.014312744140625
0.0054931640625
-0.0106201171875
-0.0003662109375
-0.009521484375
-0.006591796875
0.005126953125
-0.00732421875
0.0135498046875
-0.0076904296875
-0.018310546875
-0.0032958984375
-0.0208740234375
-0.00146484375
0.0040283203125
-0.005859375
0.002197265625
-0.0380859375
-0.005126953125
-0.039581298828125
0.0208740234375
0.029296875
0.0245361328125
0.031158447265625
-0.0040283203125
0.0018310546875
0.0003662109375
0.006591796875
0.002197265625
0.0029296875
-0.000732421875
0.0003662109375
0.00439453125
0.00146484375
0.010650634765625
0.0087890625
0.005157470703125
0.0113525390625
0.000732421875
0.005859375
-0.004791259765625
0.0062255859375
-0.007354736328125
0.005859375
0.006622314453125
-0.0062255859375
-0.0032958984375
-0.0128173828125
-0.010284423828125
-0.003662109375
-0.0029296875
-0.0010986328125
0.00732421875
-0.00732421875
-0.000732421875
-0.0098876953125
-0.0150146484375
0.0010986328125
-0.0087890625
0.0113525390625
-0.0087890625
0.0113525390625
-0.012451171875
0.013916015625
-0.0146484375
0.018310546875
-0.0164794921875
0.009521484375
-0.0157470703125
-0.00439453125
-0.0194091796875
-0.003662109375
-0.0205078125
-0.0003662109375
-0.01904296875
-0.0146484375
-0.0457763671875
-0.00439453125
-0.0087890625
0.019775390625
0.0340576171875
0.0194091796875
0.00732421875
0.010986328125
0.000732421875
0.0
0.0003662109375
-0.0135498046875
0.00146484375
-0.018310546875
0.0029296875
-0.012451171875
0.002197265625
-0.0069580078125
-0.003662109375
0.0069580078125
-0.005859375
0.0150146484375
-0.00146484375
0.0146484375
-0.0010986328125
0.0098876953125
0.0
0.0003662109375
-0.0003662109375
0.0025634765625
-0.0029296875
0.0084228515625
0.000732421875
0.0087890625
0.00146484375
0.0087890625
0.0
0.0047607421875
0.00146484375
0.000732421875
0.000732421875
-0.0146484375
-0.000732421875
-0.018310546875
-0.00146484375
-0.0018310546875
0.000732421875
0.0029296875
0.0040283203125
-0.0025634765625
0.0018310546875
-0.0029296875
-0.0054931640625
-0.0120849609375
-0.00732421875
-0.0146484375
-0.032958984375
-0.034423828125
-0.0179443359375
-0.0391845703125
0.03515625
0.0157470703125
0.0223388671875
0.0238037109375
-0.000732421875
-0.0010986328125
0.0003662109375
-0.002197265625
0.003662109375
-0.00146484375
0.005126953125
-0.00439453125
0.002197265625
0.006591796875
-0.0047607421875
0.017578125
-0.0084228515625
0.0150146484375
-0.003662109375
0.01171875
0.0
0.009521484375
0.00146484375
0.00732421875
0.0040283203125
0.0032958984375
0.0032958984375
0.000732421875
0.002197265625
0.0
0.0062255859375
0.0018310546875
0.005126953125
0.00146484375
0.003662109375
0.0010986328125
0.0087890625
-0.0010986328125
0.00732421875
-0.002197265625
0.00732421875
0.002197265625
0.01025390625
0.00732421875
0.01025390625
0.0010986328125
0.00732421875
-0.0069580078125
0.0106201171875
-0.0018310546875
0.00732421875
0.0
-0.0106201171875
-0.0135498046875
-0.046875
-0.0135498046875
-0.0208740234375
-0.015380859375
0.0223388671875
0.01611328125
0.0135498046875
0.0303955078125
0.0040283203125
0.005859375
-0.00439453125
0.0018310546875
0.0010986328125
0.0025634765625
0.01025390625
0.0087890625
0.012451171875
0.0032958984375
0.0
0.010986328125
0.00146484375
0.010986328125
0.005859375
0.0
0.003662109375
-0.0029296875
0.00146484375
-0.005859375
-0.00732421875
-0.0084228515625
-0.010986328125
-0.00439453125
-0.003662109375
0.000732421875
-0.0032958984375
0.00439453125
-0.009521484375
0.00146484375
-0.0084228515625
-0.0025634765625
-0.0069580078125
0.000732421875
-0.00439453125
0.0003662109375
-0.0054931640625
-0.0003662109375
-0.0091552734375
0.0069580078125
-0.0091552734375
0.0029296875
-0.0076904296875
-0.000732421875
-0.0142822265625
-0.0047607421875
-0.0164794921875
-0.0186767578125
-0.024169921875
-0.0494384765625
-0.03515625
-0.03955078125
0.015380859375
0.031494140625
0.0377197265625
0.0391845703125
0.013916015625
-0.0029296875
0.008056640625
-0.012451171875
-0.0010986328125
-0.00439453125
-0.0003662109375
-0.0010986328125
0.00146484375
-0.0029296875
-0.0069580078125
0.003662109375
-0.013916015625
0.002197265625
-0.0087890625
-0.0076904296875
-0.0032958984375
-0.00732421875
-0.002197265625
-0.000732421875
-0.00146484375
0.002197265625
0.0010986328125
0.0003662109375
-0.00146484375
0.0003662109375
-0.00439453125
-0.0087890625
-0.003662109375
-0.0054931640625
-0.003662109375
0.01171875
0.000732421875
0.0091552734375
0.0025634765625
0.0
0.0040283203125
0.0010986328125
0.003662109375
0.0106201171875
-0.0029296875
0.009521484375
0.003662109375
0.0018310546875
0.005126953125
0.010986328125
-0.0018310546875
0.015380859375
-0.0047607421875
-0.009521484375
-0.0325927734375
-0.021240234375
-0.0018310546875
-0.01025390625
0.0439453125
0.024169921875
0.0216064453125
0.0355224609375
0.0186767578125
0.031494140625
0.01904296875
0.0238037109375
0.0120849609375
-0.0040283203125
0.005126953125
-0.003662109375
-0.0040283203125
-0.0018310546875
-0.0040283203125
-0.0040283203125
-0.0047607421875
-0.0098876953125
-0.0010986328125
-0.0054931640625
-0.00146484375
0.0025634765625
-0.0047607421875
0.0
-0.010986328125
-0.00146484375
-0.0179443359375
-0.000732421875
-0.01171875
0.0032958984375
0.005859375
0.009521484375
-0.002197265625
0.003662109375
-0.00146484375
-0.002197265625
0.0106201171875
-0.0010986328125
0.0106201171875
0.0
0.0003662109375
-0.0018310546875
-0.005859375
-0.0047607421875
-0.006591796875
-0.0069580078125
-0.0135498046875
-0.0069580078125
-0.0076904296875
-0.0029296875
0.0025634765625
0.0018310546875
-0.0062255859375
-0.031494140625
-0.028564453125
-0.0347900390625
0.010986328125
0.024169921875
0.028564453125
0.029296875
0.0010986328125
-0.0010986328125
-0.01025390625
-0.002197265625
-0.018310546875
0.0025634765625
-0.0106201171875
0.0003662109375
-0.0062255859375
0.002197265625
-0.012451171875
0.0040283203125
-0.0113525390625
0.0003662109375
-0.0062255859375
-0.0025634765625
-0.0032958984375
0.0
-0.0018310546875
0.0003662109375
0.0003662109375
-0.0010986328125
0.0018310546875
-0.002197265625
0.0025634765625
0.00439453125
0.0025634765625
0.0029296875
-0.0029296875
-0.0010986328125
-0.0040283203125
0.003662109375
-0.0018310546875
-0.003662109375
-0.0010986328125
-0.0032958984375
-0.0010986328125
0.0018310546875
-0.003662109375
0.0113525390625
-0.005126953125
0.01171875
-0.000732421875
-0.0029296875
0.000732421875
-0.0029296875
-0.0018310546875
-0.008056640625
-0.008056640625
-0.0234375
-0.037353515625
-0.0281982421875
0.0018310546875
0.0098876953125
0.0399169921875
0.0421142578125
0.0106201171875
0.0223388671875
0.005126953125
0.00146484375
0.005859375
-0.0029296875
0.005859375
0.002197265625
0.0062255859375
0.00439453125
0.0018310546875
0.0032958984375
-0.0032958984375
0.00732421875
0.0003662109375
0.0076904296875
0.0029296875
-0.005859375
0.0032958984375
-0.0047607421875
0.005859375
0.0076904296875
0.0040283203125
0.01171875
0.003662109375
0.00732421875
0.005126953125
0.00439453125
0.0025634765625
0.0054931640625
0.005126953125
-0.0025634765625
0.0025634765625
-0.0010986328125
-0.0010986328125
0.0
0.002197265625
-0.0062255859375
0.00439453125
-0.00439453125
0.0025634765625
0.00732421875
-0.0018310546875
0.000732421875
-0.00146484375
-0.012451171875
0.0032958984375
-0.0069580078125
0.003662109375
-0.002197265625
-0.0018310546875
-0.0230712890625
-0.0274658203125
-0.0311279296875
0.00732421875
-0.0296630859375
0.03955078125
-0.0010986328125
0.015380859375
0.012451171875
0.00439453125
-0.005859375
0.008056640625
-0.0032958984375
0.0106201171875
-0.003662109375
0.0029296875
0.0032958984375
-0.0018310546875
0.0032958984375
-0.00732421875
0.0029296875
0.0010986328125
0.0047607421875
-0.002197265625
0.0040283203125
-0.0054931640625
0.00439453125
-0.002197265625
0.0032958984375
0.0
0.0
0.00146484375
0.0054931640625
-0.0029296875
0.013916015625
-0.0025634765625
0.01171875
-0.0029296875
0.0047607421875
-0.0069580078125
0.0032958984375
-0.0054931640625
0.0062255859375
-0.0029296875
0.0091552734375
-0.0047607421875
0.01025390625
-0.009521484375
0.0076904296875
-0.005126953125
0.005859375
0.00146484375
0.005126953125
-0.0025634765625
0.005859375
-0.00732421875
0.0040283203125
-0.0362548828125
-0.0274658203125
-0.019775390625
-0.043212890625
0.035888671875
0.01025390625
0.0238037109375
0.0205078125
0.0010986328125
-0.0091552734375
0.0018310546875
-0.009521484375
0.0010986328125
-0.0098876953125
0.0010986328125
-0.008056640625
0.000732421875
-0.006591796875
-0.0062255859375
0.0018310546875
-0.0091552734375
-0.0032958984375
-0.003662109375
-0.0164794921875
0.0003662109375
-0.0146484375
0.0010986328125
-0.009521484375
0.0010986328125
-0.0087890625
0.0010986328125
-0.0069580078125
-0.0010986328125
-0.0029296875
0.0
-0.0047607421875
0.00146484375
-0.0032958984375
0.0
0.0
0.000732421875
-0.0029296875
0.006591796875
-0.0040283203125
0.0040283203125
0.0032958984375
-0.0018310546875
0.01318359375
0.0003662109375
0.008056640625
0.0040283203125
-0.0018310546875
0.006591796875
-0.0029296875
0.0087890625
-0.0003662109375
0.0098876953125
-0.0234375
-0.016845703125
-0.030029296875
0.010986328125
0.0084228515625
0.044677734375
0.0377197265625
0.018310546875
0.0245361328125
0.005126953125
0.0003662109375
0.0010986328125
0.002197265625
0.0
0.003662109375
-0.00146484375
0.0029296875
-0.00146484375
0.005859375
-0.0076904296875
0.0106201171875
-0.00146484375
0.0054931640625
0.0010986328125
-0.0025634765625
-0.005859375
-0.0025634765625
0.0010986328125
-0.009521484375
0.0010986328125
-0.01025390625
-0.00439453125
-0.0062255859375
-0.000732421875
-0.0069580078125
-0.0032958984375
-0.0142822265625
-0.013916015625
-0.0120849609375
-0.0076904296875
-0.0018310546875
0.000732421875
0.0018310546875
0.0010986328125
0.0047607421875
0.00146484375
0.00146484375
0.00146484375
0.0047607421875
0.000732421875
0.01025390625
-0.0091552734375
0.0091552734375
-0.0205078125
0.0040283203125
-0.0120849609375
0.0010986328125
-0.0208740234375
-0.031494140625
-0.0347900390625
-0.032958984375
0.0150146484375
0.029296875
0.0318603515625
0.0267333984375
0.005126953125
-0.0010986328125
0.00146484375
0.00146484375
0.0
0.000732421875
0.0
0.00146484375
-0.002197265625
0.0029296875
-0.0084228515625
0.0047607421875
-0.0113525390625
-0.003662109375
-0.0069580078125
-0.005859375
-0.0029296875
-0.00439453125
-0.0010986328125
-0.005126953125
-0.00146484375
-0.0029296875
-0.0003662109375
-0.003662109375
0.0025634765625
0.000732421875
0.0047607421875
0.000732421875
0.0018310546875
-0.00146484375
0.0003662109375
0.003662109375
0.0029296875
-0.0010986328125
0.0025634765625
-0.0076904296875
0.002197265625
-0.0062255859375
-0.00146484375
0.0047607421875
-0.005859375
0.005126953125
0.000732421875
-0.0025634765625
0.00439453125
0.0
-0.0029296875
0.0040283203125
-0.0076904296875
0.00439453125
-0.0322265625
-0.019775390625
-0.0120849609375
-0.030029296875
0.0325927734375
0.0267333984375
0.0179443359375
0.038818359375
0.000732421875
0.0029296875
0.0025634765625
0.0
0.0010986328125
0.00146484375
-0.0025634765625
0.002197265625
0.000732421875
-0.0029296875
-0.0032958984375
0.0010986328125
-0.005859375
0.005126953125
0.0003662109375
0.0018310546875
0.0
0.00146484375
0.0018310546875
-0.002197265625
0.0025634765625
-0.0025634765625
0.000732421875
0.0
-0.0003662109375
0.0003662109375
-0.0010986328125
0.002197265625
0.0010986328125
0.0029296875
0.003662109375
0.00439453125
0.0025634765625
-0.0003662109375
0.0003662109375
-0.0040283203125
-0.0025634765625
0.002197265625
-0.00146484375
0.0003662109375
0.009521484375
0.0054931640625
0.0142822265625
0.009521484375
0.0135498046875
0.0003662109375
0.0087890625
-0.0029296875
0.0098876953125
-0.0054931640625
0.0106201171875
-0.0406494140625
-0.0289306640625
-0.0413818359375
-0.002197265625
0.005126953125
0.0355224609375
0.0252685546875
0.003662109375
0.0201416015625
-0.0047607421875
0.005859375
0.00146484375
-0.0029296875
-0.0003662109375
0.000732421875
-0.017578125
0.005859375
-0.021240234375
0.00732421875
-0.0010986328125
0.01171875
0.000732421875
0.0040283203125
-0.0062255859375
-0.003662109375
0.0084228515625
0.002197265625
0.0025634765625
0.0018310546875
-0.0208740234375
0.0029296875
-0.0238037109375
0.0069580078125
-0.003662109375
-0.0010986328125
0.003662109375
0.0
-0.0029296875
-0.0003662109375
-0.0025634765625
0.0010986328125
-0.0029296875
0.00439453125
0.0
-0.0018310546875
-0.0018310546875
-0.00146484375
-0.006591796875
0.0120849609375
-0.0032958984375
0.0054931640625
0.0010986328125
-0.0062255859375
0.005859375
-0.0025634765625
0.003662109375
-0.002197265625
-0.0062255859375
-0.015380859375
-0.0369873046875
-0.029296875
-0.0018310546875
-0.015380859375
0.0380859375
0.0322265625
0.00732421875
0.03369140625
-0.0003662109375
0.002197265625
-0.000732421875
0.00439453125
-0.0025634765625
0.0040283203125
-0.0047607421875
0.00439453125
-0.0054931640625
0.00439453125
-0.0032958984375
0.0054931640625
-0.0062255859375
0.0040283203125
-0.0040283203125
-0.005126953125
0.00146484375
-0.0084228515625
-0.000732421875
-0.0003662109375
0.0003662109375
0.000732421875
0.00146484375
-0.0003662109375
0.0010986328125
0.0018310546875
0.0032958984375
0.0
0.0047607421875
-0.003662109375
0.0040283203125
-0.0047607421875
0.0032958984375
-0.002197265625
0.0010986328125
0.0010986328125
0.000732421875
0.0032958984375
0.0010986328125
0.0084228515625
-0.0003662109375
0.00439453125
0.0062255859375
-0.0076904296875
0.0054931640625
-0.006591796875
-0.00146484375
0.0010986328125
-0.0069580078125
-0.0025634765625
-0.0322265625
-0.0128173828125
-0.006591796875
-0.017578125
0.043212890625
0.016845703125
0.0260009765625
0.0325927734375
0.0076904296875
0.002197265625
0.0084228515625
-0.0047607421875
0.0062255859375
-0.0018310546875
0.008056640625
0.00146484375
0.01171875
0.0003662109375
0.00732421875
0.0047607421875
-0.002197265625
0.0062255859375
-0.0069580078125
-0.0003662109375
0.00146484375
0.0029296875
0.0054931640625
0.0003662109375
0.0010986328125
-0.0047607421875
0.0
-0.00146484375
-0.003662109375
0.002197265625
-0.0069580078125
-0.0003662109375
-0.0113525390625
-0.003662109375
-0.0047607421875
-0.0084228515625
0.00439453125
-0.0040283203125
0.0018310546875
0.002197265625
-0.0018310546875
-0.0029296875
-0.0018310546875
0.0032958984375
-0.0003662109375
0.0091552734375
0.0003662109375
-0.000732421875
-0.0054931640625
-0.0047607421875
-0.003662109375
0.00146484375
-0.0032958984375
0.0040283203125
-0.0142822265625
-0.035888671875
-0.02197265625
-0.04248046875
0.0106201171875
0.024169921875
0.03369140625
0.0355224609375
0.0157470703125
0.0054931640625
0.002197265625
-0.005126953125
-0.0029296875
0.0
-0.000732421875
0.0047607421875
0.000732421875
0.0029296875
-0.00439453125
0.006591796875
-0.0120849609375
0.0040283203125
-0.0076904296875
-0.0032958984375
0.00146484375
-0.0087890625
-0.000732421875
-0.0029296875
-0.0047607421875
-0.0018310546875
-0.000732421875
-0.0029296875
0.0029296875
0.0047607421875
0.0069580078125
0.0025634765625
0.0040283203125
-0.0018310546875
0.0010986328125
-0.0010986328125
0.0
0.0025634765625
0.0
0.0
0.0025634765625
-0.0029296875
-0.0018310546875
-0.0029296875
-0.006591796875
0.0054931640625
-0.0025634765625
0.0062255859375
0.0025634765625
-0.0018310546875
-0.00146484375
0.0
-0.006591796875
0.0
-0.009521484375
-0.031494140625
-0.041015625
-0.03955078125
-0.0029296875
0.009521484375
0.0325927734375
0.04248046875
0.0018310546875
0.0216064453125
0.0010986328125
-0.0040283203125
0.0
-0.0018310546875
-0.000732421875
0.0
0.00146484375
-0.000732421875
-0.0040283203125
0.0032958984375
-0.00732421875
0.00439453125
-0.0025634765625
0.000732421875
0.0
-0.000732421875
0.0032958984375
-0.00146484375
0.0029296875
0.0010986328125
0.002197265625
0.0003662109375
0.0018310546875
0.0025634765625
0.0
0.0025634765625
-0.0032958984375
0.0032958984375
-0.0062255859375
0.0069580078125
-0.00439453125
0.005859375
0.0003662109375
0.005126953125
0.003662109375
0.0010986328125
0.0054931640625
0.0
-0.0032958984375
0.0142822265625
-0.005859375
0.0098876953125
0.0054931640625
-0.012451171875
0.01025390625
-0.010986328125
0.0128173828125
-0.002197265625
0.0003662109375
-0.00146484375
-0.029296875
-0.0113525390625
-0.0087890625
-0.027099609375
0.030029296875
0.0142822265625
0.0205078125
0.0289306640625
0.0076904296875
-0.0025634765625
0.005126953125
-0.0029296875
0.0025634765625
0.0010986328125
0.0032958984375
0.0032958984375
0.0010986328125
-0.002197265625
-0.0091552734375
0.006591796875
-0.006591796875
0.009521484375
0.00146484375
-0.0054931640625
-0.0010986328125
-0.00732421875
-0.0018310546875
0.0
-0.0003662109375
-0.0029296875
-0.0018310546875
-0.0054931640625
-0.0018310546875
-0.0003662109375
-0.000732421875
0.0047607421875
-0.0025634765625
0.0018310546875
-0.00439453125
-0.000732421875
-0.0025634765625
0.002197265625
-0.0018310546875
0.003662109375
0.002197265625
-0.0032958984375
0.0025634765625
0.003662109375
-0.0062255859375
0.0098876953125
-0.010986328125
-0.0047607421875
-0.008056640625
-0.0084228515625
-0.00439453125
-0.002197265625
-0.00732421875
0.0010986328125
-0.0311279296875
-0.03662109375
-0.02783203125
-0.0391845703125
0.025634765625
0.0340576171875
0.03076171875
0.0377197265625
0.005859375
-0.00146484375
0.000732421875
-0.00146484375
0.000732421875
0.000732421875
0.003662109375
-0.0010986328125
0.0032958984375
-0.0010986328125
-0.003662109375
0.0010986328125
-0.0069580078125
0.0
-0.0025634765625
-0.0025634765625
-0.0003662109375
0.0
-0.0003662109375
-0.00439453125
0.00146484375
-0.0091552734375
0.0032958984375
-0.0032958984375
0.0010986328125
-0.003662109375
0.0029296875
-0.0047607421875
0.0029296875
-0.00146484375
-0.0003662109375
-0.002197265625
0.0003662109375
-0.0029296875
0.0003662109375
-0.000732421875
-0.00146484375
0.0010986328125
-0.0018310546875
0.005859375
0.00146484375
0.0029296875
0.003662109375
-0.0010986328125
0.002197265625
-0.00146484375
0.000732421875
-0.00146484375
-0.0025634765625
0.005126953125
-0.0223388671875
-0.0208740234375
-0.01611328125
-0.0322265625
0.0238037109375
0.0263671875
0.0238037109375
0.0325927734375
0.0025634765625
0.0018310546875
0.0018310546875
0.0010986328125
-0.000732421875
0.00146484375
-0.0029296875
-0.00439453125
0.002197265625
-0.01025390625
-0.0018310546875
0.0069580078125
0.0
0.00732421875
0.013916015625
-0.0032958984375
0.0062255859375
-0.003662109375
0.006591796875
-0.0076904296875
0.015380859375
-0.00146484375
0.0069580078125
0.003662109375
0.00146484375
0.00146484375
-0.000732421875
0.0032958984375
-0.00146484375
0.0018310546875
0.000732421875
0.002197265625
0.005126953125
0.00146484375
0.003662109375
0.00146484375
0.002197265625
0.002197265625
-0.006591796875
0.0
-0.0146484375
0.010986328125
-0.0135498046875
0.0087890625
-0.005126953125
-0.0040283203125
0.0113525390625
-0.005859375
0.00732421875
-0.00439453125
-0.0113525390625
-0.01611328125
-0.0435791015625
-0.0238037109375
-0.01904296875
-0.010986328125
0.0172119140625
0.0263671875
-0.0040283203125
0.0303955078125
-0.0069580078125
-0.0010986328125
-0.0047607421875
-0.0018310546875
-0.0047607421875
0.0003662109375
-0.0025634765625
0.00146484375
-0.00439453125
0.0025634765625
-0.0076904296875
0.00439453125
-0.005859375
0.0003662109375
-0.0010986328125
-0.0029296875
-0.0032958984375
-0.0025634765625
-0.0062255859375
0.0003662109375
-0.0025634765625
-0.0010986328125
0.000732421875
-0.0018310546875
-0.0018310546875
0.0018310546875
-0.0032958984375
0.000732421875
0.0018310546875
-0.005126953125
0.0025634765625
-0.0040283203125
0.0029296875
-0.0003662109375
0.00439453125
-0.0040283203125
0.0
-0.003662109375
-0.002197265625
0.003662109375
-0.005859375
0.0054931640625
-0.002197265625
-0.002197265625
0.00439453125
-0.0029296875
0.000732421875
0.0032958984375
-0.006591796875
-0.0084228515625
-0.03515625
-0.031494140625
-0.003662109375
-0.0194091796875
0.0369873046875
0.0362548828125
0.0146484375
0.0347900390625
0.003662109375
0.002197265625
0.0010986328125
0.005126953125
0.00439453125
0.0003662109375
0.0032958984375
0.00146484375
0.0003662109375
0.0032958984375
-0.0029296875
0.005859375
-0.005126953125
0.005126953125
-0.0003662109375
-0.0029296875
0.002197265625
-0.00732421875
0.000732421875
-0.003662109375
0.0010986328125
0.0003662109375
0.003662109375
-0.0003662109375
0.0047607421875
0.002197265625
0.0025634765625
0.005126953125
-0.0003662109375
0.0047607421875
0.0018310546875
0.00146484375
0.0025634765625
0.0003662109375
0.0018310546875
0.00146484375
0.0025634765625
-0.0010986328125
0.0003662109375
-0.0040283203125
0.002197265625
0.0029296875
0.0018310546875
0.0032958984375
0.0025634765625
-0.003662109375
0.003662109375
-0.0018310546875
0.0018310546875
-0.00439453125
-0.0029296875
-0.01904296875
-0.030029296875
-0.022705078125
0.000732421875
-0.01318359375
0.0399169921875
0.025634765625
0.0157470703125
0.03076171875
0.0047607421875
-0.0047607421875
0.0025634765625
-0.0047607421875
-0.0003662109375
0.0003662109375
0.00146484375
0.0
0.0018310546875
-0.002197265625
-0.006591796875
0.0069580078125
-0.00439453125
0.00732421875
0.0069580078125
-0.003662109375
0.0087890625
-0.0025634765625
0.006591796875
0.0029296875
0.0032958984375
0.002197265625
0.000732421875
0.000732421875
0.0003662109375
0.0025634765625
0.0010986328125
0.0018310546875
0.0003662109375
0.002197265625
-0.00146484375
0.0
-0.005126953125
0.0010986328125
-0.0025634765625
-0.0003662109375
0.0010986328125
-0.0032958984375
-0.0018310546875
0.00439453125
-0.0032958984375
0.01171875
-0.00146484375
0.00439453125
-0.00146484375
-0.0047607421875
-0.00146484375
-0.005126953125
-0.003662109375
-0.0010986328125
-0.013916015625
-0.027099609375
-0.0450439453125
-0.03515625
0.002197265625
0.01025390625
0.0413818359375
0.0322265625
0.002197265625
0.01611328125
-0.002197265625
0.0
-0.0003662109375
0.0010986328125
0.0
0.000732421875
0.0029296875
-0.0047607421875
-0.000732421875
-0.0018310546875
-0.00732421875
0.00732421875
-0.005859375
0.0040283203125
0.000732421875
-0.00439453125
0.0047607421875
-0.00732421875
0.0018310546875
-0.0032958984375
0.00146484375
0.0
0.00146484375
0.0018310546875
0.0003662109375
0.000732421875
0.0
-0.0018310546875
-0.0010986328125
0.0003662109375
0.0003662109375
0.000732421875
0.0
0.0025634765625
-0.0018310546875
0.0025634765625
-0.0025634765625
0.002197265625
-0.0040283203125
0.008056640625
-0.00439453125
0.0054931640625
0.0003662109375
-0.002197265625
0.0047607421875
-0.0032958984375
0.003662109375
0.00439453125
0.0018310546875
-0.0032958984375
-0.027099609375
-0.015380859375
-0.0025634765625
-0.0223388671875
0.03662109375
0.01611328125
0.016845703125
0.0289306640625
0.015380859375
-0.01904296875
0.0172119140625
-0.018310546875
0.00732421875
-0.005126953125
-0.0010986328125
0.0
-0.053466796875
0.00146484375
-0.0574951171875
0.00732421875
-0.0076904296875
0.0084228515625
-0.00146484375
0.0010986328125
-0.0029296875
0.0018310546875
-0.005126953125
0.0
-0.00732421875
0.00146484375
-0.0003662109375
0.000732421875
0.0
0.0040283203125
-0.0120849609375
0.00439453125
-0.0091552734375
-0.002197265625
-0.0186767578125
0.0010986328125
-0.01318359375
0.0040283203125
-0.0040283203125
0.0025634765625
-0.0029296875
0.0010986328125
0.0062255859375
0.0
0.00439453125
0.003662109375
0.000732421875
0.00146484375
-0.0018310546875
-0.0047607421875
-0.002197265625
-0.00439453125
0.000732421875
-0.0025634765625
-0.0010986328125
-0.0186767578125
-0.03515625
-0.0238037109375
-0.0047607421875
-0.0157470703125
0.03662109375
0.022705078125
0.0084228515625
0.032958984375
-0.0025634765625
0.000732421875
0.00439453125
-0.0003662109375
0.009521484375
-0.0029296875
0.0025634765625
0.00146484375
-0.0025634765625
0.002197265625
-0.002197265625
0.0018310546875
-0.0025634765625
0.0018310546875
0.0010986328125
-0.003662109375
0.005859375
-0.0040283203125
0.0047607421875
-0.0003662109375
0.0040283203125
0.000732421875
0.0054931640625
-0.0003662109375
0.0062255859375
0.000732421875
0.0025634765625
0.0018310546875
-0.0010986328125
0.00146484375
0.0010986328125
0.000732421875
0.0029296875
-0.003662109375
0.0029296875
-0.0054931640625
0.0018310546875
-0.0018310546875
-0.0018310546875
0.00732421875
-0.002197265625
0.0054931640625
0.002197265625
-0.0032958984375
0.0040283203125
-0.0054931640625
0.000732421875
-0.000732421875
-0.005859375
0.0091552734375
-0.0311279296875
-0.019775390625
-0.012451171875
-0.0377197265625
0.032958984375
0.0252685546875
0.021240234375
0.0399169921875
0.0032958984375
0.0032958984375
0.00146484375
0.000732421875
0.0010986328125
-0.0010986328125
0.0029296875
-0.0018310546875
0.00439453125
-0.000732421875
-0.0003662109375
0.005126953125
-0.00439453125
0.00732421875
-0.0003662109375
-0.0010986328125
0.002197265625
-0.0054931640625
0.0032958984375
-0.0040283203125
0.0010986328125
-0.0018310546875
0.0054931640625
-0.0018310546875
0.0098876953125
-0.00146484375
0.0040283203125
0.0018310546875
0.0029296875
0.0003662109375
0.005126953125
0.0003662109375
0.0069580078125
0.002197265625
0.0084228515625
0.0018310546875
0.005859375
0.00146484375
0.00146484375
-0.0025634765625
-0.0025634765625
0.0029296875
-0.0040283203125
0.006591796875
-0.0032958984375
0.0
-0.000732421875
-0.0018310546875
0.0025634765625
-0.0003662109375
0.000732421875
-0.0003662109375
-0.0150146484375
-0.029296875
-0.0245361328125
-0.03515625
0.0087890625
0.0252685546875
0.0260009765625
0.03515625
0.0146484375
0.00146484375
0.008056640625
-0.0018310546875
0.0040283203125
-0.0003662109375
0.002197265625
-0.0040283203125
-0.0047607421875
-0.0047607421875
-0.0040283203125
0.00146484375
-0.0018310546875
0.0032958984375
-0.005126953125
-0.00146484375
-0.0047607421875
-0.002197265625
0.0
-0.0054931640625
-0.0010986328125
-0.005126953125
0.0003662109375
-0.0010986328125
0.002197265625
-0.000732421875
0.000732421875
-0.0029296875
0.0032958984375
-0.00439453125
0.002197265625
-0.0010986328125
0.000732421875
-0.0010986328125
0.0010986328125
-0.0003662109375
0.0003662109375
0.000732421875
-0.0032958984375
0.0003662109375
-0.00439453125
0.0062255859375
-0.003662109375
0.0047607421875
0.0003662109375
-0.0047607421875
0.00146484375
-0.005126953125
-0.0032958984375
-0.0025634765625
-0.00732421875
-0.0047607421875
-0.040283203125
-0.028564453125
-0.008056640625
-0.030029296875
0.0450439453125
0.0289306640625
0.0179443359375
0.03662109375
0.00146484375
0.00146484375
0.003662109375
-0.00146484375
0.0
0.0010986328125
-0.0003662109375
-0.000732421875
-0.0018310546875
-0.0029296875
-0.0054931640625
0.00146484375
-0.0076904296875
0.0025634765625
-0.0069580078125
-0.0003662109375
-0.002197265625
-0.000732421875
-0.00439453125
0.0032958984375
-0.0032958984375
0.0025634765625
-0.00146484375
0.002197265625
-0.0018310546875
0.00732421875
0.0018310546875
0.0032958984375
-0.0003662109375
0.0
-0.002197265625
0.0025634765625
0.0003662109375
0.0018310546875
0.0
0.0018310546875
-0.000732421875
0.00146484375
0.0010986328125
-0.00146484375
-0.0003662109375
0.0084228515625
-0.0029296875
0.005859375
0.002197265625
-0.0076904296875
0.00439453125
-0.0029296875
0.0003662109375
0.0018310546875
-0.0032958984375
-0.0120849609375
-0.0296630859375
-0.0201416015625
-0.00439453125
-0.01904296875
0.0347900390625
0.0208740234375
0.0120849609375
0.035888671875
0.0010986328125
0.0003662109375
0.00146484375
-0.0032958984375
0.0029296875
-0.0054931640625
0.0047607421875
-0.0054931640625
0.0
0.0032958984375
-0.0062255859375
0.0113525390625
0.0
-0.0003662109375
0.00439453125
-0.0069580078125
-0.000732421875
0.0003662109375
0.0003662109375
-0.0010986328125
0.00146484375
0.0
0.000732421875
0.0032958984375
0.002197265625
0.0018310546875
0.000732421875
0.0003662109375
0.003662109375
-0.0029296875
0.0029296875
-0.002197265625
-0.000732421875
0.000732421875
0.0018310546875
-0.00146484375
0.0
0.0025634765625
-0.000732421875
0.0003662109375
-0.00146484375
0.0084228515625
-0.00439453125
0.0047607421875
0.0018310546875
-0.0120849609375
0.002197265625
-0.0029296875
-0.0018310546875
0.00146484375
-0.0054931640625
-0.0087890625
-0.0362548828125
-0.0296630859375
0.0018310546875
-0.02783203125
0.0465087890625
0.03076171875
0.015380859375
0.037353515625
0.00146484375
0.0
0.0
-0.000732421875
0.003662109375
-0.003662109375
0.0029296875
-0.0003662109375
-0.0010986328125
-0.000732421875
-0.0032958984375
-0.0018310546875
-0.006591796875
0.0
-0.002197265625
-0.005126953125
-0.0018310546875
-0.00439453125
-0.0029296875
-0.0029296875
-0.0018310546875
-0.0003662109375
0.0003662109375
-0.000732421875
-0.00146484375
-0.0010986328125
-0.0029296875
0.00146484375
-0.0010986328125
0.00146484375
-0.0054931640625
0.003662109375
-0.003662109375
0.0029296875
-0.0018310546875
-0.0010986328125
-0.005126953125
0.0025634765625
-0.005126953125
0.0040283203125
-0.0069580078125
0.0018310546875
-0.0040283203125
0.00146484375
0.0018310546875
-0.0025634765625
-0.000732421875
-0.0003662109375
-0.0029296875
0.0032958984375
-0.009521484375
-0.035888671875
-0.0274658203125
-0.0369873046875
0.006591796875
0.0303955078125
0.0281982421875
0.041015625
0.0032958984375
0.01025390625
-0.000732421875
-0.000732421875
-0.0010986328125
-0.002197265625
0.000732421875
-0.0010986328125
0.0003662109375
-0.000732421875
-0.003662109375
0.002197265625
-0.009521484375
0.0076904296875
-0.0076904296875
0.005126953125
-0.0032958984375
0.0
-0.003662109375
-0.0003662109375
0.0
-0.0029296875
0.000732421875
-0.0010986328125
-0.0003662109375
0.0032958984375
0.0010986328125
-0.000732421875
0.0
0.0010986328125
-0.000732421875
0.005126953125
0.0
-0.0029296875
-0.0003662109375
-0.0025634765625
-0.0010986328125
-0.0018310546875
-0.0003662109375
-0.0069580078125
-0.0018310546875
-0.0018310546875
-0.0010986328125
0.00732421875
-0.00146484375
0.006591796875
0.0003662109375
-0.0047607421875
0.00439453125
-0.0025634765625
0.000732421875
-0.0003662109375
-0.0029296875
-0.0267333984375
-0.0303955078125
-0.0377197265625
-0.0010986328125
-0.00732421875
0.0399169921875
0.0333251953125
0.0157470703125
0.0252685546875
0.00439453125
0.0
0.0025634765625
-0.0003662109375
0.0032958984375
0.0025634765625
0.0032958984375
0.00732421875
0.0003662109375
0.005126953125
-0.005859375
0.0047607421875
-0.0054931640625
0.0003662109375
0.000732421875
-0.002197265625
0.0018310546875
-0.0003662109375
-0.000732421875
-0.00146484375
-0.000732421875
0.0010986328125
0.00146484375
0.005126953125
0.0032958984375
0.0
0.00146484375
-0.0018310546875
0.0025634765625
0.005126953125
0.0003662109375
0.005126953125
-0.002197265625
0.000732421875
0.0
0.000732421875
0.0003662109375
0.0003662109375
-0.00146484375
0.00146484375
-0.0025634765625
0.005859375
0.0003662109375
0.005126953125
0.0018310546875
-0.0003662109375
0.003662109375
-0.0029296875
0.0
0.0003662109375
-0.0091552734375
-0.0303955078125
-0.0362548828125
-0.037353515625
0.0018310546875
0.017578125
0.03955078125
0.0369873046875
0.0076904296875
0.0135498046875
0.000732421875
-0.002197265625
0.0003662109375
-0.0018310546875
0.0
-0.0032958984375
0.0010986328125
-0.0029296875
-0.0040283203125
0.0032958984375
-0.0076904296875
0.005859375
-0.0032958984375
-0.000732421875
0.0
-0.0054931640625
-0.0010986328125
-0.0029296875
-0.0010986328125
0.0010986328125
-0.0003662109375
0.003662109375
0.00146484375
0.0003662109375
0.003662109375
-0.0040283203125
0.0018310546875
-0.0062255859375
0.00146484375
-0.003662109375
0.00146484375
-0.000732421875
0.0003662109375
-0.00146484375
0.000732421875
0.00146484375
0.0018310546875
0.00146484375
0.00146484375
-0.0029296875
0.0
0.002197265625
0.0
0.005126953125
0.000732421875
-0.002197265625
0.0029296875
-0.000732421875
0.0018310546875
0.0025634765625
-0.0029296875
0.0010986328125
-0.0260009765625
-0.0142822265625
-0.01318359375
-0.0303955078125
0.03076171875
0.01171875
0.0216064453125
0.030029296875
0.005126953125
-0.0029296875
0.00732421875
-0.006591796875
0.0069580078125
-0.00146484375
0.0054931640625
0.00146484375
0.0040283203125
0.0003662109375
0.0047607421875
0.000732421875
0.006591796875
0.0040283203125
0.0113525390625
0.002197265625
0.01318359375
0.0003662109375
0.01171875
-0.003662109375
0.003662109375
0.0025634765625
0.002197265625
0.003662109375
0.0032958984375
-0.0010986328125
0.0003662109375
0.00146484375
-0.0062255859375
0.0040283203125
-0.0029296875
-0.000732421875
0.005126953125
-0.0025634765625
0.008056640625
-0.0010986328125
0.012451171875
-0.0032958984375
0.0003662109375
-0.00146484375
-0.00732421875
0.0025634765625
-0.005859375
0.0029296875
0.0032958984375
-0.0069580078125
0.00146484375
-0.0025634765625
-0.00732421875
0.0032958984375
-0.0113525390625
-0.0164794921875
-0.0421142578125
-0.024169921875
-0.0029296875
-0.0091552734375
0.037353515625
0.0296630859375
0.0069580078125
0.030029296875
0.0032958984375
-0.00439453125
0.00146484375
-0.0062255859375
-0.009521484375
-0.0062255859375
-0.00732421875
-0.0010986328125
0.0087890625
0.0003662109375
0.01025390625
-0.0032958984375
-0.0054931640625
-0.002197265625
-0.0029296875
-0.0047607421875
0.006591796875
0.00439453125
0.005126953125
0.0040283203125
0.002197265625
-0.0040283203125
-0.0025634765625
-0.0018310546875
0.00146484375
-0.00439453125
0.0069580078125
0.005126953125
0.0157470703125
-0.000732421875
0.018310546875
-0.0076904296875
0.0120849609375
0.0029296875
0.019775390625
-0.0025634765625
0.022705078125
-0.005126953125
0.0245361328125
0.006591796875
0.0267333984375
0.0106201171875
0.012451171875
0.0098876953125
0.0069580078125
0.0084228515625
0.000732421875
0.0091552734375
-0.013916015625
0.0087890625
-0.0164794921875
-0.025634765625
-0.035888671875
-0.0216064453125
-0.0040283203125
0.0322265625
0.03369140625
0.0322265625
-0.0010986328125
0.00439453125
0.0
-0.0029296875
0.006591796875
-0.002197265625
-0.01318359375
-0.0047607421875
-0.029296875
-0.005859375
-0.0479736328125
0.003662109375
-0.047607421875
0.0087890625
-0.030029296875
0.00439453125
-0.0325927734375
0.0025634765625
-0.0355224609375
-0.00146484375
-0.0238037109375
-0.002197265625
-0.031494140625
-0.0025634765625
-0.0318603515625
-0.003662109375
-0.0084228515625
0.0040283203125
-0.0029296875
0.0062255859375
-0.0032958984375
0.0
-0.0047607421875
-0.0010986328125
-0.068115234375
0.00146484375
-0.0703125
0.0003662109375
0.0018310546875
-0.000732421875
0.024169921875
0.0040283203125
0.0223388671875
0.005859375
0.0098876953125
-0.0040283203125
-0.00439453125
-0.0069580078125
0.0032958984375
-0.005859375
0.0047607421875
-0.01025390625
-0.012451171875
0.0040283203125
0.0135498046875
-0.0179443359375
0.02783203125
-0.0010986328125
0.0003662109375
0.0252685546875
-0.0018310546875
-0.0076904296875
0.0025634765625
-0.005126953125
-0.0047607421875
-0.003662109375
-0.0245361328125
-0.0032958984375
-0.0087890625
0.0003662109375
0.0223388671875
0.0040283203125
0.0245361328125
0.0062255859375
0.0274658203125
-0.0018310546875
0.01611328125
-0.002197265625
0.0146484375
-0.005126953125
0.01318359375
-0.0040283203125
0.005126953125
-0.002197265625
0.005859375
-0.003662109375
0.0084228515625
0.0040283203125
0.01171875
0.0032958984375
0.0062255859375
-0.0032958984375
0.0029296875
-0.0029296875
0.003662109375
0.0
0.0029296875
-0.0076904296875
0.0069580078125
-0.0029296875
0.00732421875
0.0040283203125
0.012451171875
-0.0047607421875
0.0201416015625
-0.0113525390625
0.0087890625
-0.0032958984375
0.00439453125
-0.0040283203125
-0.0113525390625
0.0003662109375
-0.017578125
-0.018310546875
0.009521484375
-0.0032958984375
0.010986328125
0.0194091796875
-0.0062255859375
-0.0032958984375
-0.005126953125
-0.0010986328125
0.0054931640625
-0.0047607421875
0.0029296875
-0.0029296875
0.0003662109375
0.002197265625
-0.00439453125
0.008056640625
-0.0113525390625
0.0032958984375
-0.0087890625
0.0029296875
-0.0084228515625
0.0010986328125
-0.008056640625
-0.0098876953125
-0.01611328125
-0.0069580078125
-0.0172119140625
0.0
-0.003662109375
0.00146484375
-0.003662109375
-0.0025634765625
-0.0076904296875
0.002197265625
0.0003662109375
0.0025634765625
0.0032958984375
-0.009521484375
-0.010986328125
0.0003662109375
-0.0172119140625
0.005859375
-0.0040283203125
0.0084228515625
0.00439453125
0.012451171875
0.0047607421875
0.003662109375
0.0106201171875
-0.00732421875
0.0029296875
-0.0047607421875
0.0010986328125
-0.0098876953125
-0.015380859375
-0.00732421875
0.0010986328125
-0.0040283203125
0.031494140625
0.010986328125
-0.003662109375
0.0245361328125
-0.01171875
0.0
-0.005859375
-0.005126953125
-0.010986328125
0.0018310546875
-0.005859375
0.00146484375
-0.0062255859375
-0.0010986328125
-0.008056640625
0.0062255859375
-0.0098876953125
0.012451171875
-0.0054931640625
0.0069580078125
-0.0142822265625
0.006591796875
-0.0216064453125
0.0040283203125
-0.01318359375
0.0040283203125
-0.010986328125
0.0003662109375
-0.0384521484375
-0.0076904296875
-0.0509033203125
-0.000732421875
-0.028228759765625
0.0010986328125
-0.009185791015625
-0.002197265625
-0.003662109375
0.005859375
-0.0142822265625
0.013916015625
-0.0150146484375
0.008056640625
-0.0010986328125
0.000732421875
0.006591796875
-0.005126953125
-0.0146484375
-0.002197265625
-0.0164794921875
-0.00439453125
0.005126953125
-0.0142822265625
-0.01318359375
0.0
-0.00439453125
-0.010986328125
0.0201416015625
-0.006591796875
0.00732421875
0.012451171875
0.016845703125
0.0010986328125
0.0003662109375
-0.01025390625
-0.0150146484375
-0.0157470703125
0.0113525390625
0.0040283203125
0.047271728515625
0.0047607421875
-0.0347900390625
-0.0098876953125
-0.090118408203125
-0.0062255859375
0.0179443359375
0.0157470703125
-0.0054931640625
0.005859375
-0.112060546875
-0.0205078125
-0.0970458984375
-0.0087890625
-0.01611328125
0.0098876953125
-0.025634765625
-0.0062255859375
-0.093017578125
-0.028564453125
-0.071044921875
-0.0040283203125
-0.0208740234375
0.0230712890625
-0.032989501953125
0.00439453125
-0.067413330078125
-0.016845703125
-0.052734375
-0.008056640625
0.0267333984375
0.017578125
0.0223388671875
0.006591796875
-0.03515625
-0.017578125
-0.0054931640625
-0.005859375
0.052734375
0.01904296875
0.022705078125
-0.0157470703125
-0.059326171875
-0.035888671875
-0.008056640625
0.01318359375
0.100372314453125
0.0399169921875
0.140289306640625
0.024169921875
0.091552734375
-0.0120849609375
0.0032958984375
-0.0069580078125
0.0230712890625
0.027099609375
0.038818359375
0.0399169921875
-0.0428466796875
0.01025390625
-0.04541015625
-0.006591796875
0.0205078125
0.018310546875
0.098876953125
0.044677734375
0.0479736328125
0.0146484375
-0.021240234375
-0.03076171875
0.047607421875
-0.0047607421875
0.097412109375
0.05126953125
-0.0025634765625
0.037353515625
-0.094482421875
-0.0164794921875
-0.024169921875
-0.0106201171875
0.01318359375
0.047637939453125
-0.0552978515625
0.051300048828125
-0.1138916015625
-0.008056640625
-0.0911865234375
-0.0062255859375
-0.108062744140625
0.0311279296875
-0.070709228515625
0.0560302734375
-0.0216064453125
0.0263671875
-0.1907958984375
-0.013916015625
-0.1614990234375
0.0091552734375
-0.076202392578125
0.05712890625
-0.105499267578125
0.040283203125
-0.0234375
0.021240234375
0.0
0.0582275390625
0.0
0.0684814453125
0.0
0.024169921875
0.0
-0.019775390625
0.0
0.0087890625
0.0
0.013916015625
0.0
-0.019775390625
0.0
-0.0391845703125
0.024169921875
-0.0296630859375
0.043609619140625
-0.002197265625
0.053863525390625
-0.02197265625
0.05419921875
-0.0560302734375
0.0311279296875
-0.03369140625
0.0289306640625
0.0010986328125
0.035888671875
-0.012451171875
0.0509033203125
-0.041015625
0.0509033203125
-0.02783203125
0.0428466796875
-0.0054931640625
0.031494140625
-0.0087890625
0.0303955078125
-0.0135498046875
0.0245361328125
-0.008056640625
0.0230712890625
-0.005859375
0.03515625
-0.005126953125
0.0150146484375
-0.009521484375
0.0
-0.049468994140625
-0.0106201171875
-0.052764892578125
0.029296875
0.0142822265625
0.075103759765625
0.009521484375
0.098175048828125
-0.038818359375
0.107666015625
-0.03369140625
0.06591796875
-0.0252685546875
0.0479736328125
-0.02490234375
-0.04541015625
-0.03369140625
-0.097412109375
-0.0498046875
0.0787353515625
-0.04541015625
0.212432861328125
-0.0450439453125
0.209503173828125
-0.0509033203125
0.303985595703125
-0.0703125
0.190093994140625
-0.07763671875
-0.085357666015625
-0.0399169921875
-0.094879150390625
-0.023468017578125
0.0062255859375
-0.029327392578125
-0.037353515625
-0.0238037109375
-0.0633544921875
-0.0201416015625
-0.052734375
-0.0087890625
-0.0648193359375
0.0032958984375
0.0047607421875
0.0069580078125
-0.0113525390625
0.034423828125
-0.0428466796875
0.039581298828125
-0.0355224609375
0.027862548828125
-0.0274658203125
0.03369140625
0.010986328125
0.02783203125
0.0230712890625
-0.0208740234375
-0.041748046875
-0.024169921875
-0.0274658203125
0.040283203125
0.0062255859375
0.0552978515625
-0.015380859375
0.0413818359375
0.0018310546875
0.0421142578125
0.0384521484375
0.043212890625
0.044677734375
0.03369140625
0.0157470703125
0.016845703125
0.00146484375
0.0146484375
-0.0018310546875
0.013916015625
-0.0369873046875
-0.00146484375
-0.03369140625
-0.0003662109375
0.0205078125
0.00732421875
0.044677734375
-0.003662109375
0.0289306640625
-0.0157470703125
-0.0032958984375
-0.013916015625
-0.0238037109375
-0.0032958984375
-0.053466796875
0.0018310546875
-0.0347900390625
-0.00439453125
0.019775390625
-0.0047607421875
0.044677734375
-0.0098876953125
0.0205078125
-0.0186767578125
0.0025634765625
-0.0208740234375
0.029296875
-0.0322265625
0.0340576171875
-0.034423828125
0.0223388671875
-0.0245361328125
0.0194091796875
-0.016845703125
0.015380859375
-0.0509033203125
-0.0054931640625
-0.052001953125
0.0205078125
0.016845703125
0.049072265625
0.0201416015625
0.0311279296875
-0.0113525390625
0.0260009765625
-0.021240234375
0.01904296875
-0.0142822265625
0.0201416015625
-0.0091552734375
0.019775390625
-0.013916015625
0.0142822265625
-0.008087158203125
0.0150146484375
-0.008453369140625
0.0223388671875
-0.0098876953125
0.0062255859375
-0.0135498046875
-0.0076904296875
-0.017578125
0.00439453125
-0.015380859375
-0.0439453125
-0.00732421875
-0.0926513671875
-0.005126953125
-0.02197265625
-0.0025634765625
0.0347900390625
0.005859375
0.0318603515625
0.0076904296875
0.0439453125
0.00146484375
0.0435791015625
-0.0032958984375
0.0263671875
0.0032958984375
-0.0003662109375
0.016845703125
0.008819580078125
0.013916015625
0.013946533203125
0.0029296875
-0.038116455078125
0.0040283203125
0.018310546875
0.006591796875
0.072906494140625
-0.0113525390625
-0.053131103515625
-0.0076904296875
-0.090118408203125
-0.000732421875
0.0010986328125
0.032257080078125
-0.0347900390625
0.033721923828125
-0.0582275390625
-0.005126953125
-0.059326171875
0.003662109375
-0.0867919921875
-0.003662109375
-0.038818359375
-0.0062255859375
-0.044677734375
0.0025634765625
-0.019775390625
0.009521484375
0.0076904296875
0.009521484375
-0.0062255859375
0.00732421875
-0.0084228515625
0.002197265625
-0.0032958984375
0.0062255859375
-0.0245361328125
0.0106201171875
-0.03369140625
0.005859375
-0.0076904296875
0.0084228515625
0.0
0.0106201171875
-0.0025634765625
0.0098876953125
0.005126953125
0.0054931640625
0.0369873046875
0.0018310546875
0.00146484375
0.00146484375
-0.032958984375
0.01171875
-0.0025634765625
0.01025390625
0.031494140625
-0.0084228515625
0.038818359375
-0.00439453125
0.019775390625
-0.0003662109375
0.003662109375
-0.0076904296875
-0.0318603515625
-0.0106201171875
-0.009521484375
-0.018310546875
0.034423828125
0.0245361328125
-0.010986328125
0.04248046875
0.0120849609375
0.0062255859375
0.0238037109375
-0.005126953125
-0.0098876953125
-0.0040283203125
-0.009521484375
0.008056640625
-0.0025634765625
0.003662109375
0.0098876953125
0.000732421875
-0.0029296875
0.003662109375
0.0201416015625
-0.0047607421875
0.041748046875
-0.0084228515625
0.050537109375
-0.0128173828125
0.0443115234375
-0.0113525390625
0.04833984375
-0.0128173828125
0.052734375
-0.0032958984375
0.0369873046875
0.00439453125
0.03515625
0.00146484375
0.01318359375
0.0098876953125
-0.00439453125
0.01171875
0.003662109375
0.0091552734375
-0.002197265625
0.01611328125
-0.0076904296875
0.0274658203125
-0.0091552734375
0.0234375
-0.0157470703125
0.01611328125
-0.0087890625
0.01904296875
-0.0047607421875
0.0223388671875
-0.0113525390625
0.008056640625
-0.04248046875
0.012451171875
-0.0230712890625
0.0076904296875
0.0194091796875
0.0303955078125
0.0069580078125
0.041748046875
0.002197265625
0.0003662109375
0.0164794921875
-0.0091552734375
0.021240234375
0.00146484375
0.0252685546875
0.005859375
0.01025390625
-0.00146484375
0.01025390625
-0.000732421875
0.0333251953125
0.005126953125
0.045074462890625
0.0025634765625
0.053863525390625
-0.00439453125
0.0552978515625
0.0029296875
0.0318603515625
0.022705078125
0.0135498046875
0.01904296875
0.0062255859375
0.0054931640625
-0.0018310546875
-0.003662109375
0.0208740234375
-0.015380859375
0.0384521484375
-0.0205078125
0.0201416015625
-0.0146484375
-0.002197265625
-0.002197265625
-0.0025634765625
0.00439453125
-0.0076904296875
0.0146484375
-0.0252685546875
0.0040283203125
-0.03662109375
-0.012451171875
-0.0340576171875
-0.0098876953125
-0.01611328125
-0.0146484375
-0.015380859375
-0.0531005859375
-0.0435791015625
-0.0615234375
-0.0216064453125
-0.0128173828125
0.0106201171875
0.0054931640625
0.01318359375
-0.015380859375
0.0062255859375
-0.027099609375
-0.0223388671875
-0.0194091796875
-0.032623291015625
-0.0164794921875
-0.027862548828125
-0.0135498046875
-0.0146484375
-0.00732421875
-0.01904296875
-0.0062255859375
-0.0098876953125
-0.0113525390625
0.0091552734375
-0.01904296875
0.009521484375
-0.0194091796875
0.0062255859375
-0.0179443359375
-0.0091552734375
-0.0179443359375
-0.002197265625
-0.021270751953125
0.0084228515625
-0.013214111328125
0.01611328125
-0.0142822265625
0.0106201171875
-0.01611328125
-0.0040283203125
-0.0025634765625
-0.0164794921875
0.0091552734375
-0.0172119140625
0.006591796875
-0.006591796875
-0.0040283203125
-0.0120849609375
0.013580322265625
-0.008056640625
0.0128173828125
-0.002197265625
-0.005889892578125
0.009521484375
0.001129150390625
0.0142822265625
0.002960205078125
-0.012451171875
-0.022735595703125
-0.0574951171875
-0.028228759765625
-0.0245361328125
0.0087890625
0.0146484375
0.051300048828125
-0.01171875
0.039581298828125
-0.0047607421875
0.0047607421875
0.002197265625
0.0025634765625
-0.01904296875
0.0069580078125
-0.0186767578125
0.01025390625
-0.0062255859375
-0.003662109375
-0.0106201171875
-0.00146484375
-0.013916015625
0.0040283203125
-0.0098876953125
-0.00439453125
-0.0018310546875
0.0
0.006591796875
-0.0010986328125
0.0150146484375
-0.0091552734375
0.0113525390625
-0.0113525390625
0.0010986328125
-0.0087890625
-0.0091552734375
0.00146484375
-0.006591796875
0.0040283203125
0.0029296875
-0.002197265625
0.002197265625
-0.000732421875
-0.0029296875
0.0047607421875
-0.0076904296875
0.0025634765625
-0.0087890625
0.0098876953125
-0.0098876953125
0.0146484375
-0.0032958984375
0.0029296875
0.0029296875
0.0
0.0018310546875
0.00146484375
0.005126953125
-0.0274658203125
-0.019775390625
-0.035888671875
0.00439453125
0.0098876953125
0.034423828125
0.0377197265625
0.0128173828125
0.0146484375
0.005859375
-0.005859375
-0.005859375
0.005859375
-0.0084228515625
0.009521484375
-0.00146484375
0.0018310546875
0.0010986328125
-0.0029296875
-0.00439453125
0.0069580078125
-0.0025634765625
0.0025634765625
0.0
-0.0047607421875
0.000732421875
-0.0029296875
0.002197265625
-0.0047607421875
-0.0142822265625
0.0
-0.009521484375
-0.000732421875
0.0069580078125
0.000732421875
0.0106201171875
-0.0032958984375
0.010986328125
-0.008056640625
0.0025634765625
0.0032958984375
0.0047607421875
0.002197265625
0.0087890625
-0.0040283203125
0.0069580078125
-0.005859375
0.0025634765625
0.0
0.0010986328125
0.00439453125
0.01025390625
-0.0040283203125
0.0098876953125
-0.0025634765625
0.0032958984375
0.0032958984375
0.00146484375
-0.0164794921875
-0.0325927734375
-0.0234375
-0.015380859375
0.01904296875
0.02197265625
0.054931640625
0.0084228515625
0.028564453125
0.0003662109375
-0.0003662109375
-0.003662109375
0.0
0.0010986328125
-0.00439453125
0.00732421875
-0.00732421875
0.008056640625
-0.010986328125
-0.0040283203125
-0.000732421875
-0.008056640625
0.0003662109375
-0.0029296875
-0.005859375
-0.002197265625
-0.0010986328125
0.0018310546875
-0.0025634765625
0.0054931640625
-0.0054931640625
0.0062255859375
-0.00732421875
0.005126953125
-0.0062255859375
0.0040283203125
-0.00439453125
0.0062255859375
0.0018310546875
-0.000732421875
0.0054931640625
-0.0047607421875
0.0010986328125
0.0029296875
-0.0040283203125
0.0091552734375
-0.0029296875
0.0032958984375
0.008056640625
-0.00439453125
0.0091552734375
-0.0003662109375
0.0018310546875
-0.0010986328125
0.0025634765625
-0.0003662109375
0.0018310546875
0.0040283203125
0.00439453125
0.0054931640625
-0.035888671875
-0.016845703125
-0.03515625
-0.00439453125
0.0340576171875
0.0208740234375
0.0355224609375
0.0018310546875
0.00732421875
0.0018310546875
-0.0040283203125
0.0087890625
-0.0029296875
0.00146484375
0.005126953125
0.0003662109375
0.00146484375
0.00146484375
-0.00146484375
-0.005859375
0.0069580078125
-0.005859375
0.005126953125
-0.0003662109375
0.0
-0.00146484375
0.000732421875
-0.00146484375
-0.0003662109375
-0.0032958984375
0.00439453125
-0.0062255859375
0.0025634765625
0.003662109375
-0.0029296875
0.00732421875
-0.00439453125
-0.0018310546875
0.0
-0.005859375
0.0010986328125
-0.005859375
-0.0040283203125
-0.000732421875
-0.0040283203125
0.0
-0.0018310546875
-0.0047607421875
0.0128173828125
-0.003662109375
0.00732421875
0.0003662109375
-0.002197265625
0.005859375
-0.003662109375
0.0047607421875
-0.0032958984375
0.0010986328125
-0.015380859375
-0.0179443359375
-0.0164794921875
-0.0003662109375
-0.0084228515625
0.0245361328125
0.0186767578125
0.009521484375
0.0289306640625
0.0084228515625
-0.0025634765625
0.0029296875
-0.0018310546875
-0.00146484375
0.0018310546875
-0.0010986328125
0.0003662109375
-0.005859375
0.0040283203125
-0.008056640625
0.0047607421875
-0.01171875
0.0
-0.0062255859375
-0.00439453125
0.000732421875
-0.0054931640625
-0.0054931640625
-0.006591796875
-0.003662109375
-0.0069580078125
0.0032958984375
-0.0003662109375
0.0062255859375
0.0010986328125
0.0087890625
-0.00146484375
0.00439453125
0.000732421875
-0.002197265625
0.0029296875
-0.002197265625
-0.0040283203125
-0.002197265625
0.003662109375
0.0018310546875
0.0087890625
0.003662109375
0.0029296875
-0.003662109375
0.0084228515625
-0.005859375
0.0047607421875
-0.0032958984375
-0.003662109375
0.0003662109375
-0.003662109375
-0.0003662109375
0.002197265625
0.0010986328125
-0.0274658203125
-0.0274658203125
-0.029296875
-0.010986328125
0.0201416015625
0.019775390625
0.0362548828125
-0.005126953125
0.0208740234375
0.00146484375
0.00146484375
0.0106201171875
-0.0025634765625
0.002197265625
-0.0025634765625
-0.002197265625
0.0003662109375
-0.0062255859375
0.005859375
-0.0205078125
0.006591796875
-0.01611328125
-0.0018310546875
-0.0003662109375
-0.00732421875
0.0003662109375
-0.002197265625
0.00439453125
-0.0029296875
0.002197265625
-0.0003662109375
-0.003662109375
0.003662109375
-0.0054931640625
0.00439453125
-0.008056640625
0.0054931640625
-0.000732421875
0.0047607421875
0.000732421875
0.0010986328125
-0.0029296875
0.0029296875
0.002197265625
0.0084228515625
0.01025390625
0.0032958984375
-0.034423828125
0.0128173828125
-0.059326171875
0.0150146484375
-0.0450439453125
0.006591796875
-0.0260009765625
0.008056640625
0.0054931640625
0.00146484375
0.0025634765625
0.005859375
-0.0029296875
-0.02197265625
0.01318359375
-0.03076171875
0.0230712890625
0.027099609375
0.01171875
0.0369873046875
0.0234375
0.008056640625
0.032958984375
-0.0054931640625
0.015380859375
0.0
-0.0010986328125
0.006591796875
-0.00146484375
0.0003662109375
-0.0113525390625
0.005126953125
-0.017578125
0.000732421875
-0.01611328125
-0.006591796875
-0.0260009765625
-0.005126953125
-0.0238037109375
-0.00439453125
-0.0098876953125
0.0
0.0106201171875
0.003662109375
0.0113525390625
0.0069580078125
-0.0040283203125
0.008056640625
-0.006591796875
0.008056640625
0.016845703125
0.003662109375
0.010986328125
0.009521484375
-0.0029296875
0.0201416015625
0.00732421875
0.0098876953125
-0.000732421875
0.0010986328125
-0.009521484375
0.012451171875
-0.013916015625
0.010986328125
0.0146484375
-0.00439453125
0.0567626953125
-0.0076904296875
0.0413818359375
-0.0087890625
0.03369140625
-0.0289306640625
0.021240234375
-0.0311279296875
0.0230712890625
-0.0208740234375
0.035888671875
0.0194091796875
0.01318359375
0.0318603515625
0.006591796875
-0.0054931640625
0.0098876953125
-0.009521484375
0.01025390625
-0.0040283203125
0.01171875
-0.0062255859375
0.0172119140625
-0.005126953125
0.005859375
0.005126953125
0.00439453125
-0.0003662109375
0.0
-0.0010986328125
-0.0164794921875
0.003662109375
-0.0146484375
-0.00146484375
-0.008056640625
-0.005126953125
-0.013916015625
-0.000732421875
0.0076904296875
0.0
0.0172119140625
0.000732421875
-0.0032958984375
0.0018310546875
-0.009521484375
-0.0047607421875
0.0025634765625
-0.0062255859375
-0.00732421875
0.0018310546875
-0.0194091796875
0.000732421875
-0.0142822265625
0.000732421875
-0.02197265625
0.0113525390625
-0.0205078125
0.003662109375
-0.0025634765625
-0.0047607421875
0.01318359375
0.0
0.010986328125
-0.0025634765625
0.034423828125
-0.03515625
0.0179443359375
-0.0252685546875
0.02197265625
0.029296875
0.0380859375
0.0380859375
0.003662109375
0.021240234375
0.003326416015625
-0.0003662109375
0.00146484375
0.0
-0.012847900390625
0.019775390625
-0.0318603515625
0.013916015625
-0.0428466796875
0.0047607421875
-0.037353515625
0.0076904296875
-0.0472412109375
0.0025634765625
-0.0509033203125
0.00439453125
-0.027099609375
-0.0025634765625
-0.01318359375
-0.010986328125
-0.005126953125
-0.006591796875
-0.0040283203125
-0.0029296875
-0.0029296875
0.00146484375
0.005859375
0.0018310546875
0.0025634765625
0.005859375
0.0084228515625
0.0025634765625
0.0194091796875
-0.0025634765625
0.0234375
-0.0084228515625
-0.0003662109375
0.00146484375
-0.0263671875
0.0142822265625
-0.028564453125
0.0025634765625
-0.013916015625
-0.0084228515625
-0.00146484375
-0.005859375
-0.019775390625
-0.00439453125
-0.021240234375
-0.0205078125
-0.0179443359375
-0.032958984375
0.00146484375
-0.01904296875
0.0179443359375
0.028564453125
-0.01025390625
0.02783203125
-0.017578125
-0.013916015625
-0.00439453125
-0.017578125
-0.013916015625
-0.0062255859375
-0.0252685546875
-0.003662109375
-0.0245361328125
-0.0084228515625
-0.019775390625
-0.003662109375
-0.0128173828125
-0.006591796875
0.0010986328125
-0.0040283203125
0.0091552734375
0.0003662109375
-0.0040283203125
0.0029296875
-0.00146484375
0.017578125
0.008056640625
0.02197265625
-0.0084228515625
0.01904296875
-0.0076904296875
0.018310546875
0.009521484375
0.0223388671875
0.0040283203125
0.0274658203125
-0.009521484375
0.0296630859375
-0.025634765625
0.024169921875
-0.04833984375
0.0201416015625
-0.074371337890625
0.025634765625
-0.080596923828125
0.034423828125
-0.0670166015625
0.0289306640625
-0.047607421875
0.0157470703125
-0.0120849609375
-0.0003662109375
-0.0040283203125
-0.015380859375
-0.018310546875
-0.0673828125
-0.0260009765625
-0.0655517578125
0.0289306640625
0.018310546875
0.0640869140625
0.024169921875
0.0238037109375
-0.013916015625
0.0025634765625
-0.0208740234375
-0.0150146484375
-0.017578125
-0.010986328125
-0.0120849609375
0.0186767578125
-0.005859375
0.022705078125
-0.01025390625
0.003662109375
-0.0091552734375
0.021240234375
-0.0047607421875
0.047607421875
-0.0128173828125
0.0377197265625
-0.0179443359375
0.02197265625
-0.015380859375
0.019073486328125
-0.0150146484375
0.016510009765625
-0.009521484375
0.0098876953125
-0.005859375
0.0113525390625
-0.0087890625
0.0040283203125
-0.0010986328125
-0.0029296875
0.0062255859375
-0.0018310546875
0.0040283203125
-0.00146484375
0.0032958984375
-0.0018310546875
0.0054931640625
-0.005126953125
0.01025390625
-0.002197265625
0.008056640625
0.00439453125
-0.0018310546875
0.0076904296875
-0.0040283203125
0.002197265625
-0.0003662109375
-0.0010986328125
-0.0311279296875
-0.030426025390625
-0.041015625
-0.00146484375
0.0091552734375
0.031890869140625
0.0399169921875
0.005126953125
0.0157470703125
0.005859375
-0.0113525390625
0.0091552734375
-0.01318359375
0.01171875
-0.012451171875
0.0084228515625
-0.01025390625
0.00439453125
-0.005859375
-0.0003662109375
-0.0032958984375
-0.0032958984375
-0.00439453125
0.003662109375
-0.008056640625
0.0069580078125
-0.0069580078125
0.0062255859375
-0.00146484375
0.0047607421875
-0.0032958984375
0.006591796875
-0.0106201171875
0.009521484375
-0.0084228515625
0.0076904296875
-0.002197265625
0.0047607421875
-0.0003662109375
0.0018310546875
0.000732421875
0.003662109375
0.0018310546875
0.0010986328125
-0.0010986328125
-0.0010986328125
-0.0025634765625
0.0
-0.0018310546875
0.0025634765625
0.0054931640625
0.00439453125
0.00732421875
0.01318359375
0.0010986328125
0.0574951171875
-0.0010986328125
0.0516357421875
0.008056640625
0.0069580078125
-0.0201416015625
-0.0296630859375
-0.03662109375
-0.00146484375
0.0172119140625
0.0355224609375
0.0443115234375
0.01171875
0.0172119140625
0.0128173828125
-0.0113525390625
0.0128173828125
-0.010986328125
0.010986328125
-0.00439453125
0.0054931640625
-0.0025634765625
-0.005126953125
-0.0032958984375
-0.015380859375
0.0047607421875
-0.010986328125
0.002197265625
0.0010986328125
-0.005859375
0.0025634765625
-0.00146484375
-0.0010986328125
-0.000732421875
-0.005859375
0.003662109375
-0.0047607421875
0.0087890625
-0.0032958984375
0.0113525390625
-0.0025634765625
0.0087890625
-0.0003662109375
0.0040283203125
-0.0032958984375
0.0029296875
-0.0040283203125
-0.000732421875
-0.0025634765625
-0.0010986328125
0.0010986328125
-0.000732421875
-0.00146484375
0.010986328125
-0.0047607421875
0.010986328125
-0.00146484375
0.0025634765625
-0.002197265625
0.006591796875
-0.003662109375
0.0040283203125
-0.006591796875
-0.005126953125
-0.03076171875
-0.0322265625
-0.005126953125
-0.0369873046875
0.0355224609375
0.0263671875
0.0179443359375
0.035888671875
0.0047607421875
-0.0040283203125
0.0062255859375
-0.00439453125
0.0062255859375
-0.0025634765625
0.0054931640625
-0.002197265625
0.0029296875
-0.002197265625
-0.0274658203125
-0.0003662109375
-0.0443115234375
-0.003662109375
-0.0263671875
-0.003662109375
-0.01171875
0.0025634765625
-0.002197265625
0.0029296875
0.0
0.0010986328125
0.0003662109375
-0.0018310546875
0.005859375
-0.0010986328125
0.005859375
0.003662109375
0.0029296875
0.0029296875
0.0047607421875
0.0
0.005126953125
0.00439453125
0.003662109375
0.0069580078125
0.002197265625
0.003662109375
-0.0047607421875
0.0018310546875
-0.0025634765625
0.0069580078125
0.0018310546875
0.003662109375
0.0025634765625
-0.0040283203125
0.00439453125
-0.003662109375
0.0
0.0010986328125
-0.003662109375
-0.02490234375
-0.031494140625
-0.0421142578125
-0.003662109375
-0.003662109375
0.0322265625
0.038818359375
0.01171875
0.0234375
0.005859375
-0.0069580078125
0.0076904296875
-0.006591796875
0.0069580078125
-0.0040283203125
0.0029296875
-0.0010986328125
0.0157470703125
-0.0084228515625
0.0120849609375
-0.0069580078125
-0.0029296875
-0.0018310546875
-0.0003662109375
-0.00439453125
0.0062255859375
-0.00146484375
0.0087890625
0.000732421875
0.005126953125
0.003662109375
0.0018310546875
0.0062255859375
0.0062255859375
0.00146484375
0.0047607421875
0.000732421875
0.00439453125
0.0029296875
0.0032958984375
0.0003662109375
-0.0003662109375
0.0029296875
0.002197265625
0.00439453125
0.0054931640625
0.00146484375
-0.0003662109375
0.006591796875
0.0018310546875
0.00439453125
0.0205078125
0.0003662109375
0.0062255859375
-0.00146484375
0.019775390625
-0.005126953125
0.0465087890625
0.0018310546875
0.005126953125
-0.0369873046875
-0.00439453125
-0.0399169921875
0.0267333984375
0.0421142578125
0.0135498046875
0.04541015625
-0.013916015625
0.010986328125
-0.0205078125
0.01025390625
-0.0172119140625
0.003662109375
-0.0076904296875
0.0025634765625
-0.0076904296875
0.0054931640625
-0.0179443359375
0.0054931640625
-0.01904296875
0.002197265625
-0.0113525390625
-0.000732421875
-0.008056640625
0.0003662109375
-0.009521484375
0.0062255859375
-0.009521484375
0.0076904296875
-0.0091552734375
0.0069580078125
-0.006591796875
0.00732421875
-0.005859375
0.006591796875
-0.0069580078125
0.0062255859375
-0.00439453125
0.00146484375
-0.0003662109375
-0.0025634765625
-0.00146484375
-0.0010986328125
-0.0029296875
0.0018310546875
0.0
-0.0025634765625
-0.002197265625
0.00146484375
-0.0047607421875
0.00439453125
-0.0010986328125
-0.0018310546875
0.0340576171875
-0.0054931640625
0.0604248046875
-0.00439453125
0.0281982421875
0.00146484375
-0.0142822265625
-0.025634765625
-0.006591796875
-0.0311279296875
0.0252685546875
0.030029296875
0.0135498046875
0.0322265625
-0.0435791015625
-0.0098876953125
-0.1171875
-0.0172119140625
-0.1417236328125
-0.01318359375
-0.150543212890625
-0.0018310546875
-0.124542236328125
0.0150146484375
-0.06591796875
0.0303955078125
0.0230712890625
0.0465087890625
0.05419921875
0.0758056640625
-0.0399169921875
0.105499267578125
-0.1212158203125
0.155303955078125
-0.0538330078125
0.1966552734375
-0.239532470703125
0.185333251953125
-0.40765380859375
0.142120361328125
-0.168487548828125
0.0743408203125
-0.0234375
0.0069580078125
0.0128173828125
-0.03515625
0.057159423828125
-0.0498046875
0.081329345703125
-0.04541015625
0.064453125
-0.035186767578125
0.0589599609375
-0.032257080078125
0.068115234375
-0.03515625
0.0816650390625
-0.0509033203125
0.0963134765625
-0.06884765625
0.105133056640625
-0.07470703125
0.095977783203125
-0.0699462890625
0.0772705078125
-0.0849609375
0.0380859375
-0.0911865234375
0.0728759765625
-0.0487060546875
0.1234130859375
-0.016845703125
0.10400390625
-0.038482666015625
0.090850830078125
-0.058624267578125
0.082794189453125
-0.049072265625
0.0809326171875
-0.0439453125
0.07763671875
-0.0428466796875
0.0501708984375
-0.040283203125
0.02197265625
-0.034423828125
0.019775390625
-0.0296630859375
0.037353515625
-0.0311279296875
0.0501708984375
-0.0333251953125
0.0274658203125
-0.0267333984375
0.0205078125
-0.0289306640625
0.01318359375
-0.0303955078125
-0.0087890625
-0.022705078125
-0.0146484375
-0.021240234375
-0.0032958984375
-0.0179443359375
0.0025634765625
-0.0120849609375
0.03515625
-0.015045166015625
0.068145751953125
-0.019805908203125
0.035186767578125
-0.0157470703125
0.0281982421875
-0.0069580078125
0.0736083984375
-0.009521484375
0.0509033203125
-0.01171875
-0.0194091796875
-0.0098876953125
-0.03369140625
-0.0087890625
-0.062255859375
-0.01025390625
-0.106231689453125
-0.0362548828125
-0.043609619140625
-0.03662109375
0.0238037109375
0.0252685546875
0.0205078125
0.0325927734375
0.031158447265625
-0.0029296875
0.032989501953125
-0.002197265625
0.005859375
-0.0029296875
-0.027862548828125
-0.0003662109375
-0.032989501953125
-0.000732421875
0.012847900390625
0.0018310546875
0.0146484375
0.0062255859375
-0.0076904296875
0.0032958984375
0.005889892578125
0.0054931640625
0.02490234375
0.006591796875
0.0208740234375
0.00146484375
-0.0076904296875
0.003662109375
-0.008056640625
0.00732421875
0.021240234375
0.0040283203125
0.0223388671875
0.0032958984375
0.01904296875
0.0047607421875
0.002197265625
0.00732421875
-0.0223388671875
0.0040283203125
-0.0069580078125
-0.00146484375
-0.0040283203125
0.0047607421875
-0.0303955078125
0.012451171875
-0.0194091796875
0.008056640625
0.0399169921875
0.0032958984375
0.057861328125
0.0062255859375
0.0289306640625
0.0076904296875
0.0032958984375
-0.0355224609375
-0.0142822265625
-0.041748046875
0.0087890625
0.0252685546875
0.03369140625
0.0435791015625
0.0076904296875
0.015380859375
0.0025634765625
0.00146484375
-0.0113525390625
0.008087158203125
-0.0230712890625
0.009552001953125
-0.013916015625
0.0098876953125
-0.00732421875
0.0142822265625
-0.016845703125
0.0128173828125
-0.0252685546875
0.0084228515625
-0.0128173828125
0.0047607421875
-0.0087890625
0.005859375
-0.012451171875
0.005859375
-0.012451171875
0.005859375
-0.0029296875
0.005126953125
-0.0076904296875
0.006591796875
-0.019805908203125
0.0087890625
-0.01025390625
0.003662109375
-0.006591796875
0.005859375
-0.017608642578125
0.0040283203125
-0.0146484375
0.000732421875
-0.0084228515625
0.0029296875
-0.00732421875
0.0047607421875
-0.0032958984375
0.0062255859375
-0.0025634765625
0.0010986328125
-0.0076904296875
0.0
-0.0087890625
0.005859375
-0.01611328125
0.0047607421875
-0.02783203125
-0.03515625
-0.0205078125
-0.0318603515625
-0.003662109375
0.0413818359375
0.003662109375
0.040283203125
0.009521484375
0.0029296875
-0.006591796875
0.00146484375
-0.02197265625
0.0040283203125
-0.0062255859375
0.003662109375
0.0032958984375
0.002197265625
-0.00146484375
0.00732421875
-0.0120849609375
0.0029296875
-0.003662109375
-0.008056640625
0.0069580078125
-0.003662109375
-0.0018310546875
0.0054931640625
-0.0069580078125
0.0029296875
0.0
-0.0047607421875
0.00732421875
-0.0054931640625
0.0076904296875
-0.0003662109375
0.00439453125
0.0029296875
-0.0018310546875
0.0018310546875
-0.0054931640625
-0.0003662109375
0.0003662109375
-0.0018310546875
0.0062255859375
0.0003662109375
-0.0025634765625
0.005126953125
-0.00732421875
0.016845703125
-0.0205078125
0.0205078125
-0.032958984375
0.0142822265625
-0.0340576171875
0.0128173828125
-0.0399169921875
0.0087890625
-0.0263671875
-0.01318359375
-0.03955078125
-0.0443115234375
-0.010986328125
-0.0252685546875
0.0325927734375
0.0311279296875
0.0172119140625
0.0263671875
0.0120849609375
-0.0047607421875
0.019775390625
-0.0069580078125
0.0150146484375
-0.0084228515625
0.0040283203125
-0.0069580078125
-0.0040283203125
-0.005859375
0.0076904296875
-0.005859375
0.0003662109375
-0.0047607421875
-0.0106201171875
0.0025634765625
0.00146484375
0.00439453125
-0.01171875
0.0047607421875
-0.016845703125
0.005859375
-0.01171875
0.0047607421875
-0.0040283203125
0.0040283203125
-0.0087890625
0.0069580078125
-0.0142822265625
0.012451171875
-0.010986328125
0.0087890625
-0.0076904296875
0.005126953125
-0.0087890625
0.009521484375
0.0032958984375
0.0069580078125
0.0106201171875
0.0106201171875
0.0025634765625
0.0084228515625
0.003662109375
-0.0010986328125
0.0040283203125
0.002197265625
0.0003662109375
0.003662109375
-0.0106201171875
0.0032958984375
-0.0289306640625
-0.028564453125
-0.010986328125
-0.0325927734375
0.0260009765625
0.0267333984375
0.0223388671875
0.0296630859375
0.005859375
-0.005126953125
0.0087890625
-0.0084228515625
0.0142822265625
-0.0029296875
0.01171875
-0.0010986328125
0.0054931640625
-0.0029296875
-0.00146484375
0.0032958984375
0.00146484375
0.00146484375
0.0076904296875
-0.006591796875
0.0040283203125
-0.0040283203125
-0.0025634765625
0.0018310546875
-0.000732421875
-0.0029296875
0.0062255859375
-0.0047607421875
0.0032958984375
0.0029296875
-0.0010986328125
0.0003662109375
-0.0003662109375
-0.0018310546875
0.0029296875
-0.0025634765625
0.0029296875
-0.00146484375
-0.0025634765625
0.0025634765625
0.0
-0.0003662109375
-0.0040283203125
-0.005859375
-0.0091552734375
0.002197265625
-0.002197265625
0.00439453125
0.002197265625
-0.0047607421875
0.0010986328125
-0.0025634765625
-0.000732421875
0.00146484375
-0.0054931640625
-0.0230712890625
-0.0318603515625
-0.038818359375
0.00439453125
-0.002197265625
0.03955078125
0.04541015625
0.0091552734375
0.0347900390625
-0.00146484375
0.003662109375
0.0054931640625
0.003662109375
0.01318359375
0.0062255859375
0.003662109375
0.002197265625
-0.0047607421875
-0.003662109375
-0.0018310546875
-0.0032958984375
0.003662109375
-0.0054931640625
0.0062255859375
-0.00146484375
0.009521484375
0.0018310546875
0.0029296875
0.0040283203125
-0.0047607421875
0.0084228515625
0.0018310546875
0.01318359375
0.008056640625
0.01025390625
0.0062255859375
0.00439453125
0.0029296875
-0.0010986328125
0.0003662109375
-0.0029296875
0.00146484375
-0.0018310546875
0.0010986328125
-0.00439453125
-0.00439453125
-0.00146484375
-0.0135498046875
0.0076904296875
-0.016845703125
0.005859375
0.0025634765625
-0.0069580078125
0.010986328125
-0.0010986328125
0.000732421875
0.00439453125
-0.00146484375
-0.0164794921875
-0.0230712890625
-0.0216064453125
-0.003662109375
-0.01904296875
0.024169921875
0.0164794921875
0.008056640625
0.02490234375
0.0325927734375
-0.0091552734375
0.04541015625
-0.0010986328125
0.0205078125
-0.00146484375
0.0032958984375
-0.0018310546875
-0.0076904296875
0.0029296875
-0.0142822265625
0.0003662109375
-0.0150146484375
-0.0003662109375
-0.012451171875
0.0003662109375
-0.010986328125
-0.003662109375
-0.012451171875
-0.0054931640625
-0.009521484375
-0.003662109375
-0.0087890625
0.0025634765625
-0.0076904296875
0.0025634765625
-0.0025634765625
-0.0025634765625
-0.00439453125
0.005859375
-0.0047607421875
0.008056640625
0.0
0.00146484375
-0.005126953125
0.000732421875
0.0047607421875
-0.0032958984375
0.02783203125
0.0010986328125
0.003662109375
-0.000732421875
-0.015380859375
-0.0062255859375
-0.0029296875
-0.0018310546875
-0.015380859375
-0.0032958984375
-0.0205078125
-0.0146484375
-0.0245361328125
-0.0172119140625
-0.0054931640625
-0.02197265625
0.0516357421875
0.017578125
0.0831298828125
0.0479736328125
0.05859375
0.0194091796875
0.065216064453125
0.0087890625
0.051300048828125
0.00146484375
-0.001495361328125
-0.00439453125
-0.009552001953125
-0.0106201171875
-0.012451171875
-0.0084228515625
-0.000732421875
-0.0029296875
0.015777587890625
-0.00439453125
0.017608642578125
-0.00732421875
-0.0003662109375
-0.005859375
-0.031524658203125
-0.0018310546875
-0.064849853515625
-0.0010986328125
-0.07177734375
-0.000732421875
-0.0618896484375
-0.002197265625
-0.0380859375
0.0
-0.0552978515625
0.0
-0.0545654296875
-0.0003662109375
0.0113525390625
0.0018310546875
0.027099609375
0.0003662109375
0.008056640625
0.00146484375
-0.000732421875
0.0018310546875
-0.002197265625
0.003662109375
-0.0018310546875
0.00439453125
0.000732421875
0.0003662109375
0.02197265625
0.0062255859375
0.0274658203125
-0.041015625
0.0018310546875
-0.0377197265625
0.0318603515625
0.046875
0.046875
0.04248046875
0.0205078125
0.005859375
0.024169921875
-0.0054931640625
0.0263671875
-0.0054931640625
0.044677734375
0.002197265625
0.0208740234375
-0.0018310546875
-0.0098876953125
-0.008056640625
-0.0113525390625
-0.005859375
0.01318359375
-0.0076904296875
0.008056640625
-0.005859375
-0.0439453125
-0.0010986328125
-0.04833984375
0.00146484375
-0.0421142578125
0.0054931640625
-0.040283203125
0.01611328125
-0.0369873046875
0.0263671875
-0.006591796875
0.032958984375
0.0205078125
0.037353515625
0.0091552734375
0.0322265625
-0.009521484375
0.0150146484375
-0.01171875
-0.00439453125
-0.0084228515625
-0.003662109375
-0.0164794921875
0.003662109375
-0.0106201171875
0.00146484375
0.0029296875
-0.00146484375
0.00439453125
-0.00439453125
-0.000732421875
-0.0069580078125
-0.0029296875
-0.0552978515625
-0.013916015625
-0.0560302734375
-0.002197265625
0.032958984375
0.0062255859375
0.0435791015625
-0.0040283203125
0.000732421875
0.0010986328125
-0.0113525390625
0.00732421875
-0.0128173828125
0.012451171875
-0.0164794921875
0.009521484375
-0.016845703125
0.0091552734375
-0.009521484375
0.0032958984375
-0.006591796875
0.000732421875
-0.0076904296875
0.006591796875
-0.00439453125
0.0076904296875
-0.006591796875
0.006591796875
-0.0084228515625
0.009521484375
-0.003662109375
0.0120849609375
-0.008056640625
0.0113525390625
-0.0087890625
0.0091552734375
-0.003662109375
0.0120849609375
-0.00732421875
0.012451171875
-0.0076904296875
0.00439453125
0.0
0.0025634765625
-0.0003662109375
0.002197265625
-0.005859375
0.0062255859375
0.0076904296875
0.0120849609375
0.0025634765625
0.00732421875
-0.010986328125
0.0032958984375
-0.005859375
0.002197265625
-0.003662109375
-0.005859375
-0.0208740234375
-0.059326171875
-0.0380859375
-0.043212890625
-0.019775390625
0.019775390625
0.035888671875
0.012451171875
0.035888671875
0.0040283203125
-0.0025634765625
0.0029296875
0.0
0.0
0.0010986328125
-0.00146484375
0.008056640625
0.0146484375
0.0098876953125
0.0362548828125
0.0062255859375
0.0391845703125
0.0010986328125
0.044677734375
-0.0003662109375
0.0120849609375
0.0087890625
-0.0618896484375
0.0047607421875
-0.14501953125
0.0047607421875
-0.210601806640625
0.0069580078125
-0.121978759765625
0.0062255859375
0.008056640625
0.0087890625
-0.05859375
0.0054931640625
-0.1292724609375
0.00732421875
-0.0736083984375
0.009521484375
0.025634765625
0.003662109375
0.0439453125
0.0047607421875
-0.0479736328125
0.0157470703125
-0.1226806640625
0.0087890625
-0.0560302734375
-0.005126953125
0.00732421875
0.0
-0.05419921875
0.00439453125
-0.046875
-0.0054931640625
-0.002197265625
-0.0333251953125
0.0362548828125
-0.0238037109375
0.054931640625
0.0421142578125
0.0362548828125
0.0406494140625
0.015380859375
0.000732421875
0.031494140625
0.0025634765625
0.03369140625
0.0010986328125
-0.006591796875
-0.0032958984375
-0.0029296875
-0.0025634765625
0.0230712890625
0.0040283203125
0.003662109375
0.0040283203125
-0.0252685546875
-0.0025634765625
0.0047607421875
-0.0029296875
0.0413818359375
-0.00439453125
0.0391845703125
-0.008056640625
0.0322265625
-0.005859375
0.029296875
-0.0032958984375
0.0245361328125
-0.0018310546875
0.0238037109375
0.0003662109375
0.0234375
-0.00732421875
0.0201416015625
-0.008056640625
0.0150146484375
-0.005859375
0.009521484375
-0.0029296875
0.0098876953125
-0.00439453125
0.010986328125
-0.000732421875
0.01025390625
0.000732421875
0.02197265625
-0.013916015625
0.023834228515625
-0.012451171875
0.015045166015625
-0.0076904296875
0.0084228515625
-0.01611328125
-0.017974853515625
-0.0260009765625
0.0018310546875
-0.0245361328125
0.037017822265625
0.02490234375
0.019775390625
0.0325927734375
0.0069580078125
-0.00732421875
0.0062255859375
-0.0076904296875
0.009521484375
-0.002197265625
0.0029296875
0.0
-0.002197265625
-0.002197265625
0.00146484375
0.00146484375
0.002197265625
0.0003662109375
0.009521484375
-0.0003662109375
0.0084228515625
0.0003662109375
0.00439453125
-0.0047607421875
0.010986328125
-0.003662109375
0.01171875
0.0
0.0040283203125
0.0003662109375
0.00439453125
-0.0018310546875
0.0076904296875
0.0018310546875
0.02783203125
0.0025634765625
0.0531005859375
-0.000732421875
0.0509033203125
-0.0047607421875
0.0281982421875
-0.000732421875
-0.0018310546875
0.0142822265625
-0.0223388671875
0.0146484375
-0.03076171875
0.005126953125
-0.02197265625
-0.0003662109375
-0.0025634765625
-0.0018310546875
0.0091552734375
0.0029296875
0.0069580078125
-0.0501708984375
-0.0062255859375
-0.0509033203125
0.0208740234375
0.041748046875
0.0380859375
0.040283203125
0.016845703125
-0.0029296875
0.0091552734375
-0.0032958984375
0.0205078125
-0.0003662109375
0.0816650390625
-0.0010986328125
0.154937744140625
-0.0113525390625
0.616058349609375
-0.0421142578125
0.55560302734375
-0.0618896484375
0.0311279296875
-0.0531005859375
-0.244293212890625
-0.0263671875
-0.42816162109375
-0.032257080078125
-0.48931884765625
-0.051300048828125
-0.269927978515625
-0.0501708984375
-0.207305908203125
-0.050537109375
-0.1728515625
-0.085693359375
0.194122314453125
-0.1087646484375
0.1973876953125
-0.0640869140625
0.06591796875
-0.0238037109375
-0.1915283203125
-0.034423828125
-0.180908203125
-0.03955078125
0.0948486328125
0.0003662109375
0.1966552734375
0.029296875
0.164459228515625
0.0113525390625
0.085723876953125
-0.00732421875
0.0501708984375
0.000732421875
0.0421142578125
0.0128173828125
0.012451171875
0.009521484375
-0.0091552734375
0.0150146484375
0.0186767578125
0.03515625
0.040283203125
0.0516357421875
0.022705078125
0.043212890625
0.00732421875
0.0201416015625
0.0435791015625
0.01025390625
0.1058349609375
-0.0146484375
0.103271484375
-0.0238037109375
0.0333251953125
-0.00439453125
-0.0179443359375
0.0194091796875
0.0179443359375
0.0333251953125
0.058258056640625
0.034423828125
-0.1842041015625
0.0252685546875
-0.154571533203125
0.025634765625
-0.052001953125
0.0333251953125
-0.0758056640625
0.031494140625
0.0860595703125
0.0267333984375
0.0853271484375
0.01904296875
0.066650390625
0.0208740234375
0.05859375
0.02783203125
0.114288330078125
0.028594970703125
0.217193603515625
0.025299072265625
0.157470703125
0.0230712890625
0.08203125
0.0377197265625
0.0479736328125
0.037353515625
-0.0142822265625
0.03662109375
0.0040283203125
0.0465087890625
0.0567626953125
0.0479736328125
0.024169921875
0.0150146484375
-0.078369140625
0.0029296875
-0.0648193359375
0.04833984375
-0.0391845703125
0.0662841796875
-0.0626220703125
0.0406494140625
-0.098876953125
0.021240234375
-0.0831298828125
0.0172119140625
-0.095977783203125
0.0047607421875
-0.109161376953125
0.005126953125
-0.0706787109375
0.0047607421875
-0.0889892578125
-0.0025634765625
-0.0494384765625
-0.0087890625
-0.03662109375
-0.00439453125
-0.0648193359375
-0.0010986328125
-0.0604248046875
0.0025634765625
-0.053131103515625
0.006591796875
-0.028961181640625
0.0029296875
-0.054931640625
0.01025390625
-0.116455078125
0.01171875
-0.10546875
0.0098876953125
-0.069580078125
0.0062255859375
-0.04248046875
-0.005126953125
-0.01904296875
-0.008056640625
0.013916015625
-0.005859375
0.01611328125
-0.0069580078125
0.012451171875
-0.0062255859375
0.0003662109375
-0.00439453125
-0.03076171875
-0.006591796875
-0.0311279296875
-0.005859375
-0.0369873046875
-0.03662109375
-0.017578125
-0.0465087890625
0.03662109375
0.025634765625
0.0556640625
0.0347900390625
0.0399169921875
-0.01171875
0.0205078125
-0.01318359375
0.00146484375
-0.006591796875
-0.00146484375
-0.0076904296875
0.0029296875
-0.0076904296875
0.0062255859375
-0.005126953125
0.0087890625
-0.0062255859375
0.0098876953125
-0.0142822265625
-0.0010986328125
-0.0172119140625
-0.006591796875
-0.0084228515625
0.0010986328125
-0.0054931640625
0.0040283203125
-0.00732421875
-0.0128173828125
-0.0032958984375
-0.0179443359375
-0.0069580078125
-0.0032958984375
-0.0084228515625
-0.0025634765625
-0.0040283203125
-0.003662109375
-0.0062255859375
-0.0087890625
-0.0047607421875
-0.0091552734375
-0.0076904296875
-0.0018310546875
-0.000732421875
0.0091552734375
0.0010986328125
0.01904296875
-0.0062255859375
0.013916015625
-0.005126953125
-0.0087890625
-0.0010986328125
-0.016845703125
-0.0263671875
-0.0303955078125
-0.0384521484375
-0.0029296875
0.0003662109375
0.0311279296875
0.03369140625
0.0172119140625
0.0172119140625
0.0032958984375
-0.0076904296875
-0.0135498046875
-0.00732421875
-0.010986328125
-0.0040283203125
0.0054931640625
-0.00146484375
0.0128173828125
-0.0032958984375
0.0194091796875
0.0018310546875
0.0413818359375
-0.003662109375
0.0205078125
-0.010986328125
-0.0069580078125
-0.006591796875
0.005126953125
-0.005126953125
0.019775390625
-0.0018310546875
0.0201416015625
-0.0029296875
0.0018310546875
-0.0054931640625
0.0029296875
-0.000732421875
0.008056640625
0.0003662109375
0.002197265625
0.0018310546875
0.00146484375
-0.0010986328125
0.0003662109375
0.0003662109375
-0.0003662109375
0.005126953125
-0.00146484375
0.0029296875
0.005126953125
-0.0018310546875
0.006591796875
-0.005859375
0.003662109375
-0.003662109375
0.005126953125
0.0010986328125
-0.0208740234375
-0.031494140625
-0.005859375
-0.0413818359375
0.03369140625
0.0245361328125
0.01611328125
0.0252685546875
0.0018310546875
-0.0120849609375
0.0010986328125
-0.005859375
-0.0003662109375
-0.0029296875
-0.0025634765625
-0.003662109375
-0.0003662109375
-0.000732421875
0.00146484375
0.003662109375
-0.00146484375
-0.0010986328125
-0.0010986328125
0.0018310546875
-0.0003662109375
0.0029296875
-0.0003662109375
-0.00439453125
-0.0025634765625
0.0
-0.0062255859375
0.0084228515625
-0.00439453125
0.005859375
0.0025634765625
-0.0029296875
0.002197265625
0.000732421875
0.0010986328125
0.0029296875
0.0047607421875
-0.0025634765625
0.00732421875
-0.00146484375
0.003662109375
0.003662109375
0.0010986328125
0.005859375
-0.0032958984375
0.0054931640625
-0.000732421875
-0.0010986328125
0.006591796875
-0.003662109375
0.002197265625
0.0025634765625
0.00439453125
-0.037353515625
-0.0186767578125
-0.0391845703125
-0.000732421875
0.0252685546875
0.0274658203125
0.037353515625
0.0098876953125
0.01171875
0.009521484375
-0.003662109375
0.0029296875
0.00146484375
-0.0003662109375
0.0040283203125
0.0029296875
-0.000732421875
0.0040283203125
0.002197265625
0.006591796875
0.0029296875
0.01171875
-0.0003662109375
0.0128173828125
-0.005859375
0.009521484375
-0.0018310546875
0.009521484375
0.003662109375
0.0010986328125
0.0054931640625
-0.0106201171875
0.003662109375
-0.009521484375
-0.00732421875
-0.0087890625
-0.0040283203125
-0.0054931640625
-0.0010986328125
-0.006591796875
0.00146484375
-0.0087890625
0.00146484375
-0.0113525390625
-0.0029296875
-0.0120849609375
0.008056640625
-0.005859375
0.0069580078125
-0.000732421875
-0.00439453125
-0.0010986328125
-0.00732421875
-0.0084228515625
-0.000732421875
-0.0098876953125
-0.0186767578125
-0.02783203125
-0.0289306640625
-0.013916015625
-0.0062255859375
0.009521484375
0.0347900390625
0.00146484375
0.0355224609375
0.0029296875
-0.0003662109375
-0.00146484375
-0.000732421875
-0.009521484375
0.00146484375
-0.010986328125
-0.0025634765625
-0.0091552734375
0.0
-0.005126953125
0.0010986328125
0.0040283203125
-0.0069580078125
0.0054931640625
-0.0069580078125
0.0
-0.0010986328125
0.0018310546875
-0.0032958984375
0.002197265625
0.0025634765625
-0.0029296875
0.0087890625
-0.00146484375
0.008056640625
-0.002197265625
0.0128173828125
0.028564453125
0.0142822265625
0.0238037109375
0.0157470703125
-0.0230712890625
0.0216064453125
-0.021240234375
0.0164794921875
-0.0120849609375
0.01611328125
-0.01318359375
0.0157470703125
-0.003662109375
0.0069580078125
0.003662109375
0.0003662109375
0.0047607421875
-0.005859375
0.0091552734375
0.0018310546875
0.008056640625
-0.0428466796875
0.0516357421875
-0.047607421875
0.100341796875
0.0421142578125
0.091949462890625
0.041748046875
0.068145751953125
-0.0054931640625
0.046142578125
-0.00732421875
0.0245361328125
0.0025634765625
0.0047607421875
0.012451171875
-0.0076904296875
0.0113525390625
-0.0164794921875
0.01611328125
-0.02197265625
0.015380859375
-0.021240234375
0.0076904296875
-0.0106201171875
0.0054931640625
0.01318359375
0.0010986328125
0.0128173828125
-0.0003662109375
-0.00146484375
0.0029296875
-0.0040283203125
0.0062255859375
-0.009521484375
0.0040283203125
-0.0087890625
-0.0032958984375
-0.008056640625
-0.00732421875
-0.013916015625
-0.0032958984375
-0.018310546875
-0.003662109375
-0.0201416015625
-0.003662109375
-0.0223388671875
0.003662109375
-0.017608642578125
-0.003662109375
-0.010650634765625
-0.0098876953125
-0.0106201171875
-0.0062255859375
-0.01318359375
-0.006591796875
-0.0186767578125
-0.009521484375
-0.0318603515625
-0.0311279296875
-0.0128173828125
-0.034423828125
0.0172119140625
0.0216064453125
0.008056640625
0.0289306640625
-0.002197265625
-0.0084228515625
-0.0040283203125
-0.0091552734375
-0.01025390625
-0.0003662109375
-0.0076904296875
0.0
0.0003662109375
-0.005859375
-0.0032958984375
-0.000732421875
-0.0069580078125
-0.0003662109375
-0.0054931640625
-0.003662109375
0.0
-0.0010986328125
0.00146484375
-0.0029296875
0.00146484375
-0.00146484375
0.0018310546875
0.003662109375
-0.0010986328125
0.000732421875
-0.0025634765625
-0.00146484375
-0.0032958984375
0.003662109375
-0.0003662109375
0.0040283203125
0.0010986328125
0.0
-0.002197265625
0.0029296875
-0.0029296875
0.00146484375
0.0025634765625
0.0047607421875
-0.0010986328125
0.002197265625
-0.0029296875
-0.00439453125
-0.0018310546875
0.005859375
-0.005126953125
0.0040283203125
-0.008056640625
-0.013916015625
-0.040283203125
-0.0234375
-0.01171875
-0.019775390625
0.035888671875
0.0311279296875
0.0157470703125
0.043212890625
0.0010986328125
0.0018310546875
-0.0018310546875
0.0003662109375
0.0018310546875
0.0025634765625
0.0029296875
0.0
0.0003662109375
0.002197265625
-0.0032958984375
-0.0003662109375
-0.002197265625
-0.0029296875
-0.000732421875
0.000732421875
-0.0003662109375
-0.0010986328125
0.000732421875
0.0025634765625
0.0010986328125
0.0010986328125
0.0010986328125
-0.0047607421875
-0.0040283203125
0.002197265625
-0.003662109375
-0.000732421875
-0.000732421875
-0.005126953125
-0.0032958984375
-0.00146484375
-0.00732421875
0.0010986328125
-0.0062255859375
0.0025634765625
-0.01318359375
0.0003662109375
-0.022705078125
0.00439453125
-0.016845703125
0.0062255859375
-0.00732421875
-0.0029296875
0.0003662109375
-0.0040283203125
-0.005126953125
0.0054931640625
-0.0179443359375
-0.03369140625
-0.0384521484375
-0.037353515625
-0.0029296875
0.035888671875
0.019775390625
0.049072265625
-0.00439453125
0.0128173828125
0.0010986328125
-0.003662109375
0.0
-0.000732421875
0.00146484375
-0.002197265625
0.0040283203125
-0.0010986328125
-0.0018310546875
0.005859375
-0.00439453125
0.003662109375
-0.0029296875
0.0
0.0003662109375
-0.0047607421875
0.01025390625
-0.0047607421875
0.0076904296875
0.0
-0.000732421875
-0.0025634765625
-0.002197265625
-0.0010986328125
0.000732421875
-0.0025634765625
0.0010986328125
-0.00439453125
-0.0003662109375
-0.0029296875
0.0
-0.0029296875
0.0010986328125
0.0003662109375
0.0047607421875
-0.0018310546875
0.002197265625
-0.005126953125
-0.0025634765625
0.000732421875
-0.0029296875
0.0018310546875
0.0010986328125
-0.0032958984375
0.0029296875
-0.006591796875
0.00146484375
-0.005859375
-0.0047607421875
-0.0010986328125
-0.0179443359375
-0.03515625
-0.0084228515625
-0.040283203125
0.017578125
0.0296630859375
0.0150146484375
0.035888671875
0.0047607421875
-0.0054931640625
0.003662109375
-0.00732421875
0.0018310546875
-0.0029296875
0.0010986328125
-0.002197265625
-0.0010986328125
0.0010986328125
-0.00439453125
0.0029296875
-0.005859375
-0.003662109375
0.002197265625
-0.0087890625
0.00732421875
-0.0069580078125
0.005859375
-0.006591796875
0.0003662109375
-0.000732421875
-0.000732421875
0.00146484375
0.00732421875
-0.005126953125
0.005126953125
-0.0018310546875
0.00146484375
0.0
-0.000732421875
-0.0018310546875
-0.0106201171875
0.0003662109375
-0.010986328125
-0.0003662109375
-0.005126953125
-0.0018310546875
-0.0087890625
0.0069580078125
-0.005859375
0.0025634765625
-0.0003662109375
-0.005126953125
-0.0010986328125
0.0018310546875
0.0018310546875
-0.0010986328125
0.003662109375
0.003662109375
-0.0142822265625
-0.0391845703125
-0.00732421875
-0.046142578125
0.0267333984375
0.03662109375
0.028564453125
0.03955078125
0.01318359375
-0.0010986328125
0.006591796875
-0.0069580078125
0.0032958984375
-0.0054931640625
0.0
-0.0025634765625
0.002197265625
-0.003662109375
-0.0010986328125
-0.0032958984375
-0.0091552734375
0.0025634765625
-0.0106201171875
0.0029296875
-0.0084228515625
0.002197265625
-0.003662109375
0.0029296875
-0.000732421875
0.0010986328125
-0.003662109375
0.00439453125
-0.0062255859375
0.0040283203125
-0.0047607421875
0.005126953125
-0.0018310546875
0.005859375
-0.00439453125
0.0062255859375
-0.0054931640625
0.0040283203125
-0.0040283203125
0.00146484375
-0.0003662109375
-0.0018310546875
-0.0025634765625
0.00146484375
-0.0076904296875
0.0084228515625
-0.0010986328125
0.0010986328125
0.002197265625
-0.0029296875
-0.00146484375
-0.0029296875
-0.00439453125
0.0
-0.0113525390625
-0.041748046875
-0.0179443359375
-0.0428466796875
0.0076904296875
0.0362548828125
0.0216064453125
0.0362548828125
0.00146484375
0.00146484375
-0.00146484375
-0.002197265625
0.0025634765625
-0.00439453125
-0.0032958984375
0.002197265625
-0.0025634765625
0.0018310546875
-0.0003662109375
0.0010986328125
-0.002197265625
0.0
0.0029296875
-0.0084228515625
0.002197265625
-0.0047607421875
0.003662109375
-0.0032958984375
0.0047607421875
-0.0040283203125
0.0029296875
-0.00146484375
0.0025634765625
-0.0010986328125
0.0018310546875
-0.0018310546875
0.003662109375
-0.0032958984375
0.0003662109375
0.0003662109375
0.0025634765625
-0.0029296875
0.0018310546875
-0.0032958984375
0.000732421875
-0.000732421875
0.0032958984375
0.000732421875
0.0
0.006591796875
0.002197265625
-0.0003662109375
0.0054931640625
-0.009521484375
0.0032958984375
-0.005859375
-0.00732421875
0.0029296875
-0.02197265625
-0.0296630859375
-0.01318359375
-0.035888671875
0.0172119140625
0.03515625
0.0216064453125
0.0340576171875
0.008056640625
-0.0076904296875
-0.000732421875
-0.000732421875
-0.000732421875
-0.0003662109375
0.0047607421875
-0.0054931640625
0.002197265625
-0.0018310546875
-0.0018310546875
0.0010986328125
-0.002197265625
-0.0018310546875
0.0018310546875
-0.0054931640625
0.0
-0.0040283203125
-0.000732421875
-0.0029296875
0.002197265625
-0.0032958984375
0.0010986328125
-0.003662109375
-0.0047607421875
0.00439453125
-0.0054931640625
0.002197265625
-0.0040283203125
0.0
-0.005126953125
0.005126953125
0.0
-0.0018310546875
-0.0032958984375
0.000732421875
-0.010986328125
0.0062255859375
-0.0120849609375
0.0128173828125
-0.009521484375
0.008056640625
-0.00146484375
-0.0047607421875
0.0
-0.0003662109375
-0.003662109375
0.0025634765625
-0.0098876953125
0.0003662109375
-0.0318603515625
-0.02783203125
-0.0018310546875
-0.027099609375
0.0391845703125
0.0391845703125
0.0205078125
0.040283203125
0.0018310546875
0.0040283203125
-0.0010986328125
0.00146484375
-0.0010986328125
-0.0003662109375
-0.0029296875
0.0040283203125
-0.002197265625
-0.0010986328125
-0.0018310546875
-0.0091552734375
-0.003662109375
-0.0098876953125
-0.0018310546875
-0.01025390625
0.00439453125
-0.01171875
0.0018310546875
-0.0087890625
-0.00439453125
-0.0010986328125
-0.00439453125
0.0010986328125
-0.003662109375
0.0010986328125
-0.006591796875
0.0025634765625
-0.003662109375
0.000732421875
-0.000732421875
-0.000732421875
-0.00146484375
-0.0010986328125
0.0032958984375
-0.002197265625
-0.0032958984375
0.0069580078125
-0.0062255859375
0.012451171875
-0.002197265625
0.0054931640625
0.0
0.000732421875
0.00439453125
0.0
0.0
0.005126953125
-0.005126953125
-0.0234375
-0.03369140625
-0.03515625
-0.00439453125
0.0128173828125
0.03369140625
0.0384521484375
0.0087890625
0.0157470703125
0.000732421875
-0.000732421875
-0.0010986328125
0.00439453125
0.0003662109375
0.0003662109375
0.003662109375
-0.0018310546875
0.0032958984375
0.0032958984375
-0.0003662109375
0.00439453125
0.0003662109375
-0.0018310546875
0.0018310546875
-0.0047607421875
0.0025634765625
-0.0040283203125
0.0025634765625
-0.0025634765625
0.00439453125
-0.0040283203125
0.0062255859375
-0.00439453125
0.0029296875
0.000732421875
0.0018310546875
0.00146484375
0.003662109375
-0.0010986328125
0.00146484375
-0.0010986328125
-0.0018310546875
0.0010986328125
-0.0018310546875
0.002197265625
-0.0003662109375
-0.0040283203125
0.0032958984375
0.000732421875
0.0054931640625
-0.0003662109375
0.005859375
-0.0084228515625
0.0047607421875
-0.002197265625
0.0032958984375
-0.0025634765625
0.0029296875
-0.025634765625
-0.0223388671875
-0.0281982421875
-0.00439453125
-0.003662109375
0.0223388671875
0.0333251953125
0.0025634765625
0.0333251953125
0.000732421875
-0.00146484375
0.0032958984375
-0.00439453125
0.0010986328125
-0.0003662109375
0.000732421875
0.0010986328125
0.0029296875
-0.0025634765625
-0.002197265625
0.0040283203125
-0.0032958984375
0.00439453125
0.0025634765625
-0.0025634765625
0.000732421875
0.0
-0.0003662109375
-0.0018310546875
-0.0003662109375
0.000732421875
0.002197265625
0.0018310546875
0.0003662109375
0.00146484375
-0.000732421875
0.000732421875
0.002197265625
-0.000732421875
0.0
0.002197265625
-0.000732421875
0.0029296875
0.0029296875
-0.00439453125
0.0
0.000732421875
-0.005126953125
0.0087890625
0.000732421875
-0.000732421875
0.0054931640625
-0.0062255859375
0.0
0.0003662109375
-0.005126953125
0.005859375
-0.0084228515625
-0.0355224609375
-0.0267333984375
-0.0369873046875
0.0069580078125
0.0267333984375
0.0311279296875
0.041748046875
0.005126953125
0.0142822265625
0.0010986328125
-0.002197265625
0.0025634765625
-0.0025634765625
-0.0029296875
0.003662109375
-0.005126953125
0.005126953125
-0.00146484375
0.0010986328125
-0.0018310546875
0.0
0.000732421875
0.002197265625
0.005126953125
0.00146484375
0.0040283203125
0.0003662109375
0.00439453125
0.0
0.0047607421875
0.000732421875
0.0029296875
0.005859375
0.006591796875
0.0003662109375
0.008056640625
-0.0025634765625
0.00439453125
0.003662109375
0.006591796875
0.002197265625
0.009521484375
-0.0003662109375
0.0062255859375
0.00146484375
0.002197265625
0.00439453125
0.0018310546875
0.005126953125
0.0040283203125
0.0040283203125
0.0032958984375
0.0029296875
0.0040283203125
0.0010986328125
-0.0018310546875
0.0010986328125
-0.015380859375
-0.03076171875
-0.018310546875
-0.0311279296875
0.0054931640625
0.0333251953125
0.0142822265625
0.035888671875
0.0029296875
0.002197265625
-0.0062255859375
0.00732421875
-0.0113525390625
0.0076904296875
-0.0076904296875
-0.000732421875
-0.008056640625
0.0047607421875
-0.0135498046875
0.010986328125
-0.0120849609375
0.0010986328125
-0.0076904296875
0.003662109375
0.0010986328125
0.0076904296875
0.0069580078125
0.0098876953125
0.00146484375
0.0186767578125
0.0040283203125
0.0157470703125
-0.0029296875
0.0106201171875
-0.0091552734375
0.006591796875
0.005859375
0.0029296875
0.0216064453125
0.0025634765625
0.038818359375
0.009521484375
0.0498046875
0.0076904296875
0.046142578125
0.0010986328125
0.0479736328125
0.0069580078125
0.064483642578125
-0.002197265625
0.079132080078125
-0.013916015625
0.015380859375
-0.0025634765625
-0.0263671875
0.003662109375
-0.0128173828125
-0.0010986328125
-0.0234375
-0.03369140625
0.0040283203125
-0.0421142578125
0.0032958984375
0.0230712890625
-0.0120849609375
0.02783203125
-0.0018310546875
-0.0164794921875
-0.0135498046875
-0.0150146484375
-0.0194091796875
-0.009521484375
-0.028961181640625
-0.0106201171875
-0.031890869140625
-0.005126953125
-0.0281982421875
-0.000732421875
-0.02490234375
0.0069580078125
-0.0186767578125
0.01025390625
-0.03369140625
0.0054931640625
-0.0655517578125
0.005859375
-0.07177734375
0.0003662109375
-0.03369140625
-0.0091552734375
-0.031494140625
-0.00439453125
-0.005126953125
-0.0087890625
0.0340576171875
-0.021240234375
0.0362548828125
-0.0172119140625
0.041015625
-0.01171875
0.015380859375
-0.0128173828125
0.005126953125
-0.017578125
0.0179443359375
-0.0076904296875
0.0098876953125
-0.0018310546875
0.0003662109375
-0.0113525390625
-0.0029296875
-0.0150146484375
0.0003662109375
-0.01171875
-0.002197265625
-0.0146484375
-0.0296630859375
-0.025634765625
0.002197265625
-0.034423828125
0.0428466796875
0.0062255859375
0.0322265625
0.0208740234375
0.009521484375
-0.0113525390625
-0.0087890625
-0.0150146484375
-0.0263671875
-0.0098876953125
-0.029296875
-0.000732421875
-0.0084228515625
0.002197265625
-0.0084228515625
0.0029296875
-0.0098876953125
0.0018310546875
-0.0113525390625
0.0032958984375
-0.02490234375
0.010986328125
-0.0179443359375
0.0120849609375
-0.009521484375
0.01171875
-0.01318359375
0.0135498046875
-0.02197265625
0.0106201171875
-0.0318603515625
0.0113525390625
-0.032958984375
0.0179443359375
-0.0325927734375
0.0194091796875
-0.0380859375
0.0230712890625
-0.0428466796875
0.02783203125
-0.01611328125
0.01025390625
0.00146484375
-0.0018310546875
0.0040283203125
-0.0003662109375
0.0076904296875
-0.0032958984375
-0.0010986328125
0.0029296875
-0.0120849609375
0.0018310546875
-0.0260009765625
0.0
-0.052764892578125
-0.0303955078125
-0.019073486328125
-0.02783203125
0.045806884765625
0.0439453125
0.040313720703125
0.046875
0.031494140625
0.010986328125
0.0457763671875
0.006591796875
0.0340576171875
0.0128173828125
0.0128173828125
0.0128173828125
0.01025390625
0.012451171875
0.0098876953125
0.009521484375
0.009521484375
-0.00146484375
0.008056640625
-0.00439453125
0.0040283203125
-0.00146484375
-0.00439453125
0.005126953125
-0.0076904296875
0.0054931640625
-0.0040283203125
-0.00146484375
-0.016845703125
0.0084228515625
-0.0150146484375
0.0157470703125
0.0025634765625
0.002197265625
0.01611328125
-0.0113525390625
0.0172119140625
0.0003662109375
0.00732421875
0.01025390625
0.0091552734375
-0.0047607421875
0.0047607421875
-0.0018310546875
-0.0069580078125
0.0029296875
-0.002197265625
-0.0084228515625
0.0025634765625
-0.013916015625
-0.0084228515625
-0.003662109375
-0.0150146484375
-0.0091552734375
-0.0377197265625
-0.0260009765625
-0.01171875
-0.022705078125
0.0303955078125
0.019775390625
0.0113525390625
0.0263671875
0.0062255859375
-0.0120849609375
0.0113525390625
-0.01318359375
0.0106201171875
-0.0062255859375
0.0135498046875
-0.008056640625
0.017578125
-0.017578125
0.013916015625
-0.0179443359375
0.0029296875
-0.0128173828125
0.0025634765625
-0.0157470703125
0.0025634765625
-0.0135498046875
0.0029296875
-0.0150146484375
0.005126953125
-0.017578125
0.0018310546875
-0.01318359375
0.000732421875
-0.00439453125
0.002197265625
0.0029296875
0.0098876953125
0.0018310546875
0.0113525390625
-0.002197265625
0.0087890625
-0.0025634765625
0.0047607421875
-0.0025634765625
0.006591796875
-0.0047607421875
0.0098876953125
0.0120849609375
0.0025634765625
0.01025390625
0.00732421875
-0.0084228515625
0.009521484375
-0.002197265625
0.00146484375
-0.0010986328125
0.000732421875
-0.024169921875
-0.0179443359375
-0.027099609375
-0.0018310546875
-0.015380859375
0.029296875
0.0234375
0.0164794921875
0.02783203125
0.0084228515625
-0.01025390625
0.00732421875
-0.0087890625
0.006591796875
-0.00732421875
-0.0087890625
-0.0040283203125
-0.0142822265625
-0.005859375
-0.009521484375
-0.002197265625
-0.0040283203125
0.0
0.0098876953125
-0.0054931640625
0.008056640625
-0.005126953125
-0.00146484375
0.0003662109375
-0.002197265625
0.0018310546875
-0.002197265625
0.00146484375
-0.00146484375
-0.0025634765625
0.0003662109375
-0.005859375
-0.0029296875
0.0032958984375
-0.006591796875
0.01318359375
-0.0047607421875
0.0091552734375
-0.0040283203125
0.0010986328125
-0.0084228515625
-0.000732421875
-0.01171875
0.01025390625
-0.010986328125
0.01318359375
-0.0150146484375
0.002197265625
-0.024169921875
0.0054931640625
-0.006591796875
0.0040283203125
0.01025390625
-0.01025390625
-0.0216064453125
-0.01611328125
0.01318359375
-0.01611328125
0.0574951171875
0.02197265625
0.0223388671875
0.0311279296875
0.0054931640625
-0.0062255859375
0.0010986328125
-0.006591796875
-0.0018310546875
-0.0025634765625
-0.00146484375
-0.0025634765625
-0.0025634765625
-0.00732421875
-0.003662109375
-0.0076904296875
-0.003662109375
-0.00146484375
0.0018310546875
-0.006591796875
0.00439453125
-0.01171875
-0.038818359375
-0.003662109375
-0.046875
-0.00146484375
-0.00732421875
-0.00146484375
-0.0003662109375
0.00439453125
-0.0010986328125
0.008056640625
0.0054931640625
-0.002197265625
0.01171875
-0.0054931640625
0.009521484375
-0.0032958984375
0.0054931640625
-0.000732421875
0.0029296875
0.0025634765625
-0.0018310546875
0.0084228515625
-0.006591796875
0.01025390625
-0.0025634765625
0.000732421875
-0.00439453125
0.002197265625
-0.006591796875
0.0029296875
-0.0029296875
-0.019775390625
-0.0318603515625
-0.03076171875
-0.01171875
0.0054931640625
0.025634765625
0.0465087890625
0.0054931640625
0.0322265625
-0.0062255859375
0.0003662109375
-0.013916015625
0.0032958984375
-0.0091552734375
0.0029296875
-0.0003662109375
0.0
0.00146484375
0.0
0.018310546875
0.00732421875
0.038818359375
0.0128173828125
0.0355224609375
0.0032958984375
0.0263671875
-0.0018310546875
0.02197265625
0.0025634765625
0.0201416015625
-0.006591796875
0.0025634765625
-0.00146484375
-0.01171875
0.0076904296875
-0.0091552734375
-0.0010986328125
-0.0091552734375
0.0069580078125
0.0
0.0025634765625
0.0010986328125
0.00146484375
0.0018310546875
0.00439453125
0.0025634765625
-0.003662109375
-0.0062255859375
0.0003662109375
-0.0084228515625
0.0
-0.006591796875
0.0003662109375
-0.0091552734375
0.00439453125
-0.0062255859375
0.00439453125
0.0069580078125
0.0029296875
0.00146484375
-0.037353515625
-0.0069580078125
-0.0322265625
0.0208740234375
0.037353515625
0.02783203125
0.034423828125
0.00146484375
0.002197265625
-0.003662109375
-0.0062255859375
0.00439453125
-0.0091552734375
0.00146484375
-0.0010986328125
-0.0054931640625
0.0018310546875
-0.008056640625
0.002197265625
-0.0062255859375
0.005859375
-0.00146484375
0.00146484375
-0.0010986328125
-0.0029296875
-0.0076904296875
-0.003662109375
-0.008056640625
-0.0062255859375
-0.0025634765625
-0.0069580078125
-0.003662109375
-0.00439453125
-0.0032958984375
-0.00439453125
-0.0062255859375
-0.0032958984375
-0.005126953125
-0.0018310546875
-0.003662109375
0.002197265625
-0.0091552734375
0.0047607421875
-0.0047607421875
-0.002197265625
-0.0084228515625
0.0025634765625
-0.015380859375
0.0062255859375
-0.0106201171875
0.0018310546875
-0.0047607421875
0.0018310546875
0.0
-0.0018310546875
0.0032958984375
-0.005859375
-0.00439453125
-0.0509033203125
-0.0179443359375
-0.0487060546875
0.02197265625
0.0216064453125
0.038818359375
0.0238037109375
0.0098876953125
-0.0318603515625
0.0098876953125
-0.0443115234375
0.0120849609375
-0.0142822265625
0.0120849609375
-0.0032958984375
0.006591796875
-0.0040283203125
0.00439453125
-0.0029296875
0.0
0.005126953125
-0.0040283203125
0.006591796875
-0.0047607421875
0.0084228515625
-0.008056640625
0.0054931640625
-0.0128173828125
0.008056640625
-0.01171875
0.0128173828125
-0.00439453125
0.00732421875
-0.00732421875
0.01025390625
-0.010986328125
0.010986328125
-0.0087890625
0.012451171875
-0.0062255859375
0.018310546875
-0.0018310546875
0.0113525390625
-0.0003662109375
0.005126953125
-0.0062255859375
0.0032958984375
-0.003662109375
0.0054931640625
0.0029296875
0.00732421875
0.0040283203125
0.000732421875
0.00146484375
0.00146484375
0.0025634765625
0.0040283203125
-0.00146484375
-0.02197265625
-0.0311279296875
-0.02490234375
0.005126953125
0.0047607421875
0.040283203125
0.02783203125
0.010986328125
0.01904296875
0.003662109375
-0.0029296875
0.0029296875
-0.00146484375
0.005126953125
-0.0047607421875
0.0062255859375
-0.0032958984375
0.0010986328125
0.00146484375
-0.0010986328125
-0.003662109375
0.000732421875
-0.0076904296875
0.0032958984375
-0.010986328125
0.0010986328125
-0.009521484375
-0.003662109375
0.0025634765625
-0.002197265625
0.00439453125
-0.0018310546875
0.0003662109375
-0.0003662109375
-0.000732421875
-0.000732421875
0.0054931640625
-0.0003662109375
0.005126953125
0.0029296875
0.002197265625
0.003662109375
0.003662109375
0.01025390625
-0.0084228515625
0.0084228515625
-0.009521484375
0.0128173828125
0.0018310546875
0.015380859375
-0.0029296875
0.016845703125
-0.0128173828125
0.035888671875
-0.006591796875
0.0626220703125
0.0018310546875
0.0391845703125
-0.008056640625
-0.02783203125
-0.0252685546875
0.0018310546875
-0.0208740234375
0.030029296875
0.0399169921875
0.00732421875
0.0465087890625
0.005126953125
0.0025634765625
0.0032958984375
0.00146484375
0.00732421875
0.0003662109375
-0.0091552734375
0.0047607421875
-0.012451171875
-0.00146484375
-0.0106201171875
-0.005126953125
-0.0289306640625
0.0040283203125
-0.040283203125
-0.00732421875
-0.0260009765625
-0.0087890625
-0.0142822265625
0.005859375
-0.01171875
0.00146484375
0.002197265625
-0.0062255859375
0.0025634765625
-0.005126953125
0.003662109375
-0.0010986328125
0.0142822265625
0.0018310546875
0.0311279296875
0.0029296875
0.0274658203125
0.0
0.006591796875
0.0029296875
-0.01904296875
0.0025634765625
0.0003662109375
0.0003662109375
0.0274658203125
-0.0018310546875
-0.000732421875
-0.0062255859375
-0.0413818359375
-0.0025634765625
-0.0413818359375
-0.0025634765625
-0.0003662109375
-0.0084228515625
-0.0054931640625
-0.008056640625
-0.0025634765625
-0.0245361328125
0.008056640625
0.0062255859375
-0.0010986328125
0.031494140625
-0.010986328125
-0.0018310546875
-0.03662109375
-0.0091552734375
-0.0340576171875
-0.0084228515625
0.000732421875
-0.00732421875
0.0128173828125
-0.0062255859375
0.0010986328125
0.002197265625
-0.01611328125
0.012451171875
-0.0289306640625
0.009521484375
-0.0399169921875
0.0010986328125
-0.040283203125
-0.0010986328125
-0.01318359375
-0.003662109375
-0.00146484375
-0.0032958984375
-0.005126953125
-0.0003662109375
-0.0040283203125
-0.0010986328125
-0.0047607421875
-0.000732421875
-0.0029296875
0.00439453125
-0.0025634765625
0.00732421875
-0.0194091796875
0.002197265625
-0.03076171875
0.0029296875
-0.0201416015625
0.0069580078125
-0.017578125
0.003662109375
-0.0208740234375
0.0010986328125
-0.0150146484375
0.0
-0.0087890625
-0.008056640625
0.0
-0.0098876953125
0.0120849609375
-0.0318603515625
-0.002197265625
-0.0238037109375
-0.0091552734375
0.029296875
-0.012451171875
0.0208740234375
-0.033721923828125
-0.0062255859375
-0.048370361328125
-0.0040283203125
-0.0421142578125
-0.0029296875
0.049468994140625
0.0
0.167388916015625
-0.0025634765625
0.23876953125
-0.000732421875
0.237335205078125
0.0062255859375
0.201446533203125
-0.000732421875
-0.00146484375
-0.0047607421875
-0.1614990234375
-0.0087890625
-0.103668212890625
-0.0076904296875
-0.244659423828125
-0.008056640625
-0.398101806640625
-0.0098876953125
-0.254913330078125
-0.005126953125
-0.1300048828125
-0.0025634765625
-0.082794189453125
-0.0054931640625
0.0025634765625
-0.012451171875
0.062286376953125
-0.0150146484375
0.046142578125
-0.0029296875
0.0260009765625
-0.00439453125
0.0904541015625
0.0032958984375
0.1439208984375
0.01025390625
0.1160888671875
0.0054931640625
0.063385009765625
0.0234375
0.048004150390625
0.0223388671875
0.0655517578125
-0.041015625
0.0498046875
-0.0413818359375
0.0333251953125
0.034423828125
0.0362548828125
0.062255859375
-0.01171875
0.050537109375
-0.022705078125
0.0245361328125
0.018310546875
0.0172119140625
0.0303955078125
0.0208740234375
0.025634765625
0.0128173828125
0.0238037109375
0.005859375
-0.0128173828125
0.0113525390625
-0.0076904296875
0.008056640625
-0.000732421875
0.00439453125
-0.0380859375
0.0135498046875
-0.0985107421875
0.0252685546875
-0.147247314453125
0.0194091796875
-0.087554931640625
0.0106201171875
-0.04248046875
0.013916015625
0.0087890625
0.0128173828125
-0.0263671875
0.0087890625
-0.0736083984375
0.0234375
0.0135498046875
0.0252685546875
0.0509033203125
0.0157470703125
0.03515625
0.0076904296875
-0.008056640625
-0.0069580078125
-0.046875
-0.0084228515625
-0.068115234375
0.0179443359375
-0.101806640625
0.042144775390625
-0.134765625
0.037017822265625
-0.128570556640625
-0.019805908203125
-0.112823486328125
-0.031158447265625
-0.0626220703125
0.038482666015625
-0.0223388671875
0.031158447265625
-0.0347900390625
-0.0142822265625
-0.0260009765625
-0.029327392578125
0.0069580078125
-0.029693603515625
0.0355224609375
-0.024169921875
0.0380859375
-0.0186767578125
0.0303955078125
-0.0186767578125
0.0179443359375
-0.0098876953125
-0.005859375
0.006591796875
-0.0040283203125
0.0032958984375
0.005126953125
0.005859375
-0.0076904296875
0.0194091796875
-0.0245361328125
0.019775390625
-0.0205078125
0.025299072265625
-0.0084228515625
0.0142822265625
0.002197265625
-0.013214111328125
0.0223388671875
-0.0238037109375
0.0399169921875
-0.0245361328125
0.0439453125
-0.0201416015625
0.044677734375
-0.0216064453125
0.05126953125
-0.030029296875
0.056427001953125
-0.024169921875
0.054229736328125
-0.019775390625
0.0516357421875
-0.0234375
0.0523681640625
-0.019775390625
0.050537109375
-0.015380859375
0.0413818359375
-0.052734375
0.0087890625
-0.04248046875
0.0347900390625
0.0281982421875
0.0699462890625
0.0205078125
0.05859375
-0.017578125
0.110992431640625
-0.0260009765625
0.104034423828125
-0.02197265625
0.046875
-0.0146484375
0.0439453125
-0.0179443359375
0.044677734375
-0.0194091796875
0.040283203125
-0.0087890625
0.0399169921875
-0.0098876953125
0.057861328125
-0.0128173828125
0.065185546875
-0.013916015625
0.0234375
-0.0047607421875
0.0120849609375
0.0018310546875
0.0245361328125
-0.01025390625
0.0106201171875
-0.005859375
0.0201416015625
0.0054931640625
0.0274658203125
0.009521484375
0.0234375
0.008056640625
0.0142822265625
0.002197265625
-0.0087890625
0.008056640625
-0.0157470703125
0.013916015625
-0.006591796875
0.0106201171875
0.00146484375
-0.0018310546875
0.00732421875
-0.002197265625
0.002197265625
0.0025634765625
-0.0087890625
0.0
-0.129638671875
0.0611572265625
-0.1219482421875
0.0604248046875
