-0.749725341796875
-0.743499755859375
-0.749725341796875
-0.743133544921875
0.0
0.0
0.072906494140625
-0.0003662109375
0.027099609375
0.0
0.0208740234375
0.0003662109375
0.114288330078125
0.0
0.117919921875
0.0
0.125244140625
0.0003662109375
0.063720703125
0.0
0.0296630859375
0.0
0.083526611328125
-0.0003662109375
0.111724853515625
0.0
0.1893310546875
0.0003662109375
0.334381103515625
0.0003662109375
0.136260986328125
0.0
-0.152008056640625
1.0
-0.172149658203125
1.0
-0.06884765625
0.000732421875
-0.095947265625
0.0
-0.272857666015625
-0.0003662109375
-0.132232666015625
0.0
-0.0047607421875
0.0
-0.016845703125
0.0
0.084259033203125
0.0
0.219024658203125
0.0
0.0966796875
0.0
-0.003662109375
0.0003662109375
0.079833984375
0.0003662109375
-0.095947265625
-0.0003662109375
-0.141357421875
-0.0003662109375
-0.142486572265625
0.0
-0.0263671875
0.0
-0.220855712890625
-1.0
0.338775634765625
-1.0
1.0
-0.084991455078125
0.368804931640625
-0.0003662109375
-0.316802978515625
0.0
0.355987548828125
0.0
-0.731048583984375
0.0
-1.0
1.0
0.41973876953125
1.0
0.620452880859375
0.000732421875
-0.41973876953125
0.0
-0.649749755859375
-0.0003662109375
0.36920166015625
0.0
0.253814697265625
0.0
-0.36920166015625
-0.0003662109375
-0.0538330078125
0.0
0.59442138671875
0.000732421875
0.47100830078125
0.0003662109375
0.206939697265625
0.0
0.0380859375
0.0
-0.05712890625
0.0
0.1494140625
0.0
0.161529541015625
0.0
-0.0146484375
0.0
-0.168487548828125
0.0
-0.0743408203125
0.0
0.0919189453125
0.0
0.0758056640625
0.0
0.0596923828125
0.0
0.060821533203125
0.0
0.052398681640625
0.0
0.05712890625
0.0
0.0333251953125
0.0
0.03662109375
0.0
0.0281982421875
0.0
0.0333251953125
0.0
0.00439453125
0.0
-0.01171875
0.0
0.0010986328125
0.0
-0.017578125
0.0
0.002197265625
0.0
-0.0106201171875
0.0
-0.00146484375
0.0
0.0029296875
0.0
0.0029296875
0.0
0.025634765625
0.0
-0.01171875
0.0
-0.013916015625
0.0
0.0018310546875
0.0
0.003662109375
0.0
-0.000732421875
0.0
0.0018310546875
0.0
-0.005126953125
0.0
0.0201416015625
0.0
0.02783203125
-0.0003662109375
-0.00439453125
-0.0216064453125
0.012451171875
-0.064117431640625
0.000732421875
-0.087554931640625
0.012451171875
-0.0589599609375
0.183868408203125
-0.260040283203125
-0.0025634765625
-0.440948486328125
-0.185333251953125
0.308013916015625
-0.0113525390625
0.56439208984375
0.0018310546875
0.061187744140625
0.0018310546875
0.0
0.0948486328125
0.0
-0.0263671875
0.0
-0.135498046875
0.0
-0.0633544921875
0.0
-0.019775390625
0.0
0.0069580078125
0.0
-0.035888671875
0.0
-0.0318603515625
0.0
-0.0263671875
0.0
-0.0135498046875
0.0
-0.013916015625
0.0
0.0076904296875
0.0
0.0252685546875
0.0
0.0589599609375
0.0
0.0714111328125
0.0
0.0128173828125
0.0
-0.044677734375
0.0
-0.030029296875
0.0
0.0260009765625
0.0
-0.0076904296875
0.0003662109375
-0.0076904296875
0.0
0.0091552734375
-0.0003662109375
-0.019775390625
0.0
-0.0267333984375
0.0
-0.04833984375
0.0
-0.047637939453125
0.0
-0.004425048828125
0.0
0.013214111328125
0.0
-0.018310546875
0.0
-0.022003173828125
0.0
-0.009521484375
0.0
-0.025634765625
-0.0003662109375
-0.018310546875
-0.0003662109375
-0.012451171875
-0.062286376953125
0.0260009765625
-0.051300048828125
0.0234375
-0.029296875
0.031524658203125
-0.03369140625
-0.0062255859375
-0.0933837890625
-0.053131103515625
-0.1783447265625
0.0318603515625
-0.145050048828125
0.0413818359375
-0.129669189453125
0.018707275390625
-0.1102294921875
0.29962158203125
-0.1051025390625
-0.9061279296875
-0.10546875
-1.0
-0.141754150390625
0.0
-0.49957275390625
0.0
-0.345367431640625
0.0
0.401397705078125
0.060089111328125
0.893646240234375
0.146514892578125
0.643524169921875
0.15087890625
0.091583251953125
0.114990234375
0.0003662109375
0.110626220703125
0.0
0.0552978515625
0.0
0.0552978515625
0.0003662109375
0.138824462890625
0.0
0.0545654296875
-0.0003662109375
-0.0091552734375
0.0003662109375
0.0260009765625
0.0003662109375
0.0791015625
-0.0003662109375
0.1051025390625
0.0
0.277984619140625
-0.0069580078125
0.110626220703125
-0.0003662109375
-0.0615234375
0.000732421875
0.097412109375
-0.095245361328125
0.0523681640625
-0.185699462890625
0.0556640625
-0.183837890625
0.0457763671875
-0.200714111328125
0.0457763671875
-0.192657470703125
0.035888671875
-0.179443359375
0.0032958984375
-0.06591796875
0.0120849609375
-0.090484619140625
0.01611328125
-0.179840087890625
-0.002197265625
-0.1083984375
-0.013916015625
-0.1094970703125
-0.005126953125
-0.0823974609375
-0.0238037109375
-0.076202392578125
-0.0234375
-0.067413330078125
-0.0029296875
-0.0626220703125
0.0062255859375
-0.0673828125
0.0120849609375
-0.0574951171875
-0.00146484375
-0.059326171875
0.00439453125
-0.04833984375
-0.0047607421875
-0.059326171875
0.00439453125
-0.03955078125
0.0003662109375
-0.0377197265625
0.0040283203125
-0.0380859375
0.016845703125
-0.036285400390625
0.0098876953125
-0.046905517578125
0.019439697265625
-0.030029296875
0.010284423828125
-0.0318603515625
0.0142822265625
-0.017578125
0.0172119140625
0.019775390625
0.016845703125
0.008056640625
0.003662109375
-0.0670166015625
0.00146484375
-0.0538330078125
0.009521484375
-0.005859375
0.0157470703125
-0.005859375
0.0399169921875
-0.01318359375
0.0208740234375
-0.0421142578125
0.281280517578125
-0.189361572265625
-0.9632568359375
0.743133544921875
-1.0
1.0
0.0
0.57867431640625
0.084991455078125
0.0003662109375
0.51165771484375
0.0003662109375
1.0
0.0087890625
0.728851318359375
0.0003662109375
0.309844970703125
-0.287139892578125
0.259307861328125
-1.0
-0.62701416015625
-0.52813720703125
-0.57940673828125
0.67388916015625
0.50103759765625
0.317169189453125
0.57940673828125
-0.1142578125
0.171051025390625
-0.57391357421875
-0.224517822265625
-0.52301025390625
0.0
-0.213531494140625
0.224517822265625
-0.153106689453125
0.0
-0.202911376953125
0.0
0.0
0.0
0.0
0.0
0.0
-0.43511962890625
0.0025634765625
-0.54205322265625
0.028594970703125
-0.0391845703125
0.070709228515625
0.085693359375
0.1640625
0.206939697265625
0.0911865234375
-0.255279541015625
0.0494384765625
0.267364501953125
-0.134765625
0.362945556640625
0.074371337890625
-0.083160400390625
0.2530517578125
0.34246826171875
-0.082061767578125
-0.440948486328125
-0.0274658203125
-0.135162353515625
0.040283203125
-0.37322998046875
0.261871337890625
-0.57977294921875
0.643157958984375
-0.308380126953125
0.0421142578125
-0.50323486328125
-0.52960205078125
-0.0966796875
-0.075439453125
0.241729736328125
0.382720947265625
0.46881103515625
0.295562744140625
0.260040283203125
-0.03515625
0.0413818359375
0.116485595703125
-0.777191162109375
0.255279541015625
-0.66217041015625
0.459991455078125
0.305816650390625
0.48858642578125
0.440948486328125
0.123809814453125
0.279083251953125
0.0
0.188995361328125
0.0
0.190093994140625
-0.086822509765625
0.1629638671875
-0.150543212890625
-0.395538330078125
-0.312774658203125
-0.52777099609375
-0.059326171875
0.03076171875
0.046142578125
0.213165283203125
-0.252716064453125
0.1845703125
-0.2083740234375
0.145050048828125
-0.186431884765625
0.136993408203125
-0.179840087890625
0.0882568359375
-0.1263427734375
0.0677490234375
-0.0648193359375
0.0772705078125
-0.257476806640625
0.154571533203125
-0.288970947265625
0.173980712890625
0.46441650390625
0.1029052734375
0.450103759765625
0.1138916015625
-0.152740478515625
0.1065673828125
-0.189697265625
0.058624267578125
-0.1219482421875
0.036651611328125
-0.050567626953125
0.0823974609375
-0.102569580078125
0.11279296875
-0.11572265625
0.0596923828125
-0.241729736328125
0.0457763671875
-0.267364501953125
0.0743408203125
-0.22265625
0.0706787109375
-0.147216796875
0.024169921875
-0.046905517578125
-0.0263671875
-0.061553955078125
-0.1029052734375
-0.0223388671875
-0.166259765625
0.040313720703125
-0.213165283203125
0.080963134765625
-0.256011962890625
0.1197509765625
-0.295928955078125
0.112060546875
-0.328521728515625
0.0494384765625
-0.282012939453125
0.113525390625
-0.164825439453125
0.244659423828125
-0.018310546875
0.174346923828125
0.0435791015625
0.0809326171875
0.0098876953125
0.124542236328125
-0.010986328125
0.069976806640625
-0.1248779296875
-0.134429931640625
-0.177978515625
-0.205474853515625
-0.0380859375
-0.243560791015625
0.038818359375
-0.40179443359375
-0.158233642578125
-0.228179931640625
-0.38092041015625
0.0
-0.197784423828125
0.0
0.0
-0.0003662109375
0.003662109375
0.065582275390625
0.0
0.089385986328125
-0.003662109375
0.495147705078125
0.0
0.919647216796875
0.0
0.9189453125
0.0
0.45416259765625
0.0
0.0003662109375
0.0
0.016845703125
0.0
0.0
0.0
0.0
0.0325927734375
-0.0003662109375
0.100372314453125
-0.0069580078125
0.150543212890625
0.01318359375
0.213134765625
0.0069580078125
0.185333251953125
-0.0128173828125
0.123077392578125
0.0
0.119384765625
0.0003662109375
0.09521484375
0.0003662109375
0.125274658203125
-0.0003662109375
0.130767822265625
-0.0003662109375
0.0941162109375
0.0
0.08203125
0.0
0.065185546875
0.0003662109375
0.220855712890625
0.0003662109375
0.0245361328125
0.0
-0.167022705078125
0.0
0.0296630859375
0.0
0.07177734375
0.0
0.076202392578125
0.0
0.064117431640625
0.0
0.0281982421875
0.0
-0.179840087890625
-0.196685791015625
-0.9310302734375
-0.0069580078125
-0.44976806640625
-1.0
0.46368408203125
0.00732421875
0.278717041015625
1.0
0.301055908203125
-0.000732421875
0.35052490234375
0.0
0.227447509765625
0.0003662109375
0.05126953125
0.0
0.0267333984375
0.0
0.0673828125
-0.172882080078125
0.047607421875
-0.8878173828125
0.0157470703125
-0.46844482421875
-0.0391845703125
0.701019287109375
-0.0684814453125
0.635467529296875
-0.0487060546875
0.191192626953125
0.15234375
0.00146484375
0.1424560546875
-0.249786376953125
-0.154541015625
-0.43438720703125
-0.1351318359375
-0.159698486328125
-0.031494140625
-0.0706787109375
-0.027099609375
-0.16552734375
-0.0325927734375
-0.134063720703125
-0.032958984375
-0.115020751953125
0.01025390625
-0.1600341796875
0.0626220703125
-0.210235595703125
0.076904296875
-0.187530517578125
0.035888671875
-0.1439208984375
0.005859375
-0.0809326171875
-0.005126953125
-0.0772705078125
-0.0040283203125
-0.0556640625
-0.0025634765625
-0.061920166015625
-0.00146484375
-0.070343017578125
0.000732421875
-0.065185546875
-0.00439453125
-0.06298828125
0.0003662109375
-0.037353515625
-0.002197265625
-0.0457763671875
0.003662109375
-0.032958984375
0.012451171875
-0.0556640625
-0.003662109375
-0.025634765625
-0.0106201171875
-0.0135498046875
0.0
-0.034423828125
-0.0010986328125
-0.035888671875
-0.0029296875
-0.030029296875
-0.00146484375
0.01904296875
-0.0091552734375
-0.075836181640625
0.013916015625
-0.087188720703125
-0.0172119140625
0.49957275390625
-0.031494140625
0.625213623046875
-0.012451171875
0.51824951171875
-0.0252685546875
0.1072998046875
-0.0194091796875
-0.0791015625
-0.0355224609375
0.53875732421875
-0.035888671875
0.144287109375
-0.0347900390625
0.208770751953125
-0.013916015625
0.39739990234375
0.0047607421875
-0.169219970703125
0.005126953125
-0.34356689453125
0.0087890625
-0.347198486328125
0.005126953125
-0.2076416015625
0.0054931640625
0.454864501953125
0.01025390625
0.261871337890625
-0.0025634765625
-0.378692626953125
-0.012451171875
-0.32598876953125
0.0087890625
-0.269195556640625
0.0054931640625
-0.2200927734375
0.0010986328125
-0.195220947265625
0.00439453125
-0.133331298828125
-0.00439453125
-0.1175537109375
0.0245361328125
-0.090087890625
-0.009521484375
-0.04248046875
-0.0201416015625
-0.03515625
0.0062255859375
-0.0732421875
-0.0084228515625
-0.041015625
-0.0076904296875
-0.0205078125
-0.018310546875
-0.01611328125
-0.022369384765625
0.0128173828125
-0.023468017578125
-0.005859375
0.004058837890625
-0.0091552734375
0.013946533203125
-0.020538330078125
0.0047607421875
-0.009521484375
0.00146484375
-0.0113525390625
0.00146484375
-0.011383056640625
0.00439453125
0.0010986328125
0.006591796875
-0.0263671875
-0.005126953125
0.0069580078125
-0.0128173828125
0.0025634765625
0.005859375
-0.0076904296875
-0.002593994140625
-0.008056640625
-0.0018310546875
-0.0069580078125
-0.0018310546875
-0.00732421875
-0.009918212890625
-0.0098876953125
0.019439697265625
-0.006591796875
-0.015380859375
-0.234375
-0.033355712890625
1.0
-0.012451171875
1.0
-0.022705078125
-0.049072265625
-0.0205078125
0.0179443359375
-0.017578125
-0.305450439453125
-0.022705078125
-0.232574462890625
-0.02490234375
-0.2047119140625
0.0054931640625
-0.161895751953125
0.016845703125
-0.149810791015625
0.0146484375
-0.0970458984375
0.0146484375
-0.08203125
0.0194091796875
-0.0750732421875
0.0172119140625
-0.068878173828125
0.016845703125
-0.090118408203125
0.0
-0.0615234375
-0.0142822265625
-0.059326171875
0.003662109375
-0.0523681640625
-0.0040283203125
-0.0523681640625
-0.00146484375
-0.0399169921875
-0.0010986328125
-0.0355224609375
-0.00146484375
-0.0205078125
0.0267333984375
-0.0010986328125
-0.0084228515625
0.0234375
-0.02197265625
0.012451171875
0.000732421875
-0.0318603515625
-0.0087890625
0.010986328125
-0.0120849609375
0.0150146484375
-0.0142822265625
0.0208740234375
-0.0234375
0.022705078125
-0.01904296875
0.0186767578125
0.009521484375
0.015380859375
0.0157470703125
-0.005126953125
0.0098876953125
0.0087890625
0.003662109375
0.003662109375
0.0062255859375
0.013916015625
0.00146484375
0.0029296875
0.01025390625
-0.0047607421875
-0.0047607421875
0.01611328125
-0.0150146484375
0.0142822265625
0.005859375
0.0076904296875
-0.0032958984375
-0.0018310546875
0.0
0.0047607421875
0.0
-0.003662109375
0.0003662109375
0.006591796875
0.0238037109375
-0.0157470703125
-0.009521484375
0.03076171875
-0.016845703125
0.0311279296875
0.0113525390625
-0.0384521484375
-0.0018310546875
-0.00439453125
-0.0054931640625
0.000732421875
-0.0084228515625
0.0186767578125
-0.024169921875
0.0157470703125
-0.021240234375
0.01611328125
0.0040283203125
0.003662109375
0.01611328125
-0.005859375
0.0113525390625
0.0054931640625
0.0018310546875
-0.0029296875
0.005859375
-0.0040283203125
0.0003662109375
-0.0106201171875
0.006591796875
0.0029296875
-0.0128173828125
0.0106201171875
-0.01904296875
0.015380859375
0.0032958984375
0.0234375
-0.00439453125
0.027099609375
-0.00439453125
0.0194091796875
-0.00732421875
0.006591796875
-0.0018310546875
0.017578125
0.0205078125
-0.005859375
-0.002197265625
0.046539306640625
-0.0087890625
0.01904296875
0.012451171875
-0.047637939453125
-0.003662109375
-0.01025390625
-0.008056640625
-0.00439453125
-0.0062255859375
0.0164794921875
-0.016845703125
0.009521484375
-0.0128173828125
0.022369384765625
0.00439453125
0.0128173828125
0.0157470703125
0.010986328125
0.0076904296875
0.016510009765625
-0.0010986328125
0.016845703125
0.00439453125
0.02783203125
0.0018310546875
0.0084228515625
0.0128173828125
0.00439453125
-0.005859375
0.0186767578125
-0.0113525390625
0.03515625
0.0047607421875
0.01025390625
-0.0003662109375
0.01171875
0.0010986328125
0.0150146484375
-0.00146484375
-0.002197265625
0.002197265625
0.003662109375
0.02490234375
-0.0252685546875
-0.0069580078125
0.0340576171875
-0.025634765625
0.022705078125
0.0062255859375
-0.031494140625
-0.0084228515625
-0.006591796875
-0.01171875
0.0010986328125
-0.0091552734375
0.0142822265625
-0.0234375
0.0113525390625
-0.01904296875
0.0179443359375
0.0040283203125
-0.0054931640625
0.021240234375
-0.0047607421875
0.0084228515625
-0.0047607421875
0.0032958984375
-0.00146484375
0.0062255859375
0.0018310546875
-0.0003662109375
-0.0054931640625
0.0128173828125
-0.0084228515625
-0.00439453125
0.002197265625
-0.0076904296875
0.0186767578125
0.005859375
-0.0062255859375
0.000732421875
0.005859375
-0.002197265625
0.000732421875
-0.000732421875
-0.0062255859375
-0.0003662109375
-0.00146484375
0.01318359375
-0.03369140625
-0.0076904296875
0.03662109375
-0.018310546875
0.0201416015625
0.009521484375
-0.046875
-0.0120849609375
-0.0201416015625
-0.0120849609375
0.0
-0.0091552734375
0.0106201171875
-0.0238037109375
0.0032958984375
-0.0234375
0.009521484375
-0.0018310546875
-0.0128173828125
0.019775390625
0.005859375
0.0106201171875
0.0150146484375
0.01171875
0.0076904296875
0.021240234375
-0.002197265625
0.0194091796875
-0.0025634765625
0.186798095703125
-0.197418212890625
0.0025634765625
0.009521484375
-0.168853759765625
0.228546142578125
0.008056640625
0.000732421875
0.0084228515625
-0.003662109375
0.0040283203125
-0.0120849609375
0.005859375
-0.008056640625
0.0
-0.0128173828125
0.021240234375
-0.00439453125
0.0054931640625
0.0069580078125
-0.0216064453125
-0.03076171875
-0.00439453125
-0.0205078125
-0.0120849609375
-0.0062255859375
-0.005859375
0.0087890625
-0.013916015625
0.0106201171875
-0.0234375
0.0135498046875
-0.018310546875
0.0146484375
0.00439453125
-0.0032958984375
0.016845703125
0.0025634765625
0.0029296875
0.0
0.005126953125
0.0062255859375
0.0018310546875
-0.0029296875
0.0018310546875
0.005859375
0.010986328125
-0.0556640625
-0.0076904296875
0.008056640625
-0.012451171875
0.073974609375
0.002197265625
-0.0040283203125
0.0025634765625
0.0054931640625
0.000732421875
-0.0025634765625
0.0047607421875
0.00146484375
-0.0010986328125
-0.00439453125
-0.0194091796875
0.0128173828125
-0.0091552734375
0.0245361328125
0.017578125
-0.008056640625
0.0135498046875
-0.024169921875
-0.0047607421875
-0.0208740234375
-0.0032958984375
0.0018310546875
-0.006591796875
0.0
-0.0135498046875
0.0120849609375
-0.0252685546875
0.0150146484375
-0.012451171875
0.00439453125
0.0186767578125
-0.0069580078125
0.0172119140625
-0.01318359375
0.0106201171875
0.0047607421875
0.00439453125
0.0018310546875
0.0084228515625
0.0047607421875
0.006591796875
-0.005126953125
0.0047607421875
0.0018310546875
0.005126953125
0.0
0.01025390625
-0.015380859375
0.019775390625
-0.0087890625
0.0128173828125
-0.0157470703125
0.0157470703125
-0.0098876953125
0.01318359375
-0.0142822265625
0.01025390625
-0.0106201171875
0.0355224609375
-0.008056640625
0.0157470703125
0.0
-0.0098876953125
-0.0146484375
0.0025634765625
-0.0281982421875
-0.0003662109375
-0.00439453125
-0.00439453125
-0.0010986328125
-0.0054931640625
0.009521484375
-0.0194091796875
0.0076904296875
-0.0135498046875
0.0091552734375
0.012451171875
-0.005859375
0.0186767578125
-0.012451171875
0.0106201171875
0.0029296875
0.0025634765625
0.0010986328125
0.0040283203125
0.008056640625
-0.0018310546875
0.0018310546875
0.179840087890625
-0.200347900390625
-0.0113525390625
0.0128173828125
-0.187530517578125
0.216827392578125
0.0047607421875
0.00146484375
-0.0040283203125
0.0032958984375
0.0018310546875
0.00439453125
0.0
-0.0054931640625
-0.0029296875
0.005859375
-0.017578125
0.00439453125
-0.0234375
0.050537109375
0.012451171875
0.005859375
0.0216064453125
-0.0516357421875
-0.0069580078125
-0.00732421875
-0.0128173828125
0.0025634765625
-0.0098876953125
0.010986328125
-0.0230712890625
0.0106201171875
-0.0230712890625
0.0208740234375
-0.0062255859375
0.0040283203125
0.0150146484375
-0.0054931640625
0.012451171875
-0.000732421875
0.0003662109375
0.000732421875
0.0018310546875
0.0062255859375
-0.0010986328125
-0.000732421875
-0.0018310546875
0.008056640625
-0.012451171875
0.01025390625
-0.010986328125
0.016845703125
-0.0040283203125
0.0047607421875
0.002197265625
0.002197265625
0.0032958984375
0.0062255859375
-0.0025634765625
-0.00439453125
0.00146484375
0.00146484375
-0.005126953125
-0.0025634765625
0.028564453125
-0.0010986328125
-0.005126953125
0.015380859375
-0.027099609375
0.0040283203125
0.0091552734375
-0.0281982421875
0.002197265625
-0.017578125
0.003662109375
-0.0003662109375
-0.012451171875
0.0047607421875
-0.0201416015625
0.0150146484375
-0.0087890625
-0.003662109375
0.0208740234375
-0.0142822265625
0.01904296875
-0.0128173828125
0.0098876953125
-0.0032958984375
0.01318359375
-0.00146484375
0.0098876953125
-0.009521484375
0.010986328125
-0.003662109375
0.183502197265625
-0.216094970703125
-0.0010986328125
0.008056640625
-0.181304931640625
0.208770751953125
0.00732421875
-0.0040283203125
-0.000732421875
0.0003662109375
-0.0018310546875
-0.0040283203125
0.0
0.000732421875
-0.0113525390625
0.0
-0.022705078125
0.017578125
-0.0238037109375
0.0413818359375
0.0146484375
0.003662109375
0.00732421875
-0.0413818359375
-0.0208740234375
-0.002197265625
-0.018310546875
0.01171875
-0.019775390625
0.0146484375
-0.01904296875
0.0230712890625
-0.022705078125
0.0091552734375
-0.003662109375
0.0040283203125
0.0142822265625
-0.01025390625
0.013916015625
-0.0029296875
0.0084228515625
-0.005126953125
0.0076904296875
-0.005859375
0.0062255859375
-0.0010986328125
0.0
-0.005126953125
-0.0018310546875
0.00732421875
-0.0054931640625
0.0018310546875
0.0029296875
0.0018310546875
0.00439453125
-0.0032958984375
0.0054931640625
-0.0029296875
0.0025634765625
-0.003662109375
-0.0054931640625
-0.0003662109375
-0.0032958984375
0.0040283203125
0.025634765625
-0.0069580078125
0.002197265625
0.01904296875
-0.0263671875
0.0010986328125
-0.000732421875
-0.0172119140625
-0.009521484375
-0.005859375
-0.00732421875
0.0018310546875
-0.0062255859375
0.0091552734375
-0.01904296875
0.0087890625
-0.0142822265625
0.009521484375
0.00439453125
-0.00732421875
0.0201416015625
-0.005126953125
0.006591796875
-0.002197265625
0.0010986328125
0.0087890625
0.0040283203125
0.003662109375
0.0025634765625
-0.002197265625
0.183868408203125
-0.206939697265625
-0.0087890625
0.0032958984375
-0.183868408203125
0.219024658203125
-0.0003662109375
0.000732421875
0.0040283203125
0.003662109375
0.002197265625
-0.003662109375
-0.0025634765625
0.0
-0.002197265625
0.0029296875
0.0238037109375
-0.0164794921875
-0.002197265625
0.022705078125
-0.028564453125
0.013916015625
0.0029296875
-0.02197265625
-0.0098876953125
-0.008056640625
-0.0098876953125
0.0091552734375
-0.016845703125
0.0150146484375
-0.0238037109375
0.0142822265625
-0.0179443359375
0.01318359375
0.00146484375
-0.005126953125
0.018310546875
-0.003662109375
0.0054931640625
-0.0029296875
0.005126953125
0.0029296875
0.0003662109375
0.002197265625
0.000732421875
0.006591796875
-0.0003662109375
0.0084228515625
0.0032958984375
-0.0047607421875
-0.01025390625
0.019775390625
-0.02197265625
0.021240234375
-0.0003662109375
0.0084228515625
-0.0047607421875
0.00732421875
0.000732421875
0.0010986328125
-0.005126953125
0.000732421875
-0.0106201171875
0.0091552734375
0.009521484375
-0.0399169921875
-0.0164794921875
-0.018310546875
-0.0113525390625
-0.066650390625
0.0098876953125
-0.791107177734375
-0.01171875
0.076171875
-0.0157470703125
0.805023193359375
-0.0098876953125
0.087890625
-0.01611328125
0.052734375
-0.0179443359375
0.022705078125
0.0054931640625
0.017578125
0.0201416015625
-0.0069580078125
0.0186767578125
0.002197265625
0.0084228515625
-0.0003662109375
0.0069580078125
-0.0025634765625
0.0047607421875
-0.01318359375
0.008056640625
-0.013916015625
0.00732421875
-0.0113525390625
-0.0018310546875
-0.0146484375
0.0062255859375
-0.0098876953125
0.01025390625
-0.0186767578125
0.0098876953125
0.00146484375
0.003662109375
-0.0003662109375
0.0076904296875
-0.002197265625
0.01025390625
-0.015380859375
0.03369140625
-0.015380859375
0.0040283203125
0.0128173828125
-0.0296630859375
-0.0087890625
-0.01025390625
-0.012451171875
-0.021240234375
-0.005859375
-0.0106201171875
0.003662109375
-0.013916015625
0.0054931640625
-0.0238037109375
0.0113525390625
-0.01904296875
0.00732421875
0.0025634765625
-0.012451171875
0.02197265625
-0.0135498046875
0.0076904296875
-0.012451171875
0.00732421875
-0.0018310546875
0.006591796875
-0.0106201171875
0.0018310546875
0.0
0.0194091796875
-0.076171875
-0.0047607421875
0.0018310546875
-0.0194091796875
0.081298828125
0.0
-0.005126953125
0.0
0.0047607421875
0.003662109375
-0.0054931640625
0.003662109375
0.005859375
-0.003662109375
0.0025634765625
-0.01025390625
0.0
0.01025390625
-0.005859375
0.015380859375
-0.0062255859375
0.0
-0.010986328125
-0.003662109375
-0.03076171875
-0.005859375
-0.010986328125
-0.009521484375
-0.01171875
-0.009521484375
-0.0003662109375
-0.018310546875
0.000732421875
-0.0091552734375
0.0
0.0201416015625
-0.0029296875
0.022705078125
-0.010986328125
0.0172119140625
0.0032958984375
0.0135498046875
-0.0091552734375
0.0164794921875
-0.0150146484375
0.0146484375
-0.02197265625
0.194488525390625
-0.233306884765625
-0.0003662109375
0.0010986328125
-0.181671142578125
0.219024658203125
0.00732421875
-0.0010986328125
-0.0010986328125
-0.0069580078125
0.0069580078125
-0.00439453125
0.003662109375
-0.0113525390625
0.030029296875
-0.0216064453125
-0.0054931640625
0.0179443359375
-0.029296875
0.0230712890625
0.0018310546875
-0.0238037109375
-0.012451171875
-0.01171875
-0.0087890625
0.01025390625
-0.0150146484375
0.0098876953125
-0.0208740234375
0.0172119140625
-0.0205078125
0.0084228515625
0.00732421875
0.0
0.021240234375
-0.0076904296875
0.0091552734375
-0.0029296875
0.0091552734375
0.00439453125
0.00439453125
-0.003662109375
0.0032958984375
0.0054931640625
-0.0010986328125
0.002197265625
0.000732421875
0.0091552734375
0.0054931640625
-0.0029296875
-0.0106201171875
0.01611328125
-0.0150146484375
0.02197265625
0.0047607421875
-0.0018310546875
0.0032958984375
0.00732421875
-0.002197265625
-0.008056640625
0.00439453125
-0.0047607421875
-0.0025634765625
-0.0087890625
0.0098876953125
-0.03515625
-0.01318359375
0.027099609375
-0.010986328125
0.022705078125
0.012451171875
-0.041748046875
-0.0087890625
-0.016845703125
-0.00439453125
0.0032958984375
-0.0076904296875
0.00732421875
-0.010986328125
0.0179443359375
-0.0164794921875
0.0150146484375
0.00146484375
0.00439453125
0.0194091796875
-0.0069580078125
0.017578125
-0.010986328125
0.01318359375
0.0010986328125
0.0010986328125
-0.0032958984375
0.006591796875
-0.00146484375
0.0062255859375
-0.010986328125
0.0018310546875
-0.005126953125
-0.000732421875
-0.0032958984375
0.0047607421875
-0.0047607421875
0.00732421875
-0.000732421875
0.0018310546875
-0.0216064453125
0.00146484375
-0.0150146484375
-0.000732421875
-0.005859375
-0.00146484375
0.000732421875
0.01904296875
0.0087890625
0.005859375
0.01318359375
-0.0238037109375
-0.008056640625
-0.0157470703125
-0.0106201171875
-0.0106201171875
0.0040283203125
-0.0106201171875
0.0029296875
-0.0150146484375
0.0194091796875
-0.02490234375
0.016845703125
-0.018310546875
0.01611328125
0.008056640625
-0.0062255859375
0.0230712890625
-0.0098876953125
0.0098876953125
0.005859375
0.002197265625
0.0025634765625
0.0087890625
0.0047607421875
0.0029296875
0.0003662109375
0.006591796875
0.0032958984375
0.0
0.0054931640625
-0.005126953125
0.015380859375
-0.00146484375
0.0062255859375
0.0025634765625
0.0010986328125
0.0047607421875
0.006591796875
-0.0032958984375
0.003662109375
-0.0040283203125
0.0113525390625
-0.0084228515625
-0.000732421875
0.02490234375
-0.0087890625
-0.003662109375
0.0201416015625
-0.0267333984375
0.0120849609375
0.0018310546875
-0.019775390625
-0.00732421875
-0.0084228515625
-0.006591796875
0.0040283203125
-0.0120849609375
-0.0040283203125
-0.019775390625
-0.00732421875
-0.02197265625
-0.0380859375
0.0098876953125
-0.040283203125
0.01904296875
-0.0062255859375
0.0091552734375
0.005859375
0.0062255859375
0.0194091796875
0.005859375
0.0172119140625
0.013916015625
0.016845703125
0.0098876953125
0.005126953125
0.0076904296875
0.0032958984375
0.0010986328125
-0.0091552734375
0.005859375
-0.0146484375
0.00439453125
-0.00732421875
-0.00439453125
-0.0062255859375
-0.0054931640625
0.000732421875
-0.0087890625
-0.0032958984375
-0.005126953125
-0.000732421875
0.01904296875
0.0
-0.000732421875
0.0186767578125
-0.0260009765625
-0.0047607421875
-0.0047607421875
-0.0205078125
-0.00732421875
-0.00146484375
-0.0084228515625
0.0018310546875
-0.0054931640625
0.0128173828125
-0.018310546875
0.0120849609375
-0.01171875
0.010986328125
0.01171875
-0.0087890625
0.02197265625
-0.0076904296875
0.01171875
0.0018310546875
0.0040283203125
0.000732421875
0.0069580078125
0.0018310546875
0.0029296875
-0.0040283203125
0.00146484375
0.0047607421875
-0.005859375
0.00732421875
-0.0032958984375
0.010986328125
-0.0032958984375
0.003662109375
-0.0025634765625
0.008056640625
-0.00146484375
0.0084228515625
-0.0047607421875
0.0025634765625
0.00146484375
0.0062255859375
0.000732421875
-0.0029296875
0.0311279296875
-0.0003662109375
-0.00146484375
0.01904296875
-0.022705078125
0.0062255859375
-0.0010986328125
-0.0238037109375
-0.012451171875
-0.0062255859375
-0.0087890625
-0.00146484375
-0.0164794921875
0.0062255859375
-0.0208740234375
0.0201416015625
-0.0208740234375
-0.0084228515625
0.0032958984375
-0.0054931640625
0.0157470703125
0.0018310546875
0.0091552734375
-0.0040283203125
0.006591796875
0.0098876953125
0.009521484375
0.0150146484375
0.01171875
0.0135498046875
0.0076904296875
0.0032958984375
0.0087890625
-0.0025634765625
0.0018310546875
-0.015380859375
0.008056640625
-0.0164794921875
0.0091552734375
-0.013916015625
0.0018310546875
-0.0084228515625
0.003662109375
-0.0054931640625
-0.0018310546875
-0.01171875
-0.00146484375
-0.0054931640625
0.02783203125
-0.005859375
0.0047607421875
0.0135498046875
-0.0263671875
-0.00439453125
-0.0076904296875
-0.012451171875
-0.0120849609375
0.0025634765625
-0.0113525390625
0.0062255859375
-0.01025390625
0.0205078125
-0.0194091796875
0.0157470703125
-0.0150146484375
0.0128173828125
0.005859375
-0.00732421875
0.0223388671875
-0.0076904296875
0.0076904296875
0.002197265625
0.0010986328125
0.0069580078125
0.00439453125
0.0076904296875
0.0018310546875
-0.000732421875
0.006591796875
0.003662109375
-0.005126953125
0.008056640625
-0.005859375
0.012451171875
-0.000732421875
-0.0003662109375
0.0062255859375
0.000732421875
0.0040283203125
0.00146484375
0.00146484375
-0.00146484375
0.00439453125
0.002197265625
-0.0032958984375
-0.0040283203125
0.029296875
-0.0098876953125
-0.006591796875
0.0216064453125
-0.029296875
0.024169921875
-0.003662109375
-0.0157470703125
-0.0106201171875
0.000732421875
-0.008056640625
0.0128173828125
-0.0150146484375
0.010986328125
-0.022705078125
0.02490234375
-0.028564453125
0.017578125
0.0032958984375
0.000732421875
0.0179443359375
-0.0062255859375
0.01318359375
-0.003662109375
0.0146484375
-0.0098876953125
0.0142822265625
-0.0128173828125
0.010986328125
-0.010986328125
0.0018310546875
-0.0439453125
0.013916015625
-0.58489990234375
-0.000732421875
0.222686767578125
-0.0054931640625
0.841644287109375
0.0106201171875
0.231475830078125
0.008056640625
0.186065673828125
0.0098876953125
0.0010986328125
0.0047607421875
-0.0296630859375
0.002197265625
-0.0234375
0.0098876953125
-0.058258056640625
-0.00439453125
-0.000732421875
0.0003662109375
-0.0164794921875
0.0205078125
-0.082794189453125
-0.0003662109375
-0.0582275390625
-0.01025390625
-0.0399169921875
-0.0157470703125
-0.024169921875
-0.0252685546875
-0.0333251953125
-0.0205078125
-0.0281982421875
-0.0040283203125
-0.0391845703125
0.018310546875
-0.0391845703125
0.0238037109375
-0.0498046875
0.0662841796875
-0.04248046875
0.0062255859375
-0.03955078125
-0.06884765625
-0.0054931640625
-0.0347900390625
0.01171875
-0.0245361328125
-0.0208740234375
-0.01904296875
-0.0018310546875
-0.0281982421875
-0.002197265625
-0.0230712890625
0.0025634765625
0.0003662109375
-0.020904541015625
0.0230712890625
-0.038848876953125
0.0186767578125
-0.0234375
0.000732421875
-0.017578125
-0.0010986328125
-0.0135498046875
-0.0087890625
-0.016845703125
-0.0106201171875
0.0069580078125
-0.0047607421875
0.00439453125
0.049072265625
-0.0479736328125
0.043212890625
-0.0413818359375
-0.009521484375
0.003662109375
-0.0062255859375
0.005126953125
-0.00732421875
-0.00732421875
0.0274658203125
-0.02197265625
-0.0003662109375
0.0084228515625
-0.013916015625
0.0142822265625
0.0076904296875
-0.0322265625
-0.0076904296875
-0.0106201171875
-0.0054931640625
0.010986328125
-0.006591796875
0.0047607421875
-0.0062255859375
0.006591796875
-0.01171875
0.0025634765625
0.013916015625
-0.000732421875
0.0234375
-0.0040283203125
0.006591796875
0.0091552734375
-0.002197265625
0.0091552734375
-0.00146484375
0.005859375
0.0029296875
0.0084228515625
0.002197265625
0.0003662109375
0.0069580078125
0.0
0.002197265625
-0.010986328125
0.00439453125
-0.009521484375
0.002197265625
-0.0135498046875
0.187164306640625
-0.232940673828125
0.000732421875
-0.012451171875
-0.187530517578125
0.202911376953125
0.00439453125
-0.0208740234375
0.0
-0.0157470703125
0.0029296875
-0.00146484375
-0.0018310546875
-0.0164794921875
-0.003662109375
-0.0146484375
0.0208740234375
-0.009521484375
-0.003662109375
0.016845703125
-0.0245361328125
0.008056640625
-0.0106201171875
-0.0201416015625
-0.013916015625
0.005859375
-0.0113525390625
0.019775390625
-0.0025634765625
0.0252685546875
-0.0087890625
0.017578125
-0.0098876953125
0.0146484375
0.00439453125
0.003662109375
0.010986328125
-0.0069580078125
0.01171875
-0.0076904296875
0.0018310546875
-0.012451171875
0.0003662109375
-0.0091552734375
-0.002197265625
-0.0146484375
-0.0032958984375
-0.0047607421875
-0.010986328125
-0.0029296875
-0.010986328125
-0.00146484375
-0.005859375
0.0
-0.010986328125
-0.0029296875
0.005859375
-0.0128173828125
-0.0091552734375
-0.0010986328125
-0.016845703125
0.01904296875
-0.00439453125
-0.0040283203125
-0.000732421875
-0.0047607421875
-0.000732421875
-0.0062255859375
-0.00732421875
-0.0084228515625
-0.0054931640625
-0.005126953125
0.02197265625
-0.008056640625
0.015380859375
0.0025634765625
-0.015380859375
-0.005859375
-0.0029296875
-0.0047607421875
-0.005859375
0.0032958984375
-0.0018310546875
0.009521484375
0.005126953125
0.0087890625
-0.0010986328125
0.005859375
0.0
0.0062255859375
0.02197265625
-0.0128173828125
0.041748046875
-0.012451171875
0.0260009765625
-0.0054931640625
0.0186767578125
0.0032958984375
0.0164794921875
0.0
0.01171875
-0.00439453125
0.0135498046875
-0.0018310546875
0.0025634765625
-0.00439453125
0.00146484375
-0.0032958984375
-0.002197265625
-0.0087890625
-0.002197265625
-0.0128173828125
-0.0062255859375
-0.017578125
-0.003662109375
-0.0399169921875
0.000732421875
-0.128936767578125
-0.0032958984375
-0.041015625
-0.0010986328125
-0.10546875
-0.0106201171875
-0.078399658203125
-0.010986328125
0.175811767578125
0.017578125
0.152740478515625
0.003662109375
0.111328125
-0.0267333984375
0.0567626953125
-0.01318359375
0.0303955078125
-0.009521484375
0.03369140625
-0.01171875
0.0322265625
-0.01025390625
0.0333251953125
-0.0194091796875
0.0194091796875
-0.01904296875
0.016845703125
-0.0018310546875
-0.00146484375
0.01171875
-0.0054931640625
0.0047607421875
-0.0003662109375
-0.0029296875
-0.0018310546875
0.0
-0.0274658203125
-0.0010986328125
-0.063720703125
0.0010986328125
-0.034423828125
-0.005859375
-0.0135498046875
-0.0076904296875
-0.000732421875
-0.07763671875
0.0465087890625
0.087890625
-0.1029052734375
0.0845947265625
-0.0582275390625
-0.0897216796875
0.0919189453125
-0.01611328125
0.0194091796875
-0.01611328125
0.0084228515625
-0.0252685546875
0.01904296875
-0.040283203125
0.0289306640625
-0.0413818359375
0.0230712890625
-0.0263671875
-0.008056640625
-0.00439453125
-0.046875
0.005126953125
-0.0377197265625
0.00732421875
-0.017578125
0.0076904296875
0.0010986328125
-0.000732421875
-0.02783203125
0.0069580078125
-0.063720703125
0.0029296875
-0.0399169921875
0.0062255859375
0.0029296875
0.028564453125
-0.0040283203125
0.0062255859375
0.02783203125
0.002197265625
0.05712890625
0.02783203125
0.022705078125
0.0333251953125
0.02490234375
0.0274658203125
0.013916015625
0.021240234375
0.00732421875
0.0142822265625
0.0029296875
0.0076904296875
0.000732421875
0.038818359375
-0.010986328125
0.008056640625
0.0208740234375
-0.0142822265625
0.0234375
0.0069580078125
-0.0274658203125
0.0018310546875
-0.0142822265625
-0.003662109375
-0.00732421875
-0.006591796875
-0.0010986328125
-0.0120849609375
0.005859375
-0.016845703125
0.0010986328125
0.00439453125
-0.0029296875
0.01611328125
-0.0157470703125
0.010986328125
-0.0076904296875
-0.0010986328125
-0.002197265625
0.00732421875
-0.008056640625
0.01025390625
-0.006591796875
0.006591796875
-0.00146484375
0.0047607421875
0.0076904296875
0.0003662109375
0.0172119140625
0.008056640625
0.0150146484375
-0.0047607421875
-0.0406494140625
0.0
-0.006591796875
0.000732421875
0.02783203125
-0.012451171875
-0.00146484375
-0.0113525390625
0.0010986328125
-0.0062255859375
-0.005126953125
-0.0032958984375
-0.0018310546875
-0.0150146484375
-0.0029296875
-0.03076171875
0.0106201171875
-0.0150146484375
0.0010986328125
0.0091552734375
0.002197265625
-0.0087890625
-0.002197265625
-0.018310546875
-0.0084228515625
-0.0172119140625
0.0098876953125
-0.0157470703125
0.0120849609375
-0.01611328125
0.01904296875
-0.025634765625
0.0205078125
-0.015380859375
0.017578125
0.00732421875
0.0018310546875
0.0230712890625
-0.000732421875
0.0146484375
0.0054931640625
0.0113525390625
0.0069580078125
0.016845703125
0.0084228515625
0.0106201171875
0.0054931640625
0.0084228515625
0.003662109375
-0.002197265625
0.0010986328125
-0.0018310546875
-0.0003662109375
0.0018310546875
-0.0135498046875
0.005859375
-0.0567626953125
0.0018310546875
-0.0054931640625
0.00146484375
0.03515625
0.0087890625
-0.01318359375
0.0003662109375
-0.0164794921875
0.0047607421875
-0.017578125
0.0003662109375
-0.0179443359375
-0.000732421875
-0.0135498046875
-0.01611328125
-0.0025634765625
0.0018310546875
-0.0025634765625
0.0142822265625
0.008056640625
-0.0128173828125
0.0010986328125
-0.0087890625
-0.0091552734375
-0.0113525390625
0.005859375
-0.0032958984375
0.0084228515625
-0.005126953125
0.0087890625
-0.01025390625
0.015380859375
-0.0062255859375
0.0091552734375
0.01025390625
-0.00439453125
0.02783203125
-0.0062255859375
0.0120849609375
-0.003662109375
0.006591796875
0.0047607421875
0.005859375
0.0120849609375
0.0040283203125
0.0157470703125
0.0
0.0091552734375
-0.0029296875
0.0091552734375
-0.0010986328125
0.003662109375
-0.002197265625
-0.0047607421875
0.000732421875
-0.0435791015625
-0.0040283203125
-0.003662109375
0.000732421875
0.0428466796875
0.0025634765625
-0.002197265625
0.010986328125
-0.002197265625
0.0216064453125
-0.0025634765625
0.0150146484375
-0.008056640625
0.000732421875
0.0029296875
-0.02783203125
0.0245361328125
-0.0128173828125
0.0260009765625
0.0172119140625
0.0054931640625
0.017578125
-0.0146484375
0.0076904296875
-0.0234375
-0.00146484375
-0.0062255859375
-0.003662109375
0.0054931640625
-0.01171875
0.006591796875
-0.0186767578125
0.0062255859375
-0.0179443359375
-0.0003662109375
0.0076904296875
-0.0120849609375
0.0179443359375
-0.019775390625
0.0098876953125
-0.0091552734375
0.0029296875
-0.006591796875
0.0047607421875
-0.0091552734375
0.0106201171875
-0.0120849609375
0.003662109375
-0.01611328125
0.002197265625
-0.005859375
-0.0025634765625
-0.0047607421875
-0.000732421875
0.000732421875
-0.0018310546875
0.006591796875
-0.006591796875
0.0135498046875
-0.0120849609375
0.0216064453125
-0.0146484375
0.0216064453125
-0.01318359375
0.01611328125
-0.0142822265625
0.0076904296875
-0.0087890625
0.0069580078125
-0.0135498046875
0.0032958984375
-0.0311279296875
0.0142822265625
-0.0146484375
0.0150146484375
0.0150146484375
-0.0062255859375
0.0047607421875
-0.0274658203125
-0.0054931640625
-0.02783203125
-0.0040283203125
-0.0091552734375
-0.0047607421875
-0.0029296875
-0.005859375
0.000732421875
-0.01904296875
0.000732421875
-0.010986328125
0.00146484375
0.0146484375
-0.0084228515625
0.0208740234375
-0.0120849609375
0.0146484375
-0.0010986328125
0.00732421875
-0.00146484375
0.0135498046875
-0.005126953125
0.01318359375
-0.00732421875
0.0098876953125
0.0003662109375
0.0087890625
0.0040283203125
0.0120849609375
0.0054931640625
0.01318359375
0.00146484375
0.208404541015625
-0.234039306640625
0.0018310546875
0.01171875
-0.202911376953125
0.241363525390625
0.01025390625
-0.0054931640625
0.005126953125
-0.006591796875
0.0025634765625
-0.0069580078125
0.0
-0.01171875
0.019775390625
-0.0106201171875
0.01904296875
0.0032958984375
-0.012451171875
-0.0091552734375
-0.0040283203125
-0.0281982421875
-0.0069580078125
-0.0201416015625
-0.0047607421875
-0.0135498046875
-0.0062255859375
-0.0150146484375
-0.0146484375
-0.00732421875
-0.01171875
-0.00146484375
0.006591796875
-0.00732421875
0.017578125
-0.00146484375
0.009521484375
0.0054931640625
0.0091552734375
0.015380859375
0.0120849609375
-0.0274658203125
0.01904296875
-0.081298828125
0.01171875
-0.0369873046875
0.002197265625
0.0084228515625
0.0018310546875
0.00439453125
-0.0029296875
0.005859375
-0.0076904296875
0.010986328125
-0.0135498046875
0.01318359375
-0.00439453125
0.021240234375
-0.0054931640625
0.0113525390625
-0.00439453125
-0.000732421875
-0.00439453125
0.0054931640625
-0.0087890625
0.003662109375
0.005859375
-0.018310546875
-0.021240234375
0.03662109375
-0.0142822265625
0.03369140625
0.005126953125
-0.034423828125
-0.0091552734375
-0.005859375
-0.0087890625
0.0087890625
-0.0128173828125
0.018310546875
-0.0186767578125
0.0267333984375
-0.0238037109375
0.0223388671875
-0.006591796875
0.0164794921875
0.0150146484375
0.005126953125
0.0238037109375
0.005859375
0.0128173828125
0.0142822265625
0.0142822265625
0.0142822265625
0.01611328125
0.006591796875
0.002197265625
0.0091552734375
0.0113525390625
0.00439453125
0.01318359375
-0.0054931640625
0.0106201171875
-0.00439453125
0.0025634765625
-0.0003662109375
-0.0047607421875
0.0032958984375
-0.0113525390625
0.0
0.0128173828125
-0.0047607421875
0.0157470703125
-0.0172119140625
-0.005859375
-0.1102294921875
0.0018310546875
-0.146881103515625
-0.008056640625
-0.205108642578125
-0.010986328125
-0.099609375
-0.0172119140625
0.114990234375
-0.0234375
0.124542236328125
-0.01611328125
0.101104736328125
0.006591796875
0.0736083984375
0.01611328125
0.0684814453125
0.0084228515625
0.0596923828125
0.012451171875
0.0615234375
0.0098876953125
0.054931640625
0.0062255859375
0.047607421875
-0.0010986328125
0.0377197265625
-0.00146484375
0.0296630859375
0.0018310546875
0.0245361328125
-0.0029296875
0.0120849609375
0.0003662109375
0.01025390625
0.0029296875
0.0025634765625
0.0
-0.00146484375
-0.0084228515625
-0.005126953125
-0.0069580078125
-0.0069580078125
-0.008056640625
-0.0091552734375
0.0120849609375
-0.035888671875
-0.015380859375
0.02490234375
-0.017578125
0.0186767578125
0.010986328125
-0.0472412109375
-0.0150146484375
-0.022705078125
-0.0091552734375
-0.005126953125
-0.01025390625
0.000732421875
-0.0179443359375
0.00732421875
-0.025634765625
0.01318359375
-0.0091552734375
-0.003662109375
0.0201416015625
-0.016845703125
0.0142822265625
-0.0150146484375
0.0084228515625
-0.005859375
0.0047607421875
-0.0069580078125
0.00732421875
-0.0084228515625
0.0087890625
-0.010986328125
0.0032958984375
-0.005859375
-0.010986328125
-0.031494140625
-0.0054931640625
0.0069580078125
0.0146484375
0.03955078125
0.0084228515625
-0.0047607421875
0.008056640625
0.00146484375
0.0084228515625
-0.0010986328125
0.0098876953125
0.00146484375
0.005859375
0.0018310546875
-0.012451171875
0.0047607421875
0.00732421875
-0.00146484375
0.01611328125
0.0003662109375
0.00146484375
-0.000732421875
-0.0018310546875
-0.016845703125
-0.005859375
-0.0040283203125
-0.0091552734375
-0.0040283203125
-0.0142822265625
0.0025634765625
-0.0201416015625
0.0076904296875
-0.0150146484375
0.0
0.01318359375
-0.008056640625
0.0205078125
-0.0157470703125
0.0128173828125
-0.0098876953125
0.005126953125
-0.00732421875
0.00732421875
-0.0062255859375
0.005126953125
-0.0029296875
-0.0010986328125
-0.000732421875
0.201812744140625
-0.234039306640625
-0.002197265625
0.0076904296875
-0.199981689453125
0.246490478515625
0.0025634765625
0.0047607421875
0.0010986328125
0.0113525390625
-0.0047607421875
0.0076904296875
-0.0029296875
0.0029296875
-0.0010986328125
0.00146484375
-0.01904296875
0.0018310546875
-0.0208740234375
0.0380859375
0.010986328125
-0.0084228515625
0.0164794921875
-0.0560302734375
-0.01318359375
-0.021240234375
-0.0150146484375
-0.002197265625
-0.0128173828125
0.005859375
-0.0172119140625
0.0084228515625
-0.0230712890625
0.0098876953125
-0.0179443359375
-0.0029296875
0.0069580078125
-0.0087890625
0.01025390625
-0.006591796875
0.0091552734375
-0.0076904296875
0.00732421875
-0.010986328125
0.0076904296875
-0.0084228515625
0.005126953125
-0.0076904296875
0.0025634765625
-0.0084228515625
0.203643798828125
-0.236968994140625
-0.0098876953125
0.0040283203125
-0.199615478515625
0.231109619140625
0.0120849609375
-0.0135498046875
0.005126953125
-0.0010986328125
0.002197265625
-0.0025634765625
0.003662109375
-0.005859375
0.00146484375
-0.0018310546875
-0.0164794921875
0.003662109375
-0.0208740234375
0.0399169921875
0.017578125
0.0029296875
0.0274658203125
-0.0380859375
-0.0025634765625
-0.0120849609375
-0.0047607421875
0.000732421875
-0.0091552734375
0.010986328125
-0.015380859375
0.018310546875
-0.018310546875
0.0223388671875
-0.010986328125
0.009521484375
0.017578125
0.0010986328125
0.019775390625
-0.0003662109375
0.015380859375
0.00146484375
0.0128173828125
-0.0003662109375
0.0135498046875
-0.006591796875
0.015380859375
-0.0062255859375
0.0098876953125
-0.0054931640625
0.207672119140625
-0.239898681640625
-0.0069580078125
0.0025634765625
-0.200347900390625
0.233306884765625
0.01025390625
-0.0128173828125
0.00439453125
-0.0025634765625
0.0025634765625
-0.0069580078125
0.00146484375
-0.0106201171875
0.0
-0.003662109375
-0.018310546875
-0.0025634765625
-0.008056640625
0.021240234375
0.018310546875
-0.002197265625
0.0098876953125
-0.0322265625
-0.010986328125
-0.009521484375
-0.01318359375
0.008056640625
-0.0087890625
0.0142822265625
-0.01171875
0.0164794921875
-0.0164794921875
0.02490234375
-0.0113525390625
0.015380859375
0.0128173828125
-0.000732421875
0.01318359375
-0.0032958984375
0.006591796875
0.0
0.0018310546875
-0.000732421875
0.00146484375
-0.0025634765625
0.003662109375
-0.005126953125
-0.0025634765625
-0.005859375
0.203277587890625
-0.242095947265625
-0.0135498046875
0.0054931640625
-0.214263916015625
0.243927001953125
-0.0047607421875
-0.000732421875
-0.0098876953125
0.0076904296875
-0.0054931640625
-0.0003662109375
-0.003662109375
-0.0062255859375
-0.0054931640625
-0.00146484375
-0.0230712890625
0.0025634765625
-0.0289306640625
0.04248046875
0.0091552734375
0.0029296875
0.0216064453125
-0.0435791015625
-0.01171875
-0.0128173828125
-0.01318359375
-0.002197265625
-0.0062255859375
0.0040283203125
-0.0157470703125
0.0106201171875
-0.0245361328125
0.017578125
-0.0106201171875
0.003662109375
0.0179443359375
-0.0098876953125
0.0164794921875
-0.0091552734375
0.01025390625
-0.0040283203125
0.01025390625
-0.006591796875
0.0084228515625
-0.0076904296875
0.0062255859375
-0.0040283203125
0.0032958984375
-0.0054931640625
0.206939697265625
-0.241363525390625
-0.00439453125
0.00146484375
-0.199981689453125
0.240264892578125
0.0069580078125
-0.005126953125
0.0098876953125
-0.01025390625
0.0106201171875
-0.0091552734375
0.000732421875
-0.003662109375
-0.0062255859375
0.000732421875
0.01171875
-0.0106201171875
0.0194091796875
0.0
-0.002197265625
-0.0032958984375
-0.0025634765625
-0.0128173828125
-0.0047607421875
-0.0010986328125
-0.005126953125
0.0069580078125
-0.0120849609375
0.016845703125
-0.02783203125
0.0223388671875
-0.0234375
0.02490234375
0.0054931640625
0.005859375
0.0267333984375
-0.00439453125
0.0120849609375
0.002197265625
0.005859375
0.009521484375
0.0091552734375
0.0047607421875
0.006591796875
0.002197265625
0.00732421875
0.0076904296875
0.0029296875
0.002197265625
0.207672119140625
-0.240997314453125
-0.0054931640625
0.0054931640625
-0.202911376953125
0.237701416015625
0.009521484375
-0.0120849609375
0.0
0.0010986328125
0.0010986328125
-0.0018310546875
0.0040283203125
-0.0142822265625
0.0032958984375
-0.0076904296875
-0.0194091796875
0.0062255859375
-0.006591796875
0.0238037109375
0.02197265625
-0.0003662109375
0.015380859375
-0.0322265625
0.0010986328125
-0.0201416015625
-0.005126953125
0.0018310546875
0.000732421875
0.009521484375
-0.00439453125
0.0098876953125
-0.0120849609375
0.0135498046875
-0.0098876953125
0.005126953125
0.01025390625
-0.00439453125
0.009521484375
-0.005126953125
-0.0029296875
0.0032958984375
-0.0054931640625
0.0069580078125
-0.008056640625
0.0032958984375
-0.0010986328125
-0.0018310546875
0.0
-0.0047607421875
-0.01904296875
-0.0208740234375
-0.0135498046875
0.0054931640625
0.01025390625
0.02197265625
0.0018310546875
-0.008056640625
0.0003662109375
-0.00732421875
0.0025634765625
-0.00439453125
-0.0040283203125
-0.0032958984375
-0.002197265625
-0.00439453125
-0.01904296875
0.00146484375
0.0010986328125
-0.0025634765625
0.01171875
0.000732421875
-0.0069580078125
0.0
-0.0098876953125
-0.0098876953125
-0.0150146484375
-0.000732421875
-0.0084228515625
0.005126953125
-0.0076904296875
0.00439453125
-0.013916015625
0.0091552734375
-0.0179443359375
0.0087890625
0.01025390625
-0.005859375
0.021240234375
-0.0128173828125
0.01318359375
-0.0062255859375
0.0128173828125
-0.0062255859375
0.0084228515625
-0.008056640625
0.01318359375
-0.0091552734375
0.0076904296875
-0.009521484375
0.0040283203125
0.0
-0.0003662109375
0.0010986328125
0.00439453125
-0.0029296875
0.0084228515625
-0.008056640625
0.0047607421875
-0.005126953125
0.00732421875
-0.006591796875
0.0032958984375
-0.0091552734375
0.00439453125
-0.005859375
-0.00439453125
-0.00732421875
0.027099609375
-0.0223388671875
-0.0018310546875
0.0098876953125
-0.0172119140625
0.0113525390625
0.0106201171875
-0.0303955078125
-0.0047607421875
-0.0194091796875
0.000732421875
-0.00732421875
-0.010986328125
0.000732421875
-0.018310546875
0.01318359375
-0.0230712890625
0.015380859375
0.008056640625
0.0018310546875
0.0303955078125
-0.0069580078125
0.0201416015625
-0.000732421875
0.015380859375
0.005126953125
0.0120849609375
0.0003662109375
0.015380859375
0.000732421875
0.01025390625
0.005126953125
0.01025390625
0.0098876953125
0.0205078125
-0.005859375
-0.02490234375
0.037353515625
-0.0054931640625
-0.0054931640625
0.031494140625
-0.050537109375
0.00439453125
0.0333251953125
0.002197265625
0.0322265625
-0.0047607421875
0.008056640625
-0.010986328125
0.0087890625
-0.015380859375
0.0157470703125
-0.0263671875
0.0281982421875
-0.0205078125
0.0128173828125
0.01171875
-0.0263671875
0.0245361328125
-0.0322265625
0.012451171875
-0.0062255859375
-0.0025634765625
0.0054931640625
0.0003662109375
0.005126953125
-0.0018310546875
0.003662109375
0.00146484375
0.0029296875
0.0
0.0040283203125
-0.0047607421875
0.005859375
-0.0010986328125
0.0040283203125
-0.0054931640625
0.002197265625
-0.002197265625
0.0018310546875
-0.0047607421875
0.0003662109375
-0.005126953125
0.0076904296875
-0.0062255859375
0.0054931640625
-0.00146484375
0.0003662109375
0.0040283203125
-0.0010986328125
-0.0032958984375
0.0
-0.0029296875
-0.0010986328125
0.0281982421875
-0.015380859375
-0.0029296875
0.0172119140625
-0.030029296875
0.01025390625
0.0
-0.0230712890625
-0.0113525390625
-0.0062255859375
-0.009521484375
0.003662109375
-0.0054931640625
0.0076904296875
-0.0172119140625
0.0106201171875
-0.0208740234375
0.0146484375
-0.0069580078125
0.0032958984375
0.0157470703125
-0.0069580078125
0.0135498046875
-0.005126953125
0.00732421875
0.0010986328125
0.006591796875
-0.0010986328125
0.0054931640625
-0.0029296875
0.0047607421875
0.00146484375
-0.0029296875
0.003662109375
0.0003662109375
0.0069580078125
-0.0018310546875
0.0010986328125
-0.02490234375
-0.0120849609375
-0.003662109375
0.005859375
0.0238037109375
0.0150146484375
0.005859375
-0.0054931640625
0.0018310546875
-0.0054931640625
0.0054931640625
-0.006591796875
0.0025634765625
-0.01025390625
0.0025634765625
-0.0054931640625
-0.0047607421875
-0.0076904296875
0.0179443359375
-0.01025390625
0.012451171875
0.0054931640625
-0.0091552734375
-0.0032958984375
-0.002197265625
-0.0120849609375
-0.0069580078125
0.002197265625
-0.0025634765625
0.00732421875
-0.0098876953125
0.0087890625
-0.0146484375
0.0098876953125
-0.01904296875
0.0084228515625
0.000732421875
-0.00146484375
0.01318359375
-0.0084228515625
0.0
-0.003662109375
-0.0003662109375
0.0010986328125
-0.00146484375
-0.0025634765625
0.0029296875
-0.0054931640625
0.00146484375
-0.0084228515625
0.0018310546875
-0.0040283203125
-0.003662109375
0.0010986328125
0.006591796875
-0.012451171875
-0.00732421875
0.003662109375
-0.0216064453125
0.0142822265625
0.005126953125
-0.002197265625
0.0003662109375
0.0
0.0010986328125
-0.00146484375
0.0018310546875
-0.0047607421875
0.0018310546875
-0.002197265625
0.01025390625
-0.025634765625
-0.01904296875
0.0347900390625
-0.005859375
0.0362548828125
0.0172119140625
-0.0347900390625
-0.0003662109375
-0.0098876953125
-0.0069580078125
0.0040283203125
-0.0084228515625
0.010986328125
-0.015380859375
0.0084228515625
-0.0223388671875
0.0069580078125
-0.006591796875
0.0
0.0135498046875
-0.008056640625
0.01611328125
-0.0054931640625
0.0040283203125
-0.005859375
0.00732421875
-0.0040283203125
0.0091552734375
-0.0054931640625
0.00732421875
-0.0047607421875
0.0032958984375
-0.003662109375
0.00146484375
-0.00439453125
-0.022705078125
-0.0062255859375
-0.0040283203125
0.0040283203125
0.0274658203125
0.006591796875
0.0040283203125
0.0
0.0047607421875
0.0029296875
0.0029296875
0.000732421875
0.0
0.0091552734375
-0.0025634765625
0.01171875
-0.0157470703125
0.0120849609375
0.005859375
0.0091552734375
0.00732421875
0.009521484375
-0.0062255859375
-0.0040283203125
-0.0069580078125
-0.0150146484375
-0.0084228515625
0.0018310546875
-0.008056640625
0.0076904296875
-0.0164794921875
0.0157470703125
-0.021240234375
0.019775390625
-0.017578125
0.009521484375
0.005126953125
-0.002197265625
0.0150146484375
-0.0087890625
0.013916015625
-0.00732421875
0.0040283203125
-0.0032958984375
0.0029296875
0.0
0.0032958984375
-0.0018310546875
0.000732421875
-0.0032958984375
0.000732421875
0.002197265625
-0.0025634765625
0.0032958984375
0.0164794921875
-0.012451171875
-0.003662109375
0.00439453125
-0.0113525390625
0.0146484375
0.0069580078125
-0.0054931640625
0.0029296875
-0.002197265625
0.003662109375
-0.00439453125
-0.0003662109375
-0.0047607421875
-0.0018310546875
0.0010986328125
0.0040283203125
-0.0252685546875
-0.0146484375
0.0311279296875
-0.0076904296875
0.03076171875
0.0172119140625
-0.03662109375
-0.005126953125
-0.01171875
-0.0062255859375
-0.0003662109375
-0.0010986328125
0.002197265625
-0.01171875
0.0069580078125
-0.0201416015625
0.016845703125
-0.0106201171875
0.0054931640625
0.0186767578125
-0.010986328125
0.016845703125
-0.01025390625
0.0098876953125
-0.005126953125
0.00732421875
-0.0018310546875
0.00146484375
-0.0010986328125
0.0047607421875
-0.00146484375
0.0029296875
-0.0032958984375
0.003662109375
0.0
-0.025634765625
-0.0069580078125
-0.0032958984375
0.0054931640625
0.022705078125
0.0098876953125
-0.000732421875
0.0
-0.003662109375
0.0062255859375
-0.0032958984375
0.0018310546875
0.0029296875
-0.0010986328125
-0.0018310546875
-0.00146484375
-0.0062255859375
0.0
0.01171875
-0.0087890625
0.015380859375
0.0025634765625
-0.005126953125
-0.0003662109375
-0.0084228515625
-0.0106201171875
-0.0062255859375
0.000732421875
-0.00732421875
0.0029296875
-0.0076904296875
0.0091552734375
-0.019775390625
0.0135498046875
-0.017578125
0.0113525390625
0.0047607421875
-0.0054931640625
0.021240234375
-0.012451171875
0.0150146484375
-0.006591796875
0.0047607421875
-0.0029296875
0.0091552734375
-0.00439453125
0.0062255859375
-0.006591796875
0.0040283203125
-0.0010986328125
-0.002197265625
0.0029296875
-0.002197265625
0.0062255859375
0.009521484375
-0.0113525390625
-0.00732421875
0.00439453125
-0.0087890625
0.0135498046875
0.0098876953125
-0.006591796875
0.005126953125
0.000732421875
0.0029296875
-0.0047607421875
0.009521484375
-0.006591796875
0.0025634765625
-0.0018310546875
0.0047607421875
-0.021240234375
-0.01904296875
0.03662109375
-0.0091552734375
0.034423828125
0.012451171875
-0.030029296875
-0.0106201171875
-0.005859375
-0.0029296875
0.0029296875
-0.006591796875
0.00439453125
-0.0113525390625
0.010986328125
-0.019775390625
0.012451171875
-0.0069580078125
0.0010986328125
0.0230712890625
-0.012451171875
0.021240234375
-0.01318359375
0.009521484375
-0.0040283203125
0.006591796875
-0.00439453125
0.0076904296875
-0.0040283203125
-0.0025634765625
-0.0040283203125
-0.01025390625
0.0106201171875
-0.0106201171875
0.01904296875
-0.01025390625
0.010986328125
-0.005126953125
0.00732421875
-0.0062255859375
0.0062255859375
-0.00439453125
0.008056640625
-0.0205078125
0.0146484375
-0.0054931640625
0.0084228515625
0.01171875
0.0054931640625
0.0003662109375
-0.0040283203125
-0.013916015625
-0.00439453125
-0.025634765625
0.0157470703125
-0.012451171875
0.0106201171875
-0.016845703125
0.010986328125
-0.025634765625
0.016845703125
-0.0245361328125
0.0113525390625
0.008056640625
-0.005859375
0.0208740234375
-0.0135498046875
0.006591796875
-0.00439453125
0.0040283203125
-0.0003662109375
0.005126953125
-0.005859375
0.01171875
-0.0087890625
0.00439453125
-0.005859375
0.00146484375
0.000732421875
0.00146484375
-0.002197265625
0.0032958984375
-0.00146484375
0.0128173828125
-0.01171875
0.01025390625
-0.0135498046875
0.0076904296875
-0.006591796875
0.0025634765625
-0.0047607421875
0.009521484375
-0.0054931640625
0.0113525390625
-0.01318359375
0.0076904296875
-0.0069580078125
0.005859375
-0.0054931640625
0.0062255859375
-0.01025390625
0.044677734375
-0.0296630859375
0.0076904296875
0.0069580078125
-0.0194091796875
0.015380859375
0.0087890625
-0.0281982421875
0.0047607421875
-0.01611328125
0.0040283203125
-0.0069580078125
-0.0032958984375
0.0054931640625
-0.0164794921875
0.015380859375
-0.0234375
0.0150146484375
-0.0025634765625
0.0018310546875
0.02197265625
-0.0142822265625
0.0296630859375
-0.015380859375
0.0186767578125
-0.01171875
0.0157470703125
-0.0062255859375
0.0146484375
-0.008056640625
0.010986328125
-0.005126953125
0.0069580078125
-0.0029296875
0.0025634765625
-0.0029296875
0.0076904296875
-0.0040283203125
0.0054931640625
-0.0054931640625
0.0087890625
-0.005126953125
0.008056640625
-0.0084228515625
0.005859375
-0.000732421875
0.00146484375
-0.0003662109375
0.00146484375
-0.005126953125
0.00146484375
-0.0010986328125
-0.003662109375
-0.0040283203125
0.0245361328125
-0.0205078125
-0.0135498046875
0.0260009765625
-0.02783203125
0.0260009765625
0.0069580078125
-0.034423828125
-0.0062255859375
-0.015380859375
-0.0157470703125
0.0076904296875
-0.013916015625
0.0084228515625
-0.01611328125
0.012451171875
-0.03076171875
0.019775390625
-0.0069580078125
0.005126953125
0.0164794921875
-0.0120849609375
0.0128173828125
-0.0054931640625
0.000732421875
0.000732421875
-0.000732421875
0.0025634765625
0.0062255859375
-0.0010986328125
0.0010986328125
-0.000732421875
-0.0018310546875
0.00439453125
-0.0047607421875
0.003662109375
0.000732421875
0.0010986328125
0.01611328125
-0.0194091796875
0.0010986328125
-0.0010986328125
-0.005126953125
0.00732421875
0.010986328125
-0.008056640625
0.0062255859375
-0.00146484375
-0.0003662109375
-0.003662109375
0.0003662109375
-0.00146484375
-0.0069580078125
0.0040283203125
0.00146484375
-0.0179443359375
-0.018310546875
0.03369140625
-0.002197265625
0.0289306640625
0.0194091796875
-0.038818359375
-0.0098876953125
-0.0098876953125
-0.0054931640625
0.002197265625
-0.008056640625
0.005126953125
-0.0087890625
0.0087890625
-0.018310546875
0.0128173828125
-0.00732421875
0.0032958984375
0.017578125
-0.01171875
0.018310546875
-0.0113525390625
0.008056640625
-0.0029296875
-0.0003662109375
0.003662109375
0.00732421875
-0.00146484375
0.0025634765625
0.0
-0.000732421875
0.00439453125
-0.002197265625
0.0018310546875
0.0
0.0010986328125
0.225982666015625
-0.261138916015625
-0.0062255859375
0.0047607421875
-0.225250244140625
0.261871337890625
0.009521484375
-0.01025390625
0.00732421875
-0.0025634765625
0.0018310546875
-0.0032958984375
0.0087890625
-0.0084228515625
0.0054931640625
-0.00732421875
-0.0157470703125
0.0062255859375
-0.009521484375
0.01904296875
0.02490234375
-0.0062255859375
0.0194091796875
-0.024169921875
-0.0032958984375
-0.0113525390625
0.00146484375
-0.00146484375
-0.003662109375
0.003662109375
-0.010986328125
0.01171875
-0.022705078125
0.01904296875
-0.0223388671875
0.0146484375
0.00732421875
-0.0010986328125
0.0201416015625
-0.0076904296875
0.0135498046875
-0.0029296875
0.005126953125
-0.0010986328125
0.0142822265625
-0.0054931640625
0.0128173828125
-0.0076904296875
0.005859375
-0.0010986328125
0.0025634765625
0.0025634765625
0.0
0.002197265625
-0.0439453125
0.013916015625
-0.0113525390625
0.01025390625
0.0380859375
-0.0018310546875
0.0025634765625
-0.002197265625
0.00732421875
-0.005126953125
0.0062255859375
-0.0069580078125
0.00439453125
-0.0062255859375
0.0025634765625
-0.00439453125
-0.0120849609375
0.0003662109375
0.00732421875
-0.0003662109375
0.0025634765625
0.0047607421875
-0.01611328125
-0.0025634765625
-0.0128173828125
-0.013916015625
-0.0157470703125
0.00146484375
-0.009521484375
0.0054931640625
-0.0084228515625
0.005126953125
-0.017578125
0.01318359375
-0.0223388671875
0.010986328125
0.0025634765625
-0.0040283203125
0.0179443359375
-0.0128173828125
0.0128173828125
-0.005126953125
0.0025634765625
0.0003662109375
0.0010986328125
0.0010986328125
0.005859375
-0.0025634765625
0.0040283203125
-0.005126953125
0.0040283203125
-0.0003662109375
0.0003662109375
0.0
0.002197265625
-0.0003662109375
-0.0054931640625
0.00439453125
-0.003662109375
0.0025634765625
0.0032958984375
-0.0032958984375
0.005859375
-0.0029296875
0.0062255859375
-0.0032958984375
0.0003662109375
-0.00146484375
0.0054931640625
-0.003662109375
0.0003662109375
-0.0040283203125
0.025634765625
-0.017578125
-0.0084228515625
0.0230712890625
-0.0260009765625
0.02783203125
0.005859375
-0.02197265625
-0.005126953125
-0.008056640625
-0.003662109375
0.0047607421875
-0.012451171875
0.010986328125
-0.0179443359375
0.018310546875
-0.025634765625
0.0194091796875
-0.0040283203125
0.0025634765625
0.0142822265625
-0.008056640625
0.0091552734375
0.0
0.0091552734375
0.0032958984375
0.005126953125
0.0010986328125
0.008056640625
-0.00146484375
0.0076904296875
-0.0032958984375
0.000732421875
0.0087890625
-0.0047607421875
0.010986328125
-0.0076904296875
0.013916015625
-0.050537109375
0.03076171875
0.0926513671875
-0.093017578125
0.0560302734375
-0.0325927734375
-0.0882568359375
0.082763671875
-0.00732421875
0.0087890625
-0.00439453125
0.005126953125
-0.0076904296875
0.0128173828125
-0.0274658203125
0.0303955078125
-0.034423828125
0.0263671875
-0.01025390625
-0.0084228515625
0.0172119140625
-0.029296875
0.0146484375
-0.01318359375
-0.0010986328125
-0.0018310546875
-0.0003662109375
0.00146484375
-0.0069580078125
0.005126953125
-0.00146484375
0.002197265625
0.0010986328125
-0.0010986328125
0.0003662109375
-0.003662109375
0.000732421875
-0.00439453125
-0.005859375
0.0
0.00146484375
-0.00146484375
0.002197265625
-0.005126953125
0.0
-0.000732421875
0.0084228515625
-0.0135498046875
-0.0054931640625
0.005859375
-0.0146484375
0.01611328125
0.002197265625
-0.0029296875
0.000732421875
0.0025634765625
-0.0018310546875
-0.00146484375
0.0032958984375
-0.003662109375
-0.0018310546875
-0.0018310546875
0.003662109375
-0.0186767578125
-0.0186767578125
0.0369873046875
0.0003662109375
0.0260009765625
0.0205078125
-0.040283203125
-0.0069580078125
-0.012451171875
-0.0029296875
0.00146484375
-0.0087890625
0.0087890625
-0.01318359375
0.0106201171875
-0.0216064453125
0.012451171875
-0.0120849609375
0.008056640625
0.010986328125
-0.006591796875
0.0150146484375
-0.008056640625
0.01171875
-0.00439453125
0.00732421875
-0.0040283203125
0.0120849609375
-0.0069580078125
0.008056640625
-0.0069580078125
0.005859375
-0.0047607421875
0.0
-0.0018310546875
-0.0032958984375
0.0029296875
0.0003662109375
0.0040283203125
-0.0025634765625
0.00439453125
0.002197265625
0.0025634765625
0.0029296875
0.0032958984375
0.0040283203125
0.000732421875
-0.0003662109375
-0.003662109375
0.0025634765625
-0.0032958984375
-0.0018310546875
-0.0025634765625
0.019775390625
-0.0238037109375
-0.003662109375
0.0205078125
-0.017578125
0.0201416015625
0.006591796875
-0.0311279296875
-0.0120849609375
-0.010986328125
-0.0018310546875
-0.0040283203125
-0.00732421875
0.0040283203125
-0.0157470703125
0.012451171875
-0.02197265625
0.01611328125
-0.0087890625
0.0029296875
0.021240234375
-0.0150146484375
0.0172119140625
-0.010986328125
0.0098876953125
-0.0032958984375
0.008056640625
-0.0069580078125
0.0142822265625
-0.01171875
0.00439453125
-0.0032958984375
-0.0047607421875
0.005859375
-0.0010986328125
0.005126953125
-0.0369873046875
0.0106201171875
0.0
0.0029296875
0.0340576171875
-0.0062255859375
0.00439453125
-0.000732421875
0.000732421875
0.00146484375
0.0047607421875
-0.0003662109375
0.005126953125
-0.0040283203125
0.002197265625
-0.0032958984375
0.002197265625
-0.00732421875
0.0208740234375
-0.0032958984375
0.0113525390625
0.009521484375
-0.0150146484375
-0.0032958984375
-0.0018310546875
-0.0120849609375
-0.0029296875
-0.0029296875
-0.0069580078125
0.008056640625
-0.010986328125
0.012451171875
-0.017578125
0.01171875
-0.0179443359375
0.01025390625
-0.0003662109375
-0.005126953125
0.01904296875
-0.010986328125
0.008056640625
-0.003662109375
0.00439453125
-0.0018310546875
0.0040283203125
-0.002197265625
0.0040283203125
-0.0040283203125
0.0076904296875
-0.00732421875
0.0025634765625
-0.008056640625
0.0010986328125
0.0
0.226715087890625
-0.267364501953125
0.0029296875
-0.0010986328125
-0.227447509765625
0.268463134765625
0.0029296875
0.0
-0.0010986328125
0.005859375
-0.0010986328125
0.002197265625
0.0054931640625
-0.000732421875
0.0003662109375
0.0032958984375
-0.0157470703125
0.0146484375
-0.00732421875
0.0142822265625
0.0216064453125
-0.000732421875
0.0076904296875
-0.0164794921875
-0.0091552734375
-0.0106201171875
-0.00732421875
0.0010986328125
-0.009521484375
0.00439453125
-0.0146484375
0.0135498046875
-0.027099609375
0.0205078125
-0.0216064453125
0.0142822265625
0.0010986328125
-0.003662109375
0.01611328125
-0.0087890625
0.009521484375
-0.0047607421875
0.00146484375
0.0003662109375
0.000732421875
0.0010986328125
-0.002197265625
-0.0003662109375
0.0032958984375
-0.0029296875
-0.003662109375
0.0010986328125
-0.00439453125
0.0054931640625
0.01171875
-0.0157470703125
-0.0062255859375
0.0029296875
-0.016845703125
0.016845703125
0.0047607421875
-0.0032958984375
0.00146484375
0.0025634765625
0.0
-0.0032958984375
0.00732421875
-0.0084228515625
0.0018310546875
-0.0032958984375
-0.0003662109375
-0.0106201171875
-0.02197265625
0.0380859375
0.0010986328125
0.0223388671875
0.0223388671875
-0.0380859375
-0.00439453125
-0.0113525390625
-0.006591796875
0.005126953125
-0.009521484375
0.0084228515625
-0.009521484375
0.010986328125
-0.022705078125
0.0179443359375
-0.013916015625
0.010986328125
0.01318359375
-0.005859375
0.0150146484375
-0.003662109375
0.00732421875
0.003662109375
0.0010986328125
0.0047607421875
0.01025390625
-0.000732421875
0.0087890625
-0.00732421875
-0.0010986328125
0.005859375
0.0029296875
0.0084228515625
0.0040283203125
0.0029296875
0.005859375
-0.0032958984375
0.0062255859375
-0.0087890625
0.005859375
-0.0076904296875
-0.0076904296875
-0.000732421875
0.01318359375
-0.003662109375
0.0179443359375
-0.0029296875
-0.00146484375
-0.009521484375
0.000732421875
-0.01904296875
-0.005859375
-0.0047607421875
-0.003662109375
-0.0029296875
-0.0098876953125
0.0010986328125
-0.0205078125
0.010986328125
-0.022705078125
0.0054931640625
0.0054931640625
-0.0087890625
0.0205078125
-0.0146484375
0.01611328125
-0.0172119140625
0.0135498046875
-0.0157470703125
-0.0523681640625
0.0494384765625
-0.1226806640625
0.1160888671875
-0.0640869140625
0.056396484375
0.0238037109375
-0.0194091796875
0.0311279296875
-0.0281982421875
0.024169921875
-0.01904296875
0.0054931640625
-0.0025634765625
-0.0087890625
0.01318359375
0.00146484375
0.0029296875
0.0
0.00146484375
-0.00439453125
0.0164794921875
-0.00146484375
0.009521484375
0.0157470703125
-0.005859375
0.016845703125
-0.010986328125
0.01611328125
-0.0120849609375
0.0465087890625
-0.03515625
0.01171875
0.0091552734375
-0.008056640625
0.01025390625
0.0142822265625
-0.04541015625
0.005126953125
-0.025634765625
0.0003662109375
-0.0062255859375
0.0018310546875
-0.0025634765625
-0.01025390625
0.000732421875
-0.0296630859375
0.01611328125
-0.0106201171875
0.0040283203125
0.0120849609375
-0.01025390625
0.0098876953125
-0.0047607421875
0.000732421875
-0.0025634765625
-0.0010986328125
0.0029296875
0.0
-0.0029296875
0.0069580078125
-0.0087890625
-0.0025634765625
0.00146484375
-0.0113525390625
0.009521484375
-0.0062255859375
0.0062255859375
0.0091552734375
-0.0135498046875
0.0
0.0010986328125
-0.0135498046875
0.0128173828125
0.0084228515625
-0.00439453125
0.01025390625
-0.0076904296875
0.015380859375
-0.0157470703125
0.01904296875
-0.018310546875
0.0135498046875
-0.0135498046875
0.00732421875
-0.01611328125
-0.01025390625
0.028564453125
0.01904296875
0.0084228515625
0.024169921875
-0.0413818359375
-0.00146484375
-0.00732421875
0.00146484375
0.0
0.0018310546875
-0.0010986328125
-0.01171875
0.01318359375
-0.0296630859375
0.025634765625
-0.017578125
0.0150146484375
0.005126953125
0.0010986328125
0.0201416015625
-0.0040283203125
0.0113525390625
-0.0032958984375
0.0106201171875
-0.0032958984375
0.0135498046875
-0.0076904296875
0.0106201171875
-0.006591796875
0.0113525390625
-0.0040283203125
0.0010986328125
0.002197265625
0.00146484375
0.003662109375
0.232940673828125
-0.272491455078125
-0.0025634765625
0.0018310546875
-0.234405517578125
0.268829345703125
0.0010986328125
-0.0047607421875
0.0029296875
-0.0025634765625
0.0087890625
-0.0135498046875
0.01171875
-0.0164794921875
0.00146484375
-0.0076904296875
-0.0146484375
0.0010986328125
0.005126953125
-0.01171875
0.0223388671875
-0.0069580078125
-0.0040283203125
-0.0076904296875
-0.0120849609375
-0.0186767578125
-0.0069580078125
-0.0084228515625
-0.0062255859375
-0.00146484375
-0.0076904296875
0.00732421875
-0.0157470703125
0.01025390625
-0.01171875
0.0087890625
0.0047607421875
0.002197265625
0.0157470703125
0.0010986328125
0.0164794921875
-0.0003662109375
-0.00146484375
0.01611328125
-0.028564453125
0.0439453125
-0.035888671875
0.04541015625
-0.019775390625
0.029296875
-0.01171875
0.01611328125
-0.0091552734375
0.01611328125
-0.046142578125
0.0201416015625
-0.0157470703125
0.0172119140625
0.029296875
0.0040283203125
0.005126953125
-0.0032958984375
0.0062255859375
-0.003662109375
0.00732421875
-0.0087890625
0.0087890625
-0.0098876953125
0.0062255859375
-0.0128173828125
0.0003662109375
-0.0106201171875
0.019775390625
-0.0025634765625
0.013916015625
-0.003662109375
-0.01318359375
-0.0135498046875
-0.0135498046875
-0.0120849609375
0.0560302734375
-0.068115234375
0.0721435546875
-0.0787353515625
0.0032958984375
-0.0087890625
-0.0230712890625
0.0113525390625
-0.0322265625
0.0201416015625
-0.0106201171875
0.0047607421875
0.0069580078125
-0.0054931640625
0.0010986328125
0.006591796875
-0.0054931640625
0.0076904296875
0.0018310546875
0.000732421875
0.0018310546875
-0.0025634765625
-0.0003662109375
0.00146484375
-0.002197265625
0.003662109375
0.0
0.0032958984375
0.000732421875
0.0032958984375
-0.0018310546875
0.0025634765625
0.0010986328125
0.002197265625
0.0003662109375
0.0010986328125
0.0113525390625
-0.00146484375
0.0106201171875
-0.0062255859375
0.0087890625
-0.005126953125
0.005126953125
0.0003662109375
-0.00146484375
0.0029296875
0.0223388671875
-0.0267333984375
-0.0062255859375
0.024169921875
-0.008056640625
0.0296630859375
-0.0040283203125
-0.0150146484375
-0.046875
0.0362548828125
-0.0377197265625
0.035888671875
-0.019775390625
0.018310546875
-0.0208740234375
0.021240234375
-0.0296630859375
0.0223388671875
-0.01171875
0.0084228515625
0.0113525390625
-0.0087890625
0.015380859375
-0.0069580078125
0.0040283203125
-0.000732421875
0.003662109375
-0.002197265625
0.0128173828125
-0.0113525390625
0.0135498046875
-0.010986328125
0.0128173828125
-0.012451171875
0.01318359375
-0.0164794921875
0.0157470703125
-0.018310546875
0.0245361328125
-0.034423828125
0.00146484375
-0.0018310546875
-0.010986328125
0.005126953125
0.0087890625
-0.0201416015625
-0.005859375
-0.00146484375
-0.015380859375
0.006591796875
-0.0120849609375
0.0062255859375
-0.0076904296875
-0.00146484375
-0.0098876953125
-0.0047607421875
-0.013916015625
0.0333251953125
0.01611328125
0.0018310546875
0.0135498046875
-0.0531005859375
-0.0106201171875
-0.0164794921875
-0.01025390625
0.005126953125
-0.0106201171875
0.008056640625
-0.0120849609375
0.0135498046875
-0.0252685546875
0.0201416015625
-0.0179443359375
0.0230712890625
0.00732421875
0.00439453125
0.01611328125
0.0010986328125
0.0128173828125
0.0040283203125
0.009521484375
0.003662109375
0.010986328125
0.0054931640625
0.016845703125
-0.0047607421875
0.0216064453125
-0.0128173828125
0.01025390625
0.0003662109375
0.0113525390625
0.0047607421875
0.0087890625
-0.0018310546875
0.0054931640625
0.0
0.005859375
0.000732421875
0.000732421875
0.00439453125
-0.0091552734375
0.0087890625
-0.016845703125
0.0435791015625
0.0234375
0.000732421875
0.0263671875
-0.0516357421875
0.0029296875
-0.01611328125
-0.0025634765625
-0.0003662109375
-0.008056640625
0.0040283203125
-0.01171875
0.0091552734375
-0.028564453125
0.0186767578125
-0.022705078125
0.0128173828125
-0.0010986328125
-0.00146484375
0.0087890625
-0.0025634765625
0.0
-0.000732421875
-0.0025634765625
0.0003662109375
0.0018310546875
-0.0029296875
0.0025634765625
-0.006591796875
0.000732421875
-0.003662109375
0.0003662109375
-0.00439453125
0.005859375
-0.0062255859375
0.0025634765625
-0.0069580078125
0.00146484375
-0.005126953125
-0.0029296875
0.0003662109375
-0.01025390625
0.0091552734375
-0.00732421875
0.005859375
0.0003662109375
-0.003662109375
0.005859375
-0.0010986328125
0.000732421875
0.0
0.000732421875
-0.0018310546875
-0.000732421875
-0.0010986328125
-0.0069580078125
0.005859375
0.01904296875
-0.0150146484375
-0.0142822265625
0.0322265625
-0.0252685546875
0.032958984375
0.009521484375
-0.0289306640625
0.0010986328125
-0.012451171875
0.0
-0.0018310546875
-0.003662109375
0.0062255859375
-0.01025390625
0.0084228515625
-0.01318359375
0.0091552734375
-0.003662109375
0.00439453125
0.0172119140625
-0.00732421875
0.0281982421875
-0.0113525390625
0.01318359375
-0.0029296875
0.0091552734375
-0.00146484375
0.012451171875
-0.0106201171875
0.015380859375
-0.0113525390625
0.0113525390625
-0.0098876953125
0.0076904296875
-0.0054931640625
0.0069580078125
-0.0029296875
0.0010986328125
-0.005859375
0.247955322265625
-0.292266845703125
0.000732421875
-0.005126953125
-0.238433837890625
0.276153564453125
0.0087890625
-0.012451171875
0.005126953125
-0.0128173828125
0.00732421875
-0.015380859375
0.0069580078125
-0.0087890625
0.0040283203125
-0.013916015625
-0.013916015625
-0.0091552734375
0.00732421875
-0.00732421875
0.0186767578125
-0.01171875
-0.002197265625
-0.01611328125
-0.0069580078125
-0.025634765625
-0.01171875
-0.008056640625
-0.010986328125
0.002197265625
-0.018310546875
0.009521484375
-0.0267333984375
0.019775390625
-0.0252685546875
0.01611328125
-0.00146484375
0.0076904296875
0.0091552734375
0.0003662109375
0.0062255859375
0.0032958984375
0.0032958984375
0.0113525390625
0.002197265625
0.013916015625
0.0040283203125
0.013916015625
0.0040283203125
0.009521484375
0.009521484375
0.00439453125
0.0010986328125
0.0106201171875
-0.0047607421875
0.0179443359375
-0.009521484375
0.0186767578125
-0.0135498046875
0.0245361328125
-0.0120849609375
0.02197265625
-0.0087890625
0.0120849609375
-0.002197265625
0.0091552734375
-0.0040283203125
0.0069580078125
-0.0054931640625
0.0047607421875
-0.002197265625
-0.002197265625
0.000732421875
-0.0032958984375
0.02490234375
-0.0205078125
-0.0106201171875
0.0245361328125
-0.027099609375
0.0234375
0.0032958984375
-0.032958984375
-0.008056640625
-0.012451171875
-0.008056640625
-0.002197265625
-0.008056640625
0.0047607421875
-0.02197265625
0.0142822265625
-0.02783203125
0.01611328125
-0.0098876953125
-0.0010986328125
0.0120849609375
-0.01318359375
0.01611328125
-0.009521484375
0.0003662109375
-0.0018310546875
-0.000732421875
0.002197265625
0.00439453125
-0.0040283203125
0.003662109375
-0.002197265625
0.0
-0.0003662109375
0.0
0.000732421875
0.0
0.0025634765625
0.0010986328125
-0.0010986328125
0.242828369140625
-0.280181884765625
-0.008056640625
0.0062255859375
-0.239166259765625
0.280181884765625
0.0098876953125
-0.008056640625
0.0062255859375
-0.002197265625
0.0084228515625
-0.0062255859375
0.0040283203125
-0.00439453125
0.0003662109375
0.000732421875
-0.018310546875
0.0084228515625
-0.0003662109375
0.0047607421875
0.024169921875
-0.0040283203125
0.0146484375
-0.0142822265625
0.0069580078125
-0.0205078125
-0.0029296875
0.0003662109375
-0.0076904296875
0.009521484375
-0.0106201171875
0.01025390625
-0.01318359375
0.01318359375
-0.0142822265625
0.009521484375
0.0087890625
-0.00146484375
0.027099609375
-0.012451171875
0.02197265625
-0.0084228515625
0.0142822265625
-0.0087890625
0.0150146484375
-0.008056640625
0.0194091796875
-0.0084228515625
0.01171875
-0.0128173828125
0.00732421875
-0.0054931640625
0.0076904296875
-0.0069580078125
0.0062255859375
-0.0087890625
0.0029296875
-0.0087890625
-0.0010986328125
-0.0032958984375
-0.0032958984375
-0.0032958984375
0.000732421875
-0.009521484375
0.0018310546875
-0.003662109375
-0.0069580078125
-0.0025634765625
-0.003662109375
-0.0084228515625
-0.0003662109375
-0.0106201171875
-0.0029296875
-0.0087890625
0.0069580078125
-0.0362548828125
-0.0135498046875
0.017578125
-0.018310546875
0.03076171875
-0.0084228515625
-0.028564453125
-0.0146484375
-0.00732421875
-0.012451171875
0.0054931640625
-0.0091552734375
0.0076904296875
-0.0164794921875
0.0157470703125
-0.0260009765625
0.0194091796875
-0.0120849609375
0.008056640625
-0.0018310546875
0.0120849609375
0.0076904296875
0.01025390625
0.0069580078125
0.0054931640625
0.00732421875
0.0069580078125
0.0084228515625
0.0062255859375
0.0098876953125
0.0084228515625
0.005859375
0.0084228515625
-0.0018310546875
0.01611328125
-0.005126953125
0.0179443359375
-0.0106201171875
0.018310546875
0.235137939453125
-0.269927978515625
-0.01025390625
0.017578125
-0.245391845703125
0.298126220703125
0.0091552734375
-0.0029296875
0.0091552734375
-0.0025634765625
0.0003662109375
0.0
-0.0040283203125
0.003662109375
-0.000732421875
0.002197265625
-0.0205078125
0.006591796875
-0.0084228515625
0.0205078125
0.021240234375
-0.005859375
0.008056640625
-0.0311279296875
-0.009521484375
-0.017578125
-0.00439453125
-0.0087890625
-0.0003662109375
-0.0054931640625
-0.0087890625
0.00146484375
-0.0172119140625
0.005126953125
0.0487060546875
-0.0633544921875
0.0911865234375
-0.09228515625
0.03515625
-0.0322265625
0.0054931640625
-0.000732421875
0.0
0.0029296875
-0.00146484375
0.0010986328125
-0.00146484375
0.00146484375
-0.00732421875
0.005126953125
-0.016845703125
0.0186767578125
-0.0234375
0.024169921875
-0.0172119140625
0.018310546875
-0.01611328125
0.0142822265625
-0.0179443359375
0.0186767578125
-0.009521484375
0.009521484375
-0.0069580078125
0.005126953125
-0.002197265625
0.0084228515625
-0.0003662109375
0.003662109375
0.00146484375
0.0
-0.000732421875
-0.000732421875
-0.0062255859375
0.0054931640625
0.0054931640625
-0.009521484375
-0.0179443359375
0.0362548828125
-0.012451171875
0.030029296875
0.0150146484375
-0.0311279296875
0.0032958984375
-0.012451171875
0.0
0.00146484375
0.000732421875
0.005859375
-0.0062255859375
0.0084228515625
-0.01611328125
0.0179443359375
-0.0069580078125
0.0091552734375
0.012451171875
-0.0032958984375
0.016845703125
-0.0025634765625
0.0087890625
-0.002197265625
0.0084228515625
-0.000732421875
0.0146484375
-0.009521484375
0.0223388671875
-0.0150146484375
0.0120849609375
-0.01025390625
0.0010986328125
-0.0025634765625
-0.00146484375
0.0
-0.006591796875
0.0025634765625
0.242828369140625
-0.285675048828125
-0.0084228515625
0.0069580078125
-0.253814697265625
0.293731689453125
0.0047607421875
-0.0091552734375
0.0032958984375
-0.002197265625
-0.005859375
0.0029296875
-0.0113525390625
0.000732421875
-0.017578125
0.008056640625
-0.0391845703125
0.02197265625
-0.0164794921875
0.012451171875
-0.0003662109375
0.01025390625
-0.0238037109375
0.006591796875
-0.0194091796875
-0.01025390625
-0.0150146484375
0.00439453125
-0.017578125
0.010986328125
-0.0157470703125
0.01171875
-0.01904296875
0.0164794921875
-0.0238037109375
0.016845703125
0.0003662109375
0.0069580078125
0.0194091796875
-0.000732421875
0.0135498046875
0.006591796875
0.008056640625
0.0054931640625
0.0113525390625
-0.0003662109375
0.0164794921875
-0.0047607421875
0.015380859375
-0.01025390625
0.0146484375
-0.01171875
0.0091552734375
0.0
0.0084228515625
0.0047607421875
0.0113525390625
-0.01025390625
0.012451171875
-0.0113525390625
0.010986328125
-0.01025390625
0.01025390625
-0.0142822265625
0.027099609375
-0.031494140625
-0.0186767578125
0.0325927734375
-0.0355224609375
0.040283203125
-0.003662109375
-0.028564453125
-0.010986328125
-0.0113525390625
-0.01171875
0.0
-0.009521484375
0.00146484375
-0.01611328125
0.005859375
-0.031494140625
0.013916015625
-0.0091552734375
-0.000732421875
0.019775390625
-0.016845703125
0.017578125
-0.0091552734375
0.005859375
-0.0040283203125
0.006591796875
-0.0018310546875
0.009521484375
-0.0069580078125
0.0069580078125
-0.0069580078125
0.0
0.000732421875
-0.005126953125
0.0025634765625
-0.0010986328125
0.00146484375
-0.002197265625
-0.002197265625
-0.0091552734375
0.008056640625
-0.008056640625
0.009521484375
-0.0040283203125
0.0062255859375
-0.0010986328125
0.0003662109375
0.00146484375
-0.0032958984375
0.00146484375
-0.0003662109375
-0.0091552734375
0.0010986328125
0.0128173828125
-0.0054931640625
0.0157470703125
0.0
-0.0208740234375
0.0146484375
-0.0172119140625
0.000732421875
-0.01171875
0.0047607421875
-0.01318359375
0.0146484375
-0.01318359375
0.0135498046875
-0.017578125
0.017578125
-0.0205078125
0.0157470703125
0.005859375
-0.0032958984375
0.030029296875
-0.0172119140625
0.0252685546875
-0.01025390625
0.01904296875
-0.0040283203125
0.0194091796875
-0.006591796875
0.018310546875
-0.0076904296875
0.0135498046875
-0.0047607421875
0.015380859375
-0.008056640625
0.0003662109375
0.00146484375
-0.0032958984375
0.0076904296875
0.002197265625
-0.0029296875
0.0032958984375
-0.0032958984375
0.008056640625
-0.005859375
0.005126953125
-0.009521484375
-0.00146484375
-0.000732421875
0.002197265625
0.0032958984375
0.0069580078125
-0.0054931640625
0.003662109375
-0.009521484375
0.0069580078125
-0.006591796875
0.003662109375
-0.0091552734375
-0.0179443359375
0.0
0.005126953125
-0.0054931640625
0.0157470703125
0.00146484375
-0.01171875
-0.00146484375
-0.0157470703125
-0.019775390625
-0.0142822265625
-0.006591796875
-0.005859375
-0.005859375
-0.0069580078125
-0.00146484375
-0.01611328125
0.0047607421875
-0.0263671875
0.0120849609375
-0.01904296875
0.0179443359375
-0.0018310546875
0.0084228515625
0.006591796875
0.00439453125
0.0040283203125
0.0029296875
-0.0084228515625
0.01611328125
-0.066650390625
0.1146240234375
0.0263671875
0.0860595703125
0.0966796875
-0.0904541015625
-0.0018310546875
-0.0985107421875
-0.0084228515625
-0.0234375
0.003662109375
-0.0032958984375
-0.002197265625
-0.00439453125
-0.009521484375
-0.0069580078125
-0.0098876953125
-0.00439453125
-0.0069580078125
0.0091552734375
-0.0040283203125
0.034423828125
0.005859375
0.0263671875
0.0040283203125
0.0029296875
-0.0029296875
0.0010986328125
-0.018310546875
0.01171875
-0.0230712890625
0.0157470703125
-0.0164794921875
0.006591796875
-0.0128173828125
0.0047607421875
-0.0157470703125
0.0076904296875
-0.0205078125
0.0120849609375
-0.01611328125
0.0142822265625
-0.0267333984375
0.0216064453125
0.201416015625
-0.248321533203125
-0.037017822265625
0.03076171875
-0.252716064453125
0.290802001953125
0.0032958984375
-0.00439453125
0.037750244140625
-0.003662109375
0.161529541015625
-0.00732421875
0.1435546875
-0.00732421875
0.019775390625
-0.0087890625
-0.0223388671875
-0.00732421875
-0.002197265625
-0.01171875
-0.02490234375
0.0040283203125
-0.0516357421875
0.0003662109375
-0.038818359375
-0.0245361328125
-0.052001953125
-0.0069580078125
-0.024169921875
-0.01025390625
-0.008056640625
-0.0216064453125
-0.0186767578125
-0.008056640625
-0.041015625
0.0084228515625
-0.0340576171875
0.005859375
-0.00732421875
-0.0135498046875
0.0029296875
-0.0150146484375
0.0047607421875
-0.01318359375
0.0010986328125
-0.0150146484375
0.0032958984375
-0.009521484375
-0.0018310546875
-0.0054931640625
-0.005126953125
-0.0029296875
-0.006256103515625
-0.005859375
-0.011383056640625
-0.0003662109375
-0.00439453125
0.0010986328125
0.0010986328125
0.000732421875
0.006622314453125
-0.000732421875
0.260406494140625
-0.298858642578125
0.002197265625
0.003662109375
-0.254150390625
0.294464111328125
0.0010986328125
-0.0018310546875
-0.005523681640625
0.0040283203125
-0.0029296875
0.002197265625
0.007720947265625
-0.0032958984375
0.0040283203125
-0.0040283203125
-0.010284423828125
0.0040283203125
0.0032958984375
-0.0087890625
0.025299072265625
-0.0062255859375
0.01904296875
-0.0106201171875
0.0120849609375
-0.01904296875
0.0047607421875
-0.0032958984375
0.0146484375
-0.0113525390625
0.0142822265625
-0.00732421875
0.002197265625
0.00439453125
0.0018310546875
0.0062255859375
0.01171875
-0.0076904296875
0.0201416015625
-0.0135498046875
0.010986328125
-0.009521484375
0.000732421875
-0.005859375
-0.00146484375
-0.0018310546875
-0.00146484375
-0.0047607421875
-0.003662109375
-0.000732421875
-0.013916015625
0.0069580078125
-0.0087890625
0.009521484375
-0.0025634765625
0.003662109375
-0.0047607421875
0.0025634765625
-0.0076904296875
0.003662109375
-0.0062255859375
0.0010986328125
0.243194580078125
-0.296661376953125
-0.0150146484375
0.006591796875
-0.257110595703125
0.303253173828125
-0.0032958984375
0.00439453125
-0.0003662109375
0.005126953125
0.0069580078125
-0.0032958984375
0.0186767578125
-0.005859375
0.0234375
-0.005126953125
-0.0032958984375
0.005859375
-0.006591796875
0.021240234375
0.0216064453125
0.0025634765625
0.0146484375
-0.018310546875
-0.019775390625
0.0010986328125
-0.0245361328125
0.02197265625
-0.0146484375
0.0172119140625
-0.0150146484375
0.013916015625
-0.0274658203125
0.02490234375
-0.031524658203125
0.0238037109375
-0.003662109375
0.0018310546875
0.012847900390625
-0.0087890625
0.0091552734375
-0.0025634765625
0.000732421875
-0.00146484375
0.0091552734375
-0.0076904296875
0.0106201171875
-0.0106201171875
0.00146484375
-0.005859375
-0.0029296875
0.0029296875
-0.01025390625
0.0087890625
-0.005126953125
0.0047607421875
0.0025634765625
-0.0047607421875
-0.000732421875
0.00146484375
-0.000732421875
0.0003662109375
-0.028228759765625
0.0150146484375
-0.0029296875
0.0025634765625
0.034454345703125
-0.022705078125
0.0069580078125
-0.005126953125
0.00146484375
-0.00146484375
0.00146484375
0.00146484375
0.0
-0.000732421875
0.0029296875
-0.002197265625
0.003662109375
-0.006591796875
0.0205078125
-0.0029296875
0.01318359375
0.0106201171875
-0.0069580078125
-0.0025634765625
0.000732421875
-0.0113525390625
-0.0003662109375
-0.00146484375
0.006591796875
-0.0010986328125
0.0040283203125
0.0
-0.01171875
0.009521484375
-0.0223388671875
0.017578125
0.0003662109375
0.0003662109375
0.029296875
-0.0205078125
0.024169921875
-0.0164794921875
0.0135498046875
-0.0084228515625
0.0054931640625
-0.003662109375
0.012451171875
-0.010986328125
0.0128173828125
-0.015380859375
0.0113525390625
-0.0098876953125
0.0128173828125
-0.009521484375
0.0040283203125
-0.005126953125
0.000732421875
-0.0040283203125
0.00146484375
-0.0084228515625
0.005859375
-0.006591796875
0.000732421875
-0.0062255859375
-0.0018310546875
-0.002197265625
-0.0003662109375
-0.0029296875
-0.00439453125
0.00146484375
-0.0018310546875
0.0069580078125
0.0
-0.00439453125
-0.00146484375
-0.005859375
0.00146484375
-0.0047607421875
0.0018310546875
0.0010986328125
0.0234375
-0.0150146484375
-0.0018310546875
0.0238037109375
-0.0194091796875
0.028564453125
0.0025634765625
-0.0186767578125
0.002197265625
-0.006591796875
0.0062255859375
-0.000732421875
0.005859375
0.00439453125
-0.0047607421875
0.008056640625
-0.016845703125
0.010986328125
-0.005859375
-0.0029296875
0.01318359375
-0.01318359375
0.0201416015625
-0.013916015625
0.01318359375
-0.0150146484375
0.005859375
-0.009521484375
0.0
-0.0084228515625
-0.0018310546875
-0.0029296875
0.00439453125
-0.0040283203125
0.0010986328125
-0.0032958984375
-0.003662109375
-0.00146484375
0.0018310546875
-0.002197265625
0.005126953125
0.0010986328125
0.002197265625
-0.002197265625
-0.003662109375
0.002197265625
0.0091552734375
-0.01611328125
-0.009521484375
0.005126953125
-0.0274658203125
0.0245361328125
-0.0069580078125
-0.0040283203125
-0.0054931640625
-0.0025634765625
-0.0062255859375
-0.0003662109375
-0.00732421875
-0.000732421875
0.015380859375
-0.00732421875
-0.0113525390625
0.0234375
-0.0289306640625
0.016845703125
0.003662109375
-0.0208740234375
-0.0029296875
-0.0091552734375
-0.0025634765625
0.0003662109375
-0.0069580078125
0.0076904296875
-0.019775390625
0.0128173828125
-0.02197265625
0.0150146484375
-0.0157470703125
0.0076904296875
0.0
-0.0003662109375
0.0062255859375
-0.0040283203125
-0.00146484375
0.0003662109375
-0.0010986328125
0.00146484375
0.005126953125
-0.0040283203125
0.008056640625
-0.0010986328125
0.006591796875
-0.00146484375
0.0098876953125
-0.0003662109375
0.005859375
0.006591796875
0.0047607421875
0.0076904296875
0.005126953125
0.003662109375
0.0054931640625
-0.0003662109375
0.00439453125
0.00146484375
-0.0003662109375
0.00439453125
0.008056640625
0.0029296875
0.008056640625
-0.00439453125
0.002197265625
0.0003662109375
0.0047607421875
0.0
0.0106201171875
-0.0054931640625
0.032958984375
-0.025634765625
-0.0054931640625
0.03076171875
-0.01318359375
0.037353515625
0.021240234375
-0.0296630859375
0.005126953125
-0.0087890625
0.0018310546875
0.0010986328125
-0.00146484375
0.005859375
-0.0076904296875
0.0150146484375
-0.0113525390625
0.01904296875
-0.006591796875
0.0120849609375
0.0157470703125
-0.0054931640625
0.024169921875
-0.008056640625
0.0076904296875
-0.0032958984375
0.0018310546875
0.002197265625
0.002197265625
-0.0029296875
0.0054931640625
-0.005126953125
0.0069580078125
-0.003662109375
-0.0025634765625
-0.0032958984375
-0.0084228515625
0.0
-0.0091552734375
-0.005126953125
-0.006591796875
-0.0040283203125
-0.0054931640625
-0.0047607421875
-0.00439453125
-0.003662109375
-0.0047607421875
0.0018310546875
0.0
0.0018310546875
0.0040283203125
-0.0040283203125
0.005126953125
-0.0091552734375
0.01171875
-0.0091552734375
0.0084228515625
-0.0084228515625
0.0032958984375
-0.0150146484375
-0.01171875
0.032958984375
0.005859375
0.021240234375
0.016845703125
-0.0340576171875
-0.000732421875
-0.012451171875
-0.0029296875
0.0032958984375
-0.005859375
0.008056640625
-0.008056640625
0.01318359375
-0.018310546875
0.0186767578125
-0.017578125
0.018310546875
-0.0032958984375
0.0084228515625
0.009521484375
0.0003662109375
0.01025390625
0.0010986328125
0.0047607421875
-0.0010986328125
0.0025634765625
-0.000732421875
0.0003662109375
-0.0010986328125
0.0003662109375
0.000732421875
0.000732421875
-0.0018310546875
0.0029296875
-0.0018310546875
-0.000732421875
0.0029296875
-0.003662109375
0.0010986328125
0.0029296875
-0.0025634765625
0.0025634765625
-0.003662109375
0.0
0.0018310546875
0.0018310546875
0.0029296875
0.002197265625
-0.0010986328125
0.0025634765625
-0.0091552734375
0.00146484375
-0.0054931640625
-0.002197265625
0.002197265625
-0.00439453125
-0.01025390625
-0.0205078125
0.041015625
0.0018310546875
0.02197265625
0.0230712890625
-0.04248046875
-0.0025634765625
-0.0146484375
-0.005126953125
0.0003662109375
-0.005859375
0.0047607421875
-0.0062255859375
0.0054931640625
-0.0098876953125
0.0076904296875
-0.01611328125
0.0076904296875
0.0054931640625
-0.002197265625
0.017578125
-0.0084228515625
0.00732421875
0.0003662109375
0.0025634765625
0.0003662109375
0.0069580078125
-0.0047607421875
0.0062255859375
-0.00439453125
0.0018310546875
-0.0025634765625
0.000732421875
0.0029296875
0.0003662109375
-0.0003662109375
0.003662109375
-0.002197265625
-0.003662109375
0.003662109375
-0.0029296875
0.00439453125
0.0018310546875
-0.00146484375
-0.005126953125
0.005859375
0.0029296875
0.0018310546875
0.006591796875
-0.008056640625
0.005859375
-0.0062255859375
0.0047607421875
-0.0069580078125
0.0025634765625
-0.003662109375
-0.01171875
0.0047607421875
0.0018310546875
-0.0029296875
0.0186767578125
-0.000732421875
0.003662109375
-0.00146484375
0.00146484375
-0.013916015625
-0.00146484375
-0.00439453125
-0.003662109375
0.0054931640625
-0.01025390625
0.009521484375
-0.0164794921875
0.015380859375
-0.0252685546875
0.0216064453125
-0.0084228515625
0.006591796875
0.0186767578125
-0.008056640625
0.015380859375
-0.0047607421875
0.005126953125
0.0018310546875
-0.0018310546875
0.0047607421875
0.00732421875
-0.037353515625
0.1461181640625
-0.191925048828125
0.0860595703125
-0.110595703125
-0.1402587890625
0.193756103515625
-0.093017578125
0.1636962890625
-0.0098876953125
0.0150146484375
-0.0201416015625
0.0230712890625
-0.029296875
0.0369873046875
-0.0322265625
0.0428466796875
-0.0029296875
0.0062255859375
0.0494384765625
-0.076171875
0.0633544921875
-0.0966796875
0.03076171875
-0.0494384765625
0.00439453125
-0.0098876953125
0.0062255859375
-0.0091552734375
0.0069580078125
-0.0142822265625
0.0062255859375
-0.0084228515625
0.000732421875
-0.000732421875
0.000732421875
0.0025634765625
0.003662109375
-0.00146484375
-0.0025634765625
0.0062255859375
-0.00146484375
0.010986328125
-0.0289306640625
-0.01025390625
-0.0087890625
0.0267333984375
0.0303955078125
0.0084228515625
0.008056640625
-0.0281982421875
-0.006591796875
0.0032958984375
-0.006591796875
0.0040283203125
-0.010986328125
0.01025390625
-0.0146484375
0.0084228515625
-0.018310546875
0.0120849609375
-0.016845703125
0.013916015625
-0.000732421875
0.0087890625
0.002197265625
0.002197265625
-0.002197265625
0.0032958984375
-0.000732421875
0.002197265625
0.0010986328125
-0.00146484375
-0.00146484375
0.000732421875
-0.005859375
0.00439453125
0.0
0.00439453125
-0.002197265625
0.0025634765625
-0.0003662109375
0.0
0.00146484375
-0.0047607421875
0.0003662109375
-0.0025634765625
-0.0010986328125
0.0003662109375
-0.021240234375
0.0084228515625
-0.0186767578125
0.034423828125
0.01611328125
0.0010986328125
0.0194091796875
-0.0380859375
-0.005859375
-0.0128173828125
-0.008056640625
0.0029296875
-0.0091552734375
0.0084228515625
-0.0142822265625
0.01171875
-0.0150146484375
0.010986328125
-0.01611328125
0.009521484375
0.0040283203125
-0.0003662109375
0.017578125
-0.0106201171875
0.0091552734375
-0.00146484375
0.0040283203125
-0.00146484375
0.006591796875
-0.005859375
0.005859375
-0.00439453125
-0.0025634765625
0.00146484375
-0.005859375
0.00732421875
-0.00439453125
0.0062255859375
-0.00146484375
0.0054931640625
-0.000732421875
0.00146484375
0.0029296875
0.0018310546875
0.0029296875
0.0029296875
0.003662109375
0.0076904296875
0.012451171875
0.003662109375
0.01025390625
-0.0029296875
0.0098876953125
-0.006591796875
0.0113525390625
-0.01025390625
0.0040283203125
-0.002197265625
-0.0087890625
0.0018310546875
0.010986328125
-0.0047607421875
0.01318359375
0.003662109375
-0.00732421875
0.0018310546875
0.0010986328125
-0.01171875
-0.0029296875
-0.002197265625
-0.0029296875
0.0029296875
-0.0047607421875
0.0040283203125
-0.0146484375
0.0120849609375
-0.0194091796875
0.01318359375
-0.0054931640625
0.0054931640625
0.0216064453125
-0.0113525390625
0.0245361328125
-0.0142822265625
0.01171875
-0.003662109375
0.005859375
-0.0032958984375
0.0091552734375
-0.0040283203125
0.0054931640625
-0.0040283203125
0.003662109375
-0.0032958984375
0.0047607421875
-0.00439453125
-0.0003662109375
-0.002197265625
0.000732421875
-0.0025634765625
0.0010986328125
-0.0040283203125
0.0040283203125
-0.003662109375
0.0062255859375
-0.010986328125
0.002197265625
-0.0040283203125
0.003662109375
0.000732421875
0.006591796875
-0.0062255859375
0.0054931640625
-0.0084228515625
0.0062255859375
-0.0098876953125
0.008056640625
-0.0087890625
-0.0098876953125
-0.00439453125
-0.013916015625
0.0340576171875
0.016845703125
0.005126953125
0.0186767578125
-0.0406494140625
0.0003662109375
-0.0150146484375
-0.003662109375
0.003662109375
-0.0047607421875
0.0069580078125
-0.010986328125
0.0091552734375
-0.0201416015625
0.017578125
-0.02197265625
0.0135498046875
-0.003662109375
0.0040283203125
0.0087890625
-0.00439453125
0.00439453125
-0.0010986328125
-0.0018310546875
0.0029296875
-0.0029296875
0.0003662109375
-0.0003662109375
-0.0010986328125
-0.00439453125
0.000732421875
-0.0040283203125
0.0025634765625
-0.0054931640625
0.002197265625
-0.005126953125
0.0054931640625
-0.00439453125
0.0040283203125
-0.00439453125
0.0032958984375
0.0
0.0
-0.0003662109375
-0.0003662109375
-0.0029296875
0.0054931640625
-0.0040283203125
0.0029296875
0.0010986328125
-0.003662109375
-0.000732421875
-0.0029296875
0.000732421875
-0.0003662109375
0.003662109375
-0.0062255859375
0.02197265625
-0.027099609375
-0.01025390625
0.02490234375
-0.02197265625
0.029296875
0.005126953125
-0.025634765625
-0.009521484375
-0.00732421875
-0.0040283203125
0.0040283203125
-0.0091552734375
0.00732421875
-0.01611328125
0.01318359375
-0.021240234375
0.016845703125
-0.01318359375
0.00732421875
0.01318359375
-0.0069580078125
0.017578125
-0.0087890625
0.0069580078125
-0.000732421875
0.0029296875
-0.0054931640625
0.0003662109375
0.0018310546875
-0.063720703125
0.1124267578125
0.03076171875
0.0611572265625
0.0977783203125
-0.1083984375
-0.01171875
-0.0926513671875
-0.01318359375
-0.031494140625
-0.000732421875
-0.006591796875
-0.005859375
-0.0032958984375
-0.0113525390625
-0.0054931640625
-0.0179443359375
0.0010986328125
-0.01318359375
0.015380859375
-0.008056640625
0.0399169921875
0.0003662109375
0.037353515625
0.006591796875
0.0076904296875
0.0003662109375
0.00146484375
-0.0054931640625
0.003662109375
-0.000732421875
0.0047607421875
-0.0018310546875
0.0040283203125
-0.003662109375
0.003662109375
0.0003662109375
0.0010986328125
0.0018310546875
-0.0010986328125
0.0018310546875
0.002197265625
-0.0025634765625
0.0025634765625
0.0025634765625
-0.002197265625
-0.03515625
0.0164794921875
0.0029296875
-0.0062255859375
0.049072265625
-0.0325927734375
0.0128173828125
-0.0106201171875
0.0106201171875
-0.0069580078125
0.0047607421875
-0.0069580078125
0.0069580078125
-0.00732421875
0.0084228515625
-0.0091552734375
0.008056640625
-0.0076904296875
0.009521484375
-0.0318603515625
-0.003662109375
0.0208740234375
0.0032958984375
0.02783203125
0.0142822265625
-0.0355224609375
0.006591796875
-0.0164794921875
0.0010986328125
0.002197265625
0.0
0.0087890625
-0.0069580078125
0.010986328125
-0.016845703125
0.01904296875
-0.0164794921875
0.0146484375
-0.00146484375
0.0025634765625
0.0120849609375
-0.0047607421875
0.0062255859375
-0.0047607421875
0.0025634765625
-0.0018310546875
-0.00146484375
-0.0003662109375
-0.000732421875
0.0
-0.005859375
0.0025634765625
-0.0091552734375
0.006591796875
-0.0032958984375
0.002197265625
-0.006591796875
0.0029296875
-0.0047607421875
0.0040283203125
-0.0032958984375
0.00146484375
0.0025634765625
-0.000732421875
-0.0406494140625
0.0238037109375
-0.005126953125
0.0040283203125
0.0399169921875
-0.0234375
0.00146484375
0.0
0.0010986328125
0.00146484375
-0.0003662109375
-0.0018310546875
0.003662109375
-0.0040283203125
-0.0003662109375
-0.0003662109375
-0.005859375
0.002197265625
0.0186767578125
0.0010986328125
0.0113525390625
0.0062255859375
-0.0087890625
-0.0076904296875
-0.002197265625
-0.0120849609375
-0.00439453125
0.0018310546875
-0.0040283203125
0.006591796875
-0.0054931640625
0.010986328125
-0.0091552734375
0.0098876953125
-0.0135498046875
0.0120849609375
-0.00732421875
0.0047607421875
0.010986328125
-0.005859375
0.01611328125
-0.0054931640625
0.006591796875
-0.003662109375
0.005859375
-0.005859375
0.0062255859375
-0.005859375
0.005126953125
-0.0025634765625
0.00146484375
-0.005859375
0.000732421875
-0.00146484375
-0.0003662109375
-0.0018310546875
0.002197265625
-0.0032958984375
0.0025634765625
-0.000732421875
0.0003662109375
-0.005126953125
0.006591796875
-0.0069580078125
-0.03955078125
0.0205078125
0.0010986328125
-0.002197265625
0.0421142578125
-0.03076171875
0.0040283203125
-0.0087890625
0.0087890625
-0.006591796875
0.0040283203125
-0.00439453125
0.005126953125
-0.00439453125
0.002197265625
-0.00146484375
-0.0047607421875
0.0029296875
0.0135498046875
0.005859375
0.009521484375
0.013916015625
-0.0120849609375
0.0
-0.0040283203125
-0.0098876953125
-0.0029296875
0.0029296875
-0.0069580078125
0.0076904296875
-0.0076904296875
0.0091552734375
-0.0128173828125
0.008056640625
-0.0186767578125
0.0135498046875
-0.0135498046875
0.00732421875
0.003662109375
-0.002197265625
0.0098876953125
-0.003662109375
0.00146484375
-0.00146484375
-0.00146484375
0.0018310546875
-0.002197265625
0.0018310546875
-0.018310546875
0.0179443359375
-0.03076171875
0.0252685546875
-0.00439453125
0.0029296875
0.0106201171875
-0.01171875
0.0069580078125
-0.008056640625
0.006591796875
-0.005126953125
-0.0018310546875
-0.0003662109375
-0.0010986328125
0.00146484375
-0.01171875
0.0091552734375
-0.016845703125
0.016845703125
0.00439453125
0.0003662109375
0.016845703125
-0.0146484375
0.0164794921875
-0.0194091796875
0.01611328125
-0.0172119140625
0.0091552734375
-0.0087890625
0.01171875
-0.0311279296875
-0.0076904296875
0.0238037109375
-0.00146484375
0.029296875
0.0245361328125
-0.0384521484375
0.003662109375
-0.016845703125
-0.003662109375
0.00146484375
-0.0062255859375
0.006591796875
-0.018310546875
0.0150146484375
-0.0263671875
0.02197265625
-0.02783203125
0.0223388671875
0.00439453125
0.003662109375
0.028564453125
-0.0164794921875
0.01611328125
-0.0076904296875
0.008056640625
-0.002197265625
0.0113525390625
-0.0062255859375
0.0087890625
-0.005126953125
-0.0010986328125
-0.0032958984375
-0.003662109375
0.0040283203125
-0.0029296875
0.003662109375
0.005126953125
-0.0069580078125
0.0029296875
-0.006591796875
-0.000732421875
0.0010986328125
0.0018310546875
-0.0032958984375
0.0
-0.0047607421875
0.005126953125
0.0
0.00732421875
-0.0069580078125
0.0062255859375
-0.01171875
0.003662109375
-0.009521484375
0.0040283203125
-0.0087890625
0.00146484375
-0.022705078125
-0.0128173828125
0.0340576171875
0.0029296875
0.0267333984375
0.01025390625
-0.03515625
-0.0003662109375
-0.0120849609375
-0.0025634765625
0.0040283203125
-0.0047607421875
0.01171875
-0.005126953125
0.009521484375
-0.01318359375
0.01318359375
-0.0157470703125
0.010986328125
-0.0010986328125
0.0003662109375
0.013916015625
-0.006591796875
0.009521484375
-0.0076904296875
0.0029296875
-0.002197265625
0.000732421875
-0.00439453125
0.002197265625
-0.005859375
0.0
-0.005126953125
-0.002197265625
-0.0018310546875
-0.0010986328125
0.0018310546875
-0.0029296875
0.0018310546875
-0.0029296875
0.0029296875
-0.0010986328125
0.0003662109375
-0.00439453125
0.0047607421875
-0.018310546875
0.0146484375
-0.010986328125
0.01171875
-0.0018310546875
0.0
-0.0029296875
-0.002197265625
0.002197265625
-0.00146484375
0.000732421875
-0.0029296875
-0.0142822265625
0.0047607421875
-0.0205078125
0.0318603515625
0.0128173828125
0.005126953125
0.0135498046875
-0.03076171875
-0.0084228515625
-0.0054931640625
-0.0040283203125
0.00146484375
0.000732421875
-0.0032958984375
-0.0047607421875
0.0047607421875
-0.0128173828125
0.00732421875
-0.0128173828125
0.0062255859375
0.0032958984375
-0.0054931640625
0.0216064453125
-0.0142822265625
0.016845703125
-0.0087890625
0.0098876953125
-0.0047607421875
0.008056640625
-0.0047607421875
0.0076904296875
-0.0054931640625
0.006591796875
-0.002197265625
0.0018310546875
-0.000732421875
0.0010986328125
0.0025634765625
0.0
0.000732421875
-0.000732421875
0.00146484375
-0.0003662109375
0.0018310546875
-0.0032958984375
0.0018310546875
-0.006591796875
0.0091552734375
-0.000732421875
0.005126953125
0.005126953125
-0.000732421875
0.006591796875
-0.0084228515625
0.01025390625
-0.0106201171875
0.0032958984375
-0.0032958984375
-0.0201416015625
0.012451171875
-0.0084228515625
0.0135498046875
0.0205078125
-0.00146484375
0.0135498046875
-0.0135498046875
-0.003662109375
-0.0106201171875
-0.0018310546875
-0.00146484375
0.0010986328125
-0.0029296875
-0.0040283203125
0.00439453125
-0.0098876953125
0.0087890625
-0.0194091796875
0.013916015625
-0.0018310546875
0.0018310546875
0.0179443359375
-0.0106201171875
0.0135498046875
-0.0003662109375
0.002197265625
0.005859375
0.005859375
0.000732421875
0.0120849609375
-0.0084228515625
0.00732421875
-0.003662109375
0.0018310546875
0.002197265625
-0.0029296875
0.002197265625
-0.0032958984375
0.0029296875
-0.0040283203125
0.0003662109375
0.000732421875
-0.0029296875
0.0
-0.0032958984375
-0.003662109375
0.0040283203125
-0.0003662109375
0.0010986328125
0.0010986328125
-0.0047607421875
0.0069580078125
-0.0091552734375
0.006591796875
-0.010986328125
0.0032958984375
-0.0040283203125
0.0040283203125
-0.0076904296875
0.032958984375
-0.0120849609375
0.0029296875
0.0076904296875
-0.0311279296875
0.00439453125
-0.0025634765625
-0.019775390625
-0.002197265625
-0.0098876953125
-0.0032958984375
0.003662109375
-0.0069580078125
0.009521484375
-0.0146484375
0.01904296875
-0.019775390625
0.0208740234375
-0.010986328125
0.0106201171875
0.0032958984375
0.0003662109375
0.0087890625
-0.0018310546875
0.0076904296875
-0.002197265625
0.0
0.0
0.00146484375
-0.002197265625
0.003662109375
-0.0054931640625
0.000732421875
-0.0010986328125
-0.00146484375
0.0003662109375
0.000732421875
0.000732421875
-0.002197265625
0.002197265625
-0.0029296875
0.00146484375
0.002197265625
-0.00146484375
-0.0040283203125
0.0
-0.0054931640625
0.006591796875
0.0
0.0018310546875
0.000732421875
-0.000732421875
0.0040283203125
-0.00439453125
0.003662109375
-0.005859375
-0.0029296875
0.0
-0.0087890625
0.002197265625
0.0150146484375
0.0032958984375
0.0157470703125
0.0003662109375
-0.0087890625
-0.003662109375
-0.0084228515625
-0.0084228515625
-0.0047607421875
-0.0040283203125
-0.0018310546875
0.00146484375
-0.00439453125
0.0054931640625
-0.013916015625
0.0146484375
-0.02197265625
0.016845703125
-0.0040283203125
0.00146484375
0.0142822265625
-0.0106201171875
0.0120849609375
-0.003662109375
0.0054931640625
-0.0003662109375
0.0091552734375
-0.003662109375
0.006591796875
-0.00439453125
0.0025634765625
-0.0040283203125
0.003662109375
-0.0029296875
-0.0010986328125
-0.0003662109375
-0.002197265625
0.0047607421875
-0.005859375
0.005859375
-0.002197265625
0.002197265625
0.0029296875
-0.002197265625
-0.0018310546875
0.0018310546875
-0.0047607421875
0.008056640625
0.0040283203125
-0.000732421875
0.0040283203125
-0.0029296875
0.000732421875
-0.0029296875
0.0091552734375
-0.00732421875
0.0025634765625
-0.003662109375
-0.0135498046875
0.0054931640625
0.0084228515625
-0.0084228515625
0.017578125
-0.0010986328125
-0.0018310546875
0.003662109375
0.0003662109375
-0.013916015625
-0.000732421875
-0.0018310546875
-0.003662109375
0.0032958984375
-0.0032958984375
0.005859375
-0.0135498046875
0.0106201171875
-0.02197265625
0.01611328125
-0.0076904296875
0.005859375
0.008056640625
-0.0047607421875
0.0091552734375
-0.00146484375
0.0003662109375
0.002197265625
-0.0010986328125
0.00439453125
-0.0003662109375
0.0003662109375
0.0040283203125
-0.002197265625
0.0029296875
-0.0018310546875
-0.00146484375
-0.0003662109375
0.0029296875
-0.000732421875
0.0054931640625
-0.00439453125
0.00732421875
-0.0054931640625
0.0032958984375
-0.0032958984375
0.0054931640625
-0.0029296875
0.00146484375
0.002197265625
0.00439453125
-0.000732421875
0.0098876953125
-0.0076904296875
0.0062255859375
-0.008056640625
0.0047607421875
-0.0062255859375
0.0029296875
-0.0054931640625
0.0054931640625
-0.009521484375
0.0267333984375
-0.006591796875
0.0135498046875
0.005126953125
-0.0128173828125
-0.0054931640625
-0.00439453125
-0.012451171875
0.0
-0.0062255859375
0.0040283203125
-0.006591796875
0.00146484375
-0.0025634765625
-0.0113525390625
0.0025634765625
-0.01611328125
0.0087890625
-0.0047607421875
-0.0010986328125
0.01318359375
-0.012451171875
0.016845703125
-0.01171875
0.006591796875
-0.0047607421875
0.0069580078125
-0.0040283203125
0.0040283203125
-0.003662109375
0.0054931640625
-0.0047607421875
0.0040283203125
-0.0054931640625
-0.085693359375
0.13037109375
0.006591796875
0.047607421875
0.113525390625
-0.06005859375
0.0087890625
-0.062255859375
-0.01904296875
-0.0860595703125
-0.009521484375
-0.00146484375
-0.0128173828125
0.0018310546875
-0.008056640625
-0.0010986328125
-0.01318359375
-0.0062255859375
-0.0245361328125
0.005126953125
-0.013916015625
0.0216064453125
0.0
0.0347900390625
0.0040283203125
0.0252685546875
-0.002197265625
0.0087890625
-0.00146484375
0.0018310546875
0.0032958984375
-0.005126953125
0.002197265625
-0.000732421875
-0.0032958984375
0.0025634765625
-0.0029296875
0.0029296875
0.0
0.0010986328125
0.002197265625
-0.0029296875
0.0040283203125
-0.00146484375
0.00146484375
-0.00146484375
0.000732421875
0.0003662109375
-0.005859375
0.005126953125
-0.0062255859375
0.00439453125
-0.0010986328125
0.0003662109375
0.0010986328125
0.0040283203125
-0.00146484375
0.0047607421875
-0.0003662109375
-0.002197265625
-0.002197265625
0.002197265625
-0.0091552734375
0.008056640625
-0.0084228515625
-0.0062255859375
-0.027099609375
0.0421142578125
-0.000732421875
0.0289306640625
0.0179443359375
-0.0340576171875
-0.0098876953125
-0.005859375
-0.0087890625
0.005859375
-0.0084228515625
0.005859375
-0.0091552734375
0.009521484375
-0.0150146484375
0.0113525390625
-0.0179443359375
0.013916015625
-0.0032958984375
0.002197265625
0.012451171875
-0.006591796875
0.0084228515625
-0.0003662109375
-0.0018310546875
0.00439453125
0.0047607421875
-0.0010986328125
0.003662109375
-0.00146484375
0.0025634765625
0.00146484375
0.00732421875
-0.00439453125
0.0040283203125
-0.0003662109375
0.000732421875
0.0018310546875
0.0025634765625
-0.0010986328125
0.00439453125
-0.00146484375
0.0003662109375
-0.00146484375
-0.0032958984375
0.0069580078125
0.0
0.003662109375
0.012451171875
-0.0106201171875
0.0084228515625
-0.0087890625
0.00146484375
-0.002197265625
0.00146484375
-0.0032958984375
0.0238037109375
-0.0201416015625
-0.00732421875
0.021240234375
-0.0333251953125
0.0322265625
-0.0040283203125
-0.010986328125
-0.0128173828125
-0.000732421875
-0.0135498046875
0.009521484375
-0.0098876953125
0.005859375
-0.012451171875
0.00439453125
-0.0172119140625
0.0091552734375
-0.012451171875
0.0025634765625
0.0084228515625
-0.0091552734375
0.017578125
-0.0128173828125
0.0164794921875
-0.010986328125
0.01171875
-0.0106201171875
0.01611328125
-0.0164794921875
0.0128173828125
-0.0142822265625
0.003662109375
-0.0047607421875
0.0062255859375
-0.0029296875
0.005859375
-0.0040283203125
0.0076904296875
-0.0029296875
0.0040283203125
-0.0018310546875
0.00439453125
0.0003662109375
0.0062255859375
-0.0018310546875
0.00439453125
-0.0010986328125
0.00146484375
0.0010986328125
-0.0032958984375
0.0040283203125
0.0040283203125
0.0054931640625
0.0029296875
-0.0010986328125
0.0040283203125
-0.0076904296875
0.0032958984375
-0.0062255859375
-0.003662109375
0.0025634765625
-0.0142822265625
0.0054931640625
-0.021240234375
0.03955078125
0.0172119140625
0.0040283203125
0.019775390625
-0.0413818359375
-0.000732421875
-0.0135498046875
-0.00439453125
0.0
-0.0069580078125
0.0076904296875
-0.0054931640625
0.006591796875
-0.0150146484375
0.0135498046875
-0.021240234375
0.016845703125
-0.0025634765625
0.00146484375
0.0179443359375
-0.0106201171875
0.008056640625
-0.005126953125
0.00146484375
0.0040283203125
0.005126953125
-0.002197265625
0.0062255859375
-0.005859375
0.0047607421875
-0.00439453125
0.00146484375
-0.0018310546875
-0.002197265625
0.0047607421875
-0.0032958984375
0.0025634765625
-0.0018310546875
0.0025634765625
-0.0025634765625
0.0003662109375
-0.0010986328125
0.0
-0.0029296875
0.0010986328125
0.0
0.0
0.0010986328125
0.00146484375
-0.006591796875
0.0029296875
-0.0029296875
0.002197265625
0.0032958984375
-0.0018310546875
0.00146484375
0.0003662109375
-0.0040283203125
0.0018310546875
-0.00439453125
0.0032958984375
-0.003662109375
0.002197265625
-0.01318359375
0.0010986328125
-0.0208740234375
0.0369873046875
0.01318359375
0.0069580078125
0.0260009765625
-0.0406494140625
-0.0029296875
-0.01171875
-0.0025634765625
-0.000732421875
-0.006591796875
0.003662109375
-0.0106201171875
0.0087890625
-0.01318359375
0.010986328125
-0.02197265625
0.0142822265625
-0.003662109375
0.0018310546875
0.013916015625
-0.0091552734375
0.0128173828125
-0.005859375
-0.0003662109375
0.002197265625
-0.0003662109375
0.0047607421875
0.005126953125
-0.0010986328125
0.002197265625
-0.002197265625
0.0029296875
0.0
-0.0029296875
0.0047607421875
-0.0069580078125
0.00732421875
-0.0069580078125
0.0054931640625
-0.0018310546875
0.0047607421875
0.0
0.000732421875
-0.0010986328125
0.0003662109375
-0.00146484375
0.0032958984375
-0.000732421875
0.0029296875
0.0003662109375
0.0018310546875
0.00146484375
-0.0029296875
0.000732421875
0.0
-0.003662109375
0.0032958984375
-0.0003662109375
0.000732421875
0.028564453125
-0.006591796875
0.000732421875
0.01318359375
-0.0289306640625
0.017578125
-0.0018310546875
-0.0113525390625
-0.0010986328125
-0.0062255859375
-0.0047607421875
0.002197265625
-0.00146484375
0.0018310546875
-0.006591796875
0.0040283203125
-0.0157470703125
0.0098876953125
-0.0091552734375
0.0018310546875
0.010986328125
-0.0098876953125
0.021240234375
-0.0142822265625
0.0087890625
-0.008056640625
0.0025634765625
0.0010986328125
0.0076904296875
-0.008056640625
0.0098876953125
-0.0091552734375
0.005859375
-0.00732421875
-0.000732421875
-0.003662109375
-0.003662109375
0.0
-0.00146484375
-0.0003662109375
0.000732421875
0.000732421875
0.0018310546875
-0.0018310546875
0.0010986328125
-0.0003662109375
-0.0040283203125
0.0029296875
-0.0018310546875
0.0054931640625
0.00146484375
0.002197265625
0.003662109375
-0.0040283203125
0.00439453125
-0.0040283203125
-0.0003662109375
-0.00146484375
-0.0018310546875
0.0003662109375
0.0164794921875
-0.02783203125
-0.010986328125
0.02783203125
-0.0186767578125
0.0355224609375
0.0098876953125
-0.029296875
-0.002197265625
-0.01171875
-0.0025634765625
-0.002197265625
0.0029296875
-0.002197265625
-0.0062255859375
0.0040283203125
-0.0186767578125
0.0142822265625
-0.0146484375
0.0069580078125
0.0054931640625
-0.0054931640625
0.015380859375
-0.01025390625
-0.05419921875
0.08642578125
-0.029296875
0.166656494140625
0.084228515625
-0.0186767578125
0.046142578125
-0.192657470703125
-0.0091552734375
-0.104736328125
0.003662109375
-0.01171875
-0.00146484375
-0.0098876953125
-0.003662109375
-0.0113525390625
-0.0069580078125
-0.0128173828125
-0.0164794921875
0.003662109375
-0.0120849609375
0.0362548828125
-0.005859375
0.0498046875
-0.00439453125
0.03369140625
0.0003662109375
0.0106201171875
0.00439453125
-0.00146484375
0.002197265625
-0.005859375
0.002197265625
-0.0025634765625
0.0025634765625
-0.0010986328125
-0.0003662109375
-0.0018310546875
0.002197265625
-0.0018310546875
0.0003662109375
-0.000732421875
-0.01904296875
0.0091552734375
-0.0047607421875
0.0087890625
0.0274658203125
-0.005126953125
0.0146484375
-0.0194091796875
0.000732421875
-0.0146484375
0.0032958984375
-0.0032958984375
-0.0025634765625
0.0018310546875
-0.0087890625
0.0091552734375
-0.01904296875
0.0146484375
-0.015380859375
0.0120849609375
0.0076904296875
-0.0047607421875
0.017578125
-0.0084228515625
0.0128173828125
-0.005126953125
0.0087890625
-0.0054931640625
0.00732421875
-0.0032958984375
0.00732421875
-0.00439453125
0.0084228515625
-0.0047607421875
0.00439453125
-0.0047607421875
0.00439453125
-0.0032958984375
0.0062255859375
-0.0084228515625
0.008056640625
-0.0106201171875
0.0029296875
0.0003662109375
0.0025634765625
-0.000732421875
0.0069580078125
-0.0087890625
0.0047607421875
-0.01025390625
0.008056640625
-0.01025390625
0.003662109375
-0.0062255859375
-0.0450439453125
0.024169921875
-0.0443115234375
0.0263671875
