0.51751708984375
0.347198486328125
0.50653076171875
0.329620361328125
-0.0208740234375
-0.0340576171875
-0.01611328125
-0.03369140625
-0.0135498046875
-0.03662109375
-0.018310546875
-0.034423828125
-0.0164794921875
-0.028564453125
-0.0106201171875
-0.0311279296875
-0.0113525390625
-0.0296630859375
-0.0142822265625
-0.0234375
-0.0146484375
-0.0205078125
-0.015380859375
-0.0179443359375
-0.013214111328125
-0.0186767578125
-0.011016845703125
-0.0223388671875
-0.010986328125
-0.025634765625
-0.01025390625
-0.0234375
-0.0084228515625
-0.024200439453125
-0.008056640625
-0.023468017578125
-0.0106201171875
-0.0201416015625
-0.0120849609375
-0.016845703125
-0.006591796875
-0.0146484375
-0.0040283203125
-0.0157470703125
-0.00732421875
-0.0142822265625
-0.0040283203125
-0.01611328125
0.0025634765625
-0.0234375
-0.0040283203125
-0.010986328125
-0.0106201171875
0.008056640625
-0.0076904296875
0.005126953125
-0.0069580078125
-0.0029296875
-0.00439453125
-0.00439453125
-0.0069580078125
-0.008056640625
-0.0084228515625
0.0087890625
-0.00732421875
0.0113525390625
-0.003662109375
-0.0106201171875
-0.003662109375
-0.0076904296875
-0.0054931640625
-0.0025634765625
-0.00439453125
-0.0025634765625
-0.005126953125
-0.0025634765625
-0.002197265625
0.00146484375
-0.0032958984375
0.0120849609375
-0.0062255859375
0.03076171875
-0.0018310546875
0.0377197265625
0.000732421875
0.01611328125
-0.0029296875
0.003662109375
-0.0018310546875
-0.00146484375
-0.00146484375
-0.01611328125
-0.003662109375
-0.0186767578125
-0.0054931640625
-0.01611328125
-0.01025390625
-0.0172119140625
-0.0113525390625
-0.01611328125
-0.012451171875
-0.0142822265625
-0.0120849609375
-0.015380859375
-0.01318359375
-0.0135498046875
-0.0146484375
-0.0128173828125
-0.015380859375
-0.0128173828125
-0.0142822265625
-0.0120849609375
-0.0091552734375
-0.01171875
-0.005859375
-0.025634765625
-0.0054931640625
-0.0230712890625
-0.0135498046875
0.0087890625
-0.0142822265625
0.0084228515625
-0.0084228515625
-0.0047607421875
-0.009521484375
-0.0076904296875
-0.0113525390625
-0.0076904296875
-0.0172119140625
0.0062255859375
-0.0179443359375
0.0146484375
-0.012451171875
-0.006591796875
-0.0106201171875
-0.0150146484375
-0.0106201171875
-0.005126953125
-0.0087890625
-0.005126953125
-0.010986328125
-0.0029296875
-0.0106201171875
-0.006591796875
-0.002197265625
-0.01025390625
-0.0040283203125
-0.0091552734375
-0.0054931640625
-0.0098876953125
-0.005126953125
-0.01025390625
-0.0076904296875
-0.0047607421875
-0.005859375
0.0
-0.0062255859375
-0.0018310546875
-0.0076904296875
-0.0054931640625
-0.0025634765625
-0.005126953125
-0.0003662109375
-0.003662109375
-0.0032958984375
-0.0029296875
-0.0010986328125
-0.002197265625
0.0
-0.0040283203125
-0.0003662109375
-0.0047607421875
0.0
-0.0040283203125
-0.0040283203125
-0.003662109375
-0.0025634765625
-0.0032958984375
-0.0025634765625
-0.0018310546875
-0.002197265625
-0.0084228515625
0.0076904296875
-0.0238037109375
0.0062255859375
-0.0098876953125
-0.002197265625
0.013916015625
-0.002197265625
0.0076904296875
0.0010986328125
-0.0010986328125
0.000732421875
0.0018310546875
-0.00146484375
0.000732421875
-0.0029296875
0.013916015625
-0.0010986328125
0.0157470703125
0.00439453125
-0.015380859375
0.0025634765625
-0.0164794921875
-0.0010986328125
-0.0032958984375
0.0
-0.0047607421875
0.000732421875
-0.005859375
0.000732421875
-0.006591796875
0.0003662109375
-0.006591796875
-0.0003662109375
-0.0062255859375
-0.000732421875
-0.0040283203125
0.0003662109375
-0.005126953125
-0.000732421875
-0.00146484375
-0.0003662109375
0.0069580078125
0.002197265625
0.0003662109375
0.0062255859375
-0.0062255859375
0.0054931640625
-0.002197265625
0.00146484375
-0.0010986328125
0.0025634765625
0.00146484375
0.0054931640625
0.0029296875
0.002197265625
0.0047607421875
-0.0018310546875
0.0062255859375
0.0
0.005126953125
-0.0010986328125
0.0069580078125
0.0
0.005859375
-0.0018310546875
0.005859375
-0.0062255859375
0.0062255859375
0.0010986328125
-0.00732421875
0.0040283203125
-0.003662109375
-0.002197265625
0.02197265625
-0.005859375
0.0223388671875
-0.00439453125
0.00732421875
-0.000732421875
-0.0029296875
-0.0003662109375
-0.002197265625
-0.0029296875
0.0128173828125
-0.003662109375
0.022705078125
0.0003662109375
0.0040283203125
0.0
-0.01025390625
-0.002197265625
-0.0054931640625
-0.00146484375
-0.0018310546875
0.0
0.0032958984375
-0.000732421875
0.009521484375
-0.006591796875
0.016845703125
-0.005126953125
0.025634765625
-0.0029296875
0.029296875
-0.005126953125
0.029296875
-0.0062255859375
0.0252685546875
-0.0054931640625
0.0179443359375
-0.0032958984375
0.009521484375
-0.004425048828125
0.00439453125
-0.004791259765625
0.0076904296875
-0.002197265625
0.0194091796875
-0.00146484375
0.030029296875
-0.0047607421875
0.0216064453125
-0.005126953125
0.009521484375
-0.0032958984375
-0.0018310546875
-0.0047607421875
-0.009521484375
-0.006591796875
-0.0113525390625
-0.0029296875
-0.01611328125
0.000732421875
-0.0157470703125
-0.0029296875
-0.0084228515625
-0.0018310546875
-0.0172119140625
0.0003662109375
-0.019775390625
-0.0040283203125
0.0029296875
-0.006591796875
0.002197265625
-0.0054931640625
-0.013916015625
-0.0025634765625
-0.0205078125
-0.0040283203125
-0.021240234375
-0.003662109375
-0.017578125
-0.003662109375
-0.002197265625
-0.0025634765625
-0.018310546875
-0.0003662109375
-0.04248046875
-0.0032958984375
-0.031494140625
0.0010986328125
-0.029296875
0.0040283203125
-0.0296630859375
0.0062255859375
-0.0289306640625
0.005859375
-0.0340576171875
0.00439453125
-0.0377197265625
0.0069580078125
-0.038482666015625
0.008056640625
-0.035919189453125
0.0084228515625
-0.0355224609375
0.0054931640625
-0.03369140625
0.0029296875
-0.025634765625
0.019805908203125
-0.0406494140625
0.017608642578125
-0.0318603515625
0.002197265625
-0.0164794921875
0.0128173828125
-0.024169921875
0.013916015625
-0.017578125
0.01025390625
-0.00732421875
0.0091552734375
-0.0087890625
0.0018310546875
-0.037353515625
0.0
-0.068115234375
0.0025634765625
-0.0732421875
0.0018310546875
-0.0538330078125
0.0296630859375
-0.039581298828125
0.04541015625
-0.041412353515625
0.019775390625
-0.03662109375
0.0003662109375
-0.0179443359375
-0.016845703125
-0.00439453125
-0.01904296875
-0.0076904296875
-0.015380859375
-0.013916015625
-0.013916015625
-0.0146484375
-0.012451171875
-0.01171875
-0.0205078125
0.008056640625
-0.01611328125
0.0
-0.0084228515625
-0.0172119140625
-0.00732421875
-0.0047607421875
-0.005859375
0.000732421875
-0.0098876953125
0.0032958984375
-0.0084228515625
0.005859375
-0.000732421875
0.0054931640625
0.005859375
0.0054931640625
0.0146484375
0.0032958984375
0.0208740234375
-0.006591796875
0.0201416015625
-0.0087890625
0.024169921875
-0.012451171875
0.0303955078125
-0.0260009765625
0.03076171875
-0.0340576171875
0.0260009765625
-0.040283203125
0.00732421875
-0.0362548828125
0.0084228515625
-0.0413818359375
0.044677734375
-0.0699462890625
0.1043701171875
-0.133697509765625
0.197052001953125
-0.100006103515625
0.216094970703125
-0.0091552734375
0.144287109375
0.0
0.0787353515625
0.0
0.025634765625
0.0
-0.0069580078125
0.0
-0.0223388671875
0.0
-0.029296875
0.0
-0.037353515625
0.0
-0.044677734375
0.0
-0.0439453125
0.0
-0.03955078125
0.0
-0.0406494140625
0.00439453125
-0.0472412109375
0.128936767578125
-0.0523681640625
0.306915283203125
-0.056060791015625
0.433990478515625
-0.059356689453125
0.48858642578125
-0.063720703125
0.39556884765625
-0.0582275390625
0.221954345703125
-0.0498046875
0.0845947265625
-0.0439453125
0.02490234375
-0.0377197265625
0.0
-0.0362548828125
-0.0106201171875
-0.034423828125
-0.0164794921875
-0.0362548828125
-0.018310546875
-0.032958984375
-0.021240234375
-0.03076171875
-0.01904296875
-0.03076171875
-0.0146484375
-0.02490234375
-0.0194091796875
-0.024169921875
-0.016845703125
-0.022369384765625
-0.0106201171875
-0.012115478515625
-0.0142822265625
-0.0062255859375
-0.015380859375
-0.0054931640625
-0.0113525390625
-0.0025634765625
-0.0106201171875
-0.000732421875
-0.0164794921875
0.002197265625
-0.021240234375
0.0054931640625
-0.02490234375
0.006591796875
-0.030059814453125
0.005126953125
-0.027862548828125
0.007354736328125
-0.025634765625
0.012847900390625
-0.0362548828125
0.01318359375
-0.03369140625
0.0069580078125
-0.0135498046875
0.0032958984375
-0.01611328125
0.0062255859375
-0.0238037109375
0.010986328125
-0.024169921875
0.0084228515625
-0.017578125
0.0018310546875
0.0
-0.0010986328125
0.0113525390625
0.00146484375
0.0018310546875
-0.000732421875
0.0029296875
-0.0087890625
0.0186767578125
-0.0098876953125
0.021240234375
-0.0087890625
0.0205078125
-0.005859375
0.0135498046875
-0.0047607421875
0.0047607421875
-0.0040283203125
-0.0018310546875
0.0010986328125
-0.010986328125
0.0040283203125
-0.0128173828125
0.002197265625
-0.0047607421875
0.0
-0.0025634765625
0.0
-0.0054931640625
-0.002197265625
-0.005126953125
-0.0010986328125
-0.0054931640625
0.0
-0.005859375
0.00146484375
-0.005126953125
0.0010986328125
-0.0047607421875
-0.0010986328125
-0.003662109375
-0.0018310546875
-0.000732421875
-0.0047607421875
0.000732421875
-0.0018310546875
-0.0018310546875
0.000732421875
-0.005126953125
0.0010986328125
-0.0054931640625
-0.0010986328125
-0.000732421875
-0.0010986328125
-0.002197265625
0.0010986328125
-0.010986328125
-0.000732421875
-0.0003662109375
-0.0032958984375
0.0128173828125
-0.00439453125
0.005859375
-0.0032958984375
-0.0003662109375
-0.0040283203125
-0.0032958984375
-0.004791259765625
-0.005859375
-0.006622314453125
0.013916015625
-0.0054931640625
0.02197265625
0.0
-0.0054931640625
-0.00146484375
-0.0098876953125
-0.00439453125
-0.0003662109375
-0.0047607421875
-0.0025634765625
-0.0040283203125
-0.0018310546875
-0.00439453125
-0.0025634765625
-0.0062255859375
-0.006591796875
-0.005126953125
-0.006591796875
-0.002197265625
-0.0029296875
-0.0025634765625
-0.0003662109375
-0.006591796875
0.00146484375
-0.0054931640625
0.0047607421875
-0.0029296875
0.0018310546875
-0.00439453125
-0.0047607421875
-0.003662109375
-0.00439453125
-0.0029296875
0.00439453125
-0.005126953125
0.0087890625
-0.005859375
0.005126953125
-0.00439453125
0.0025634765625
-0.0029296875
0.00439453125
-0.0025634765625
0.0047607421875
-0.002197265625
0.0003662109375
-0.0018310546875
-0.0040283203125
-0.0018310546875
-0.0054931640625
-0.002197265625
-0.0047607421875
-0.003662109375
-0.00732421875
-0.000732421875
-0.0135498046875
0.0025634765625
-0.006591796875
-0.005126953125
0.008056640625
-0.008056640625
0.005859375
-0.006591796875
0.0003662109375
-0.003662109375
-0.0047607421875
-0.000732421875
-0.01171875
-0.005126953125
0.003662109375
-0.005859375
0.0157470703125
-0.0010986328125
-0.0069580078125
0.00146484375
-0.015380859375
-0.000732421875
-0.00732421875
-0.000732421875
-0.0069580078125
-0.002197265625
-0.00439453125
-0.00439453125
-0.0062255859375
-0.002197265625
-0.009521484375
-0.0025634765625
-0.0087890625
-0.0010986328125
-0.0087890625
-0.00146484375
-0.0069580078125
-0.003662109375
-0.0003662109375
-0.002197265625
0.0010986328125
-0.00146484375
-0.0032958984375
-0.00146484375
-0.00439453125
-0.00146484375
-0.0040283203125
-0.0018310546875
-0.005126953125
-0.005859375
-0.0025634765625
-0.0054931640625
-0.0018310546875
-0.006591796875
-0.000732421875
-0.006591796875
-0.000732421875
-0.003662109375
-0.003662109375
-0.0040283203125
-0.0040283203125
-0.0029296875
-0.0047607421875
-0.0029296875
-0.00439453125
-0.000732421875
-0.0040283203125
-0.0025634765625
-0.00439453125
-0.00146484375
-0.016845703125
0.0018310546875
-0.012451171875
-0.002197265625
0.009521484375
-0.00439453125
0.0084228515625
-0.0032958984375
-0.000732421875
-0.00146484375
-0.0054931640625
0.0
-0.0084228515625
-0.000732421875
-0.005126953125
-0.0040283203125
0.006591796875
0.0010986328125
-0.005859375
0.003662109375
-0.0172119140625
0.0
-0.005859375
0.002197265625
-0.006591796875
0.0018310546875
-0.0087890625
0.00146484375
-0.0076904296875
0.0010986328125
-0.0087890625
0.000732421875
-0.005859375
0.0010986328125
-0.0069580078125
0.0
-0.0098876953125
0.000732421875
-0.0040283203125
-0.0018310546875
0.0
-0.002197265625
0.0
-0.0010986328125
-0.0003662109375
-0.0010986328125
-0.0054931640625
0.0003662109375
-0.0087890625
0.0010986328125
-0.005859375
0.0003662109375
-0.00439453125
-0.0003662109375
-0.0029296875
0.000732421875
-0.003662109375
-0.000732421875
-0.0025634765625
0.00146484375
-0.002197265625
0.0025634765625
-0.005126953125
0.0029296875
-0.0040283203125
0.003662109375
-0.0029296875
0.0003662109375
-0.0032958984375
0.0029296875
-0.0146484375
0.0040283203125
-0.01171875
-0.00146484375
0.008056640625
-0.0054931640625
0.0091552734375
-0.0047607421875
0.0029296875
-0.0010986328125
-0.000732421875
0.0003662109375
-0.00146484375
-0.0032958984375
0.0040283203125
-0.00732421875
0.0087890625
0.0003662109375
-0.0032958984375
0.003662109375
-0.0076904296875
-0.000732421875
0.0010986328125
0.0
-0.002197265625
-0.00146484375
0.0003662109375
-0.002197265625
0.0032958984375
-0.0003662109375
0.0025634765625
0.002197265625
0.009521484375
0.002197265625
0.0113525390625
0.002197265625
0.013916015625
0.0025634765625
0.0146484375
0.00146484375
0.00732421875
0.0029296875
-0.0032958984375
0.0040283203125
-0.0084228515625
-0.0010986328125
-0.0069580078125
-0.00439453125
-0.008056640625
-0.0032958984375
-0.00732421875
-0.00439453125
-0.006591796875
-0.005126953125
-0.005126953125
-0.0040283203125
-0.0018310546875
-0.00439453125
0.0018310546875
-0.003662109375
0.000732421875
-0.0025634765625
-0.0018310546875
-0.0025634765625
-0.000732421875
-0.0010986328125
-0.0047607421875
0.0003662109375
-0.013916015625
0.0018310546875
-0.0208740234375
0.00146484375
-0.012451171875
-0.0029296875
-0.0010986328125
-0.005859375
-0.002197265625
-0.0010986328125
-0.0098876953125
-0.0003662109375
-0.0142822265625
-0.0025634765625
-0.015411376953125
-0.0029296875
0.0010986328125
-0.0018310546875
0.003662109375
0.0025634765625
-0.022003173828125
0.0025634765625
-0.018310546875
-0.0010986328125
-0.0062255859375
-0.0025634765625
-0.005859375
-0.00146484375
-0.005126953125
-0.0010986328125
-0.0047607421875
0.0003662109375
-0.005126953125
0.0003662109375
-0.0062255859375
0.0010986328125
-0.0069580078125
0.0025634765625
-0.005126953125
-0.0018310546875
0.0003662109375
-0.00146484375
0.0025634765625
-0.00146484375
0.0010986328125
-0.0025634765625
0.0018310546875
-0.0010986328125
0.0018310546875
-0.0003662109375
0.000732421875
-0.0003662109375
0.0025634765625
-0.0018310546875
0.005126953125
-0.000732421875
0.0054931640625
-0.000732421875
0.00732421875
-0.0029296875
0.012451171875
-0.005126953125
0.0120849609375
-0.0062255859375
0.01171875
-0.006591796875
0.014312744140625
-0.006591796875
0.014312744140625
-0.008056640625
0.005859375
-0.0040283203125
0.0010986328125
0.0
0.0146484375
-0.006591796875
0.0205078125
-0.006591796875
0.012451171875
-0.0010986328125
0.0047607421875
-0.0010986328125
0.0010986328125
-0.0010986328125
0.000732421875
-0.0018310546875
0.0201416015625
0.00146484375
0.0087890625
0.0032958984375
-0.01171875
0.0029296875
0.0003662109375
0.0040283203125
0.00146484375
0.0029296875
0.002197265625
0.000732421875
0.0047607421875
0.0018310546875
0.0025634765625
0.003662109375
0.0018310546875
0.0029296875
0.000732421875
0.0025634765625
-0.0018310546875
0.00146484375
0.00146484375
-0.0003662109375
0.0054931640625
-0.00146484375
0.006591796875
0.0
0.005859375
-0.000732421875
0.0040283203125
-0.002197265625
0.003662109375
0.0003662109375
0.0040283203125
0.000732421875
0.005126953125
0.0
0.00732421875
-0.0010986328125
0.00732421875
-0.0018310546875
0.0062255859375
-0.0003662109375
0.0032958984375
0.0018310546875
0.0025634765625
0.0029296875
0.00146484375
0.0010986328125
-0.0003662109375
0.0018310546875
-0.00146484375
0.0032958984375
-0.0084228515625
0.005859375
-0.01171875
0.002197265625
0.0076904296875
-0.0018310546875
0.018310546875
0.0
0.0091552734375
0.002197265625
0.003662109375
0.0029296875
0.0
0.0003662109375
-0.00146484375
-0.0018310546875
0.0194091796875
0.0010986328125
0.0084228515625
0.0040283203125
-0.0172119140625
0.0010986328125
-0.0047607421875
0.000732421875
0.0010986328125
0.0018310546875
0.0
0.003662109375
-0.0003662109375
0.0029296875
0.0010986328125
0.002197265625
0.0
0.003662109375
-0.0029296875
0.00146484375
-0.0029296875
0.0010986328125
-0.000732421875
0.0010986328125
0.0040283203125
-0.00146484375
0.005859375
-0.00146484375
0.0032958984375
-0.0010986328125
0.002197265625
0.000732421875
0.0018310546875
0.0010986328125
0.003662109375
0.0003662109375
0.0029296875
0.000732421875
0.0010986328125
0.0018310546875
0.0010986328125
0.002197265625
0.000732421875
0.000732421875
0.0003662109375
0.0003662109375
0.0003662109375
0.000732421875
0.0
0.0003662109375
0.000732421875
-0.0003662109375
0.0010986328125
-0.0003662109375
-0.0025634765625
0.002197265625
-0.012451171875
0.003662109375
-0.0018310546875
-0.002197265625
0.015380859375
-0.0040283203125
0.01025390625
-0.000732421875
0.002197265625
-0.0003662109375
-0.00146484375
-0.0003662109375
-0.0018310546875
-0.00146484375
0.00439453125
-0.0025634765625
0.0128173828125
-0.0003662109375
-0.0029296875
-0.000732421875
-0.010986328125
-0.002197265625
-0.0003662109375
-0.00146484375
0.0
-0.0003662109375
-0.0010986328125
0.0010986328125
-0.00146484375
0.0003662109375
-0.00146484375
0.0003662109375
-0.00439453125
0.0025634765625
-0.0054931640625
0.0010986328125
-0.0032958984375
-0.0018310546875
0.0010986328125
-0.0018310546875
0.005859375
-0.0025634765625
0.0032958984375
-0.00146484375
0.0
0.000732421875
-0.0010986328125
0.0
-0.0010986328125
-0.0003662109375
0.0003662109375
0.000732421875
-0.00146484375
-0.0003662109375
-0.0003662109375
-0.0029296875
0.002197265625
0.0
0.0003662109375
0.00146484375
-0.00146484375
-0.0010986328125
-0.0003662109375
-0.00146484375
0.0018310546875
-0.0010986328125
0.002197265625
-0.000732421875
0.0010986328125
-0.000732421875
-0.003662109375
0.002197265625
-0.0098876953125
0.00146484375
-0.002197265625
-0.003662109375
0.0113525390625
-0.003662109375
0.009521484375
-0.00146484375
0.0025634765625
-0.000732421875
0.000732421875
-0.00146484375
-0.0010986328125
-0.0018310546875
0.00439453125
-0.0029296875
0.012451171875
0.0018310546875
-0.005126953125
0.00146484375
-0.0128173828125
-0.0010986328125
-0.0018310546875
-0.0003662109375
-0.000732421875
-0.0018310546875
-0.000732421875
0.0003662109375
-0.0018310546875
0.0
-0.0010986328125
0.000732421875
-0.002197265625
0.0003662109375
-0.003662109375
0.0
-0.0029296875
-0.0003662109375
0.0025634765625
-0.002197265625
0.0062255859375
-0.00146484375
0.0032958984375
-0.0003662109375
0.0010986328125
0.0003662109375
-0.000732421875
-0.0018310546875
0.0
-0.0018310546875
0.002197265625
0.0003662109375
0.0
0.0003662109375
-0.002197265625
-0.0003662109375
-0.000732421875
-0.0003662109375
0.000732421875
-0.0029296875
0.00146484375
-0.003662109375
0.00146484375
-0.0018310546875
0.0003662109375
-0.0018310546875
0.0003662109375
0.0
-0.0010986328125
0.0018310546875
-0.0054931640625
0.006591796875
-0.016845703125
0.008056640625
-0.009521484375
0.0025634765625
0.009521484375
0.002197265625
0.0062255859375
0.0054931640625
-0.000732421875
0.00732421875
-0.0029296875
0.005126953125
-0.002197265625
0.0
0.003662109375
-0.0054931640625
0.0201416015625
-0.005126953125
0.012451171875
-0.0010986328125
-0.0018310546875
-0.0029296875
0.00439453125
-0.0032958984375
0.005126953125
-0.0029296875
0.0069580078125
-0.0029296875
0.0062255859375
-0.0029296875
0.0040283203125
-0.0018310546875
0.0029296875
0.0
0.0010986328125
-0.00439453125
0.0003662109375
-0.0047607421875
0.003662109375
-0.0032958984375
0.00732421875
-0.0040283203125
0.0040283203125
-0.0025634765625
0.00146484375
-0.0018310546875
0.0003662109375
-0.0018310546875
0.0
-0.0010986328125
0.002197265625
-0.00146484375
0.0
-0.0010986328125
-0.002197265625
-0.0003662109375
0.00146484375
-0.000732421875
0.002197265625
-0.000732421875
0.0
-0.002197265625
0.000732421875
-0.00146484375
0.0
0.0010986328125
-0.000732421875
-0.000732421875
-0.0018310546875
-0.00146484375
-0.0029296875
0.0018310546875
-0.01318359375
0.0032958984375
-0.01025390625
-0.000732421875
0.0084228515625
-0.003662109375
0.009521484375
-0.0003662109375
0.0025634765625
-0.000732421875
-0.00146484375
0.0
-0.0047607421875
-0.0003662109375
-0.0032958984375
-0.003662109375
0.0087890625
-0.0018310546875
0.0
0.0010986328125
-0.01318359375
0.0018310546875
-0.0069580078125
0.0010986328125
-0.0032958984375
0.00146484375
-0.00439453125
0.0010986328125
-0.003662109375
0.000732421875
-0.00146484375
-0.0010986328125
-0.0018310546875
-0.0018310546875
-0.0018310546875
-0.0003662109375
-0.0029296875
-0.0018310546875
-0.0003662109375
-0.000732421875
0.0025634765625
-0.0010986328125
0.0025634765625
-0.0029296875
0.0010986328125
-0.0032958984375
0.0
-0.0003662109375
-0.0010986328125
-0.002197265625
-0.003662109375
-0.0047607421875
-0.0025634765625
-0.0018310546875
-0.00146484375
-0.00146484375
-0.0010986328125
0.0003662109375
0.000732421875
-0.000732421875
0.00146484375
-0.0029296875
-0.0003662109375
-0.0025634765625
-0.000732421875
-0.002197265625
0.0003662109375
-0.002197265625
0.0018310546875
-0.002197265625
-0.0032958984375
0.0003662109375
-0.0098876953125
0.0029296875
0.0003662109375
-0.00146484375
0.0087890625
-0.0047607421875
0.0062255859375
-0.0032958984375
0.0032958984375
-0.0032958984375
-0.0025634765625
-0.0018310546875
-0.0069580078125
-0.00146484375
0.0106201171875
-0.002197265625
0.016845703125
-0.0003662109375
-0.009521484375
0.000732421875
-0.0150146484375
-0.000732421875
-0.000732421875
-0.0010986328125
-0.002197265625
0.0010986328125
-0.0029296875
-0.000732421875
0.0
-0.0010986328125
-0.002197265625
0.0010986328125
-0.002197265625
0.00146484375
-0.00146484375
0.0010986328125
0.000732421875
-0.0010986328125
0.0047607421875
-0.00146484375
0.006591796875
-0.000732421875
0.0025634765625
0.0
0.0
-0.00146484375
-0.002197265625
-0.002197265625
-0.0029296875
-0.00146484375
-0.000732421875
-0.0018310546875
-0.000732421875
0.002197265625
-0.0018310546875
0.00146484375
-0.0029296875
0.0
-0.003662109375
0.0018310546875
-0.0029296875
0.0010986328125
-0.0018310546875
0.0018310546875
-0.002197265625
0.000732421875
-0.0032958984375
0.00146484375
-0.005859375
0.005126953125
-0.0135498046875
0.005126953125
-0.0047607421875
0.0010986328125
0.01025390625
-0.002197265625
0.0076904296875
-0.00146484375
0.002197265625
-0.0010986328125
0.0003662109375
0.00146484375
-0.0025634765625
-0.0003662109375
0.0054931640625
-0.00146484375
0.0128173828125
0.003662109375
-0.0084228515625
0.0029296875
-0.0150146484375
0.00146484375
-0.002197265625
0.0
0.0003662109375
-0.00146484375
0.0003662109375
-0.0010986328125
0.0003662109375
0.0010986328125
0.0018310546875
0.0003662109375
0.0029296875
-0.0010986328125
0.0018310546875
0.002197265625
0.0010986328125
0.000732421875
0.005126953125
-0.0010986328125
0.0076904296875
-0.00146484375
0.0069580078125
-0.00146484375
0.0047607421875
0.0
0.0032958984375
-0.0003662109375
0.00439453125
0.0
0.003662109375
0.0
0.0047607421875
0.000732421875
0.0029296875
0.0003662109375
0.0010986328125
0.0003662109375
0.0032958984375
0.0032958984375
0.003662109375
0.0029296875
0.0029296875
0.000732421875
0.00146484375
0.0018310546875
0.0018310546875
0.0
0.0010986328125
0.00146484375
-0.0087890625
0.00146484375
-0.006591796875
-0.0003662109375
0.01171875
-0.0025634765625
0.01611328125
-0.0032958984375
0.00732421875
0.00146484375
0.0018310546875
0.0
0.0018310546875
-0.0025634765625
0.0003662109375
-0.0047607421875
0.0179443359375
-0.002197265625
0.00732421875
0.0
-0.013916015625
-0.0029296875
-0.0025634765625
0.0025634765625
-0.00146484375
0.005126953125
-0.0010986328125
0.0
0.000732421875
0.000732421875
-0.002197265625
0.0018310546875
-0.0032958984375
0.000732421875
-0.0018310546875
-0.0010986328125
-0.000732421875
-0.002197265625
0.000732421875
-0.0018310546875
0.003662109375
0.0
0.0040283203125
0.000732421875
0.0003662109375
0.0003662109375
-0.0010986328125
0.0003662109375
-0.000732421875
0.0018310546875
0.0003662109375
0.00146484375
0.0003662109375
-0.0018310546875
0.0010986328125
0.00146484375
0.0003662109375
0.0010986328125
0.0
0.0
0.0
0.0003662109375
-0.00146484375
-0.00146484375
0.0003662109375
0.0018310546875
0.0003662109375
0.0018310546875
-0.0010986328125
0.000732421875
-0.0032958984375
0.002197265625
-0.012451171875
0.0025634765625
-0.0025634765625
-0.000732421875
0.012451171875
-0.0040283203125
0.0091552734375
-0.0010986328125
0.0025634765625
0.0025634765625
-0.002197265625
0.000732421875
-0.0025634765625
-0.003662109375
0.0062255859375
-0.0025634765625
0.013916015625
0.0025634765625
-0.0047607421875
0.003662109375
-0.0146484375
0.0
-0.00439453125
-0.0010986328125
0.0
0.002197265625
-0.002197265625
0.002197265625
-0.0029296875
0.0018310546875
-0.0010986328125
0.0025634765625
-0.002197265625
0.0018310546875
-0.0025634765625
0.0010986328125
-0.0025634765625
-0.0010986328125
0.00146484375
-0.00146484375
0.0054931640625
0.0
0.0018310546875
-0.0029296875
0.0003662109375
-0.00146484375
0.000732421875
0.00146484375
0.0010986328125
0.0003662109375
0.0003662109375
0.000732421875
0.0
-0.0010986328125
0.0010986328125
-0.000732421875
0.0003662109375
0.0003662109375
0.000732421875
0.00146484375
-0.0018310546875
0.0029296875
-0.00146484375
0.0
-0.0003662109375
0.0
-0.0010986328125
0.00146484375
-0.0010986328125
0.000732421875
-0.0069580078125
0.003662109375
-0.0098876953125
0.0025634765625
0.0032958984375
-0.0003662109375
0.01025390625
-0.002197265625
0.005126953125
-0.00146484375
0.00146484375
0.0
-0.0003662109375
0.000732421875
-0.0062255859375
-0.0010986328125
0.0128173828125
-0.005126953125
0.0146484375
0.0
-0.0146484375
0.0029296875
-0.010986328125
0.00146484375
-0.00146484375
0.0010986328125
-0.002197265625
0.0003662109375
-0.002197265625
-0.0003662109375
-0.00146484375
0.00146484375
-0.00146484375
0.0018310546875
-0.00146484375
0.0003662109375
-0.003662109375
0.0018310546875
-0.0025634765625
-0.0003662109375
0.002197265625
-0.0018310546875
0.005126953125
-0.0003662109375
0.0025634765625
0.000732421875
-0.0018310546875
0.0
-0.0003662109375
-0.0003662109375
-0.0003662109375
0.0010986328125
-0.00146484375
-0.0003662109375
0.0010986328125
0.0
0.0003662109375
0.000732421875
0.000732421875
0.0
0.0040283203125
-0.000732421875
0.0003662109375
0.0
-0.0018310546875
0.0010986328125
-0.000732421875
0.0010986328125
-0.0003662109375
-0.0003662109375
0.0010986328125
0.0
-0.003662109375
0.0047607421875
-0.008056640625
0.003662109375
0.0029296875
-0.0018310546875
0.0113525390625
-0.0029296875
0.0076904296875
-0.000732421875
0.0025634765625
-0.00146484375
0.0
-0.0029296875
-0.003662109375
-0.0032958984375
0.010986328125
-0.002197265625
0.0150146484375
0.0029296875
-0.01171875
0.0029296875
-0.0142822265625
0.0018310546875
-0.0040283203125
0.002197265625
-0.00146484375
-0.0010986328125
-0.0018310546875
0.000732421875
-0.00439453125
0.0010986328125
-0.00146484375
-0.00146484375
0.0003662109375
-0.00146484375
-0.00146484375
-0.000732421875
0.0
0.0
0.0029296875
-0.0010986328125
0.0054931640625
-0.0003662109375
0.0040283203125
0.0
0.00146484375
-0.0010986328125
0.0025634765625
-0.0003662109375
0.0029296875
-0.0010986328125
0.0025634765625
-0.0025634765625
0.003662109375
-0.000732421875
0.005859375
0.0010986328125
0.008056640625
0.0010986328125
0.00439453125
0.0018310546875
0.00146484375
0.000732421875
-0.0010986328125
0.0018310546875
-0.00146484375
0.0010986328125
0.00146484375
-0.00146484375
0.0
-0.0010986328125
-0.0010986328125
0.003662109375
-0.0128173828125
0.005859375
-0.008056640625
0.0003662109375
0.01025390625
-0.0029296875
0.009521484375
-0.0003662109375
0.003662109375
0.0010986328125
-0.00146484375
0.0010986328125
-0.0040283203125
0.0003662109375
-0.0018310546875
-0.0003662109375
0.0087890625
0.002197265625
-0.0010986328125
0.000732421875
-0.01025390625
-0.0018310546875
-0.000732421875
-0.002197265625
0.0
-0.0029296875
0.0003662109375
-0.0032958984375
0.0
-0.0032958984375
0.0010986328125
-0.0032958984375
0.00146484375
-0.0032958984375
-0.00146484375
-0.0032958984375
0.0
-0.0029296875
0.00146484375
-0.0040283203125
0.0040283203125
-0.00439453125
0.003662109375
-0.0018310546875
-0.0010986328125
0.0
-0.000732421875
0.00146484375
-0.0010986328125
0.0010986328125
-0.0047607421875
0.0018310546875
-0.0047607421875
0.000732421875
-0.002197265625
-0.00146484375
0.0
-0.000732421875
0.0010986328125
0.00146484375
0.0047607421875
0.002197265625
0.0087890625
-0.0029296875
0.0047607421875
-0.005859375
-0.0025634765625
-0.0040283203125
-0.0062255859375
-0.0010986328125
-0.0062255859375
0.0025634765625
-0.0172119140625
0.0032958984375
-0.0113525390625
0.0
0.0062255859375
-0.0010986328125
0.0054931640625
-0.0010986328125
0.0018310546875
0.00146484375
0.00146484375
0.0032958984375
0.013916015625
0.00146484375
0.0439453125
0.0029296875
0.0362548828125
0.0076904296875
-0.02490234375
0.005859375
-0.0047607421875
0.0003662109375
0.110595703125
-0.0018310546875
0.174713134765625
-0.002197265625
0.165557861328125
0.0
0.140625
0.0047607421875
0.114990234375
0.0047607421875
0.067047119140625
0.003662109375
0.008056640625
0.0032958984375
-0.021270751953125
0.0003662109375
-0.0230712890625
0.0
-0.0186767578125
0.0018310546875
-0.02490234375
0.00146484375
-0.02783203125
-0.00146484375
-0.025634765625
0.0
-0.028564453125
0.0003662109375
-0.028564453125
0.0003662109375
-0.0281982421875
-0.0003662109375
-0.0263671875
-0.0025634765625
-0.022705078125
-0.0003662109375
-0.0216064453125
-0.0003662109375
-0.0216064453125
0.0003662109375
-0.0230712890625
0.0010986328125
-0.0267333984375
0.000732421875
-0.024169921875
0.00146484375
-0.01904296875
0.0
-0.02490234375
0.003662109375
-0.0325927734375
0.005126953125
-0.0223388671875
-0.0003662109375
-0.009521484375
-0.0003662109375
-0.010986328125
0.00439453125
-0.0157470703125
0.0040283203125
-0.016845703125
0.0018310546875
-0.020538330078125
-0.0003662109375
-0.002197265625
0.000732421875
0.002960205078125
0.0054931640625
-0.019073486328125
0.0018310546875
-0.013946533203125
-0.0010986328125
-0.003662109375
-0.0003662109375
0.00146484375
-0.00146484375
0.005859375
-0.0018310546875
0.01025390625
0.0010986328125
0.012847900390625
0.0
0.005523681640625
-0.003662109375
-0.0018310546875
-0.0018310546875
-0.0032958984375
-0.0032958984375
0.0
-0.0040283203125
0.0
-0.0047607421875
-0.000732421875
-0.005859375
0.002197265625
-0.0029296875
-0.0003662109375
-0.0010986328125
-0.0025634765625
-0.0040283203125
0.00146484375
-0.0054931640625
0.002197265625
-0.0010986328125
-0.002960205078125
-0.0018310546875
-0.004425048828125
-0.0040283203125
-0.00146484375
-0.0025634765625
0.0010986328125
-0.0010986328125
0.00146484375
0.0
0.0
-0.000732421875
-0.0018310546875
-0.0010986328125
-0.0047607421875
-0.000732421875
-0.01318359375
0.0025634765625
-0.0186767578125
0.0029296875
-0.008056640625
-0.0025634765625
0.00146484375
-0.0029296875
0.0
-0.0018310546875
-0.0040283203125
-0.00146484375
-0.008056640625
0.0
-0.013916015625
-0.002197265625
0.0040283203125
-0.002197265625
0.01171875
0.003662109375
-0.0142822265625
0.003662109375
-0.0157470703125
0.0003662109375
-0.0062255859375
0.0010986328125
-0.00439453125
-0.0003662109375
-0.0032958984375
0.0003662109375
-0.0054931640625
0.0010986328125
-0.005859375
0.000732421875
-0.0054931640625
0.0010986328125
-0.0054931640625
0.000732421875
-0.00439453125
-0.0010986328125
0.0
-0.0010986328125
0.002197265625
0.00146484375
-0.0003662109375
0.0010986328125
-0.002197265625
0.0018310546875
-0.002197265625
0.0003662109375
-0.0003662109375
0.0
0.000732421875
-0.0010986328125
0.0010986328125
-0.0018310546875
0.0
0.0010986328125
-0.000732421875
-0.0010986328125
0.0
-0.0003662109375
-0.002197265625
0.0003662109375
-0.0018310546875
0.0
0.000732421875
0.002197265625
-0.0029296875
0.00146484375
-0.003662109375
0.0
-0.005126953125
0.0025634765625
-0.0128173828125
0.003662109375
-0.003662109375
-0.002197265625
0.0098876953125
-0.003662109375
0.0069580078125
-0.0003662109375
-0.0010986328125
0.0018310546875
-0.003662109375
0.0
-0.0054931640625
-0.00439453125
0.008056640625
-0.0010986328125
0.0146484375
0.0029296875
-0.012451171875
0.00146484375
-0.0146484375
-0.0003662109375
-0.0029296875
0.00146484375
-0.0032958984375
0.0018310546875
-0.002197265625
-0.0003662109375
-0.0040283203125
0.00146484375
-0.0054931640625
0.0010986328125
-0.006591796875
0.0
-0.0062255859375
0.0003662109375
-0.00439453125
-0.000732421875
0.000732421875
-0.00146484375
0.0025634765625
-0.0018310546875
-0.000732421875
0.0
-0.0029296875
0.0010986328125
-0.00439453125
0.0
-0.0029296875
0.0003662109375
-0.002197265625
0.0
-0.000732421875
-0.0003662109375
0.000732421875
-0.000732421875
-0.0018310546875
0.0003662109375
-0.002197265625
0.0010986328125
-0.0029296875
0.0003662109375
-0.003662109375
-0.0010986328125
-0.00146484375
-0.000732421875
-0.0025634765625
-0.00146484375
-0.0029296875
-0.002197265625
-0.0029296875
0.003662109375
-0.0120849609375
0.0029296875
-0.00439453125
-0.00146484375
0.0091552734375
-0.0029296875
0.0069580078125
-0.0029296875
0.0029296875
-0.0003662109375
-0.0018310546875
0.00146484375
-0.005126953125
-0.0010986328125
0.0029296875
-0.0032958984375
0.0120849609375
0.002197265625
-0.00732421875
0.0018310546875
-0.0150146484375
-0.00146484375
-0.002197265625
0.0003662109375
-0.003662109375
0.0010986328125
-0.0054931640625
-0.0003662109375
-0.002197265625
0.0003662109375
-0.002197265625
0.0003662109375
-0.0040283203125
-0.000732421875
-0.0032958984375
0.00146484375
-0.00439453125
0.000732421875
-0.000732421875
-0.0003662109375
0.0032958984375
-0.0029296875
0.00146484375
-0.0010986328125
0.0
0.0003662109375
-0.0003662109375
0.0
-0.0010986328125
0.0018310546875
-0.0025634765625
0.0010986328125
-0.0018310546875
-0.0018310546875
0.0010986328125
-0.0029296875
0.00146484375
-0.0003662109375
0.0
0.000732421875
-0.00146484375
0.00146484375
-0.0010986328125
0.0
-0.00146484375
-0.000732421875
-0.00146484375
-0.0003662109375
0.00146484375
0.000732421875
-0.0029296875
0.0047607421875
-0.0157470703125
0.0047607421875
-0.0062255859375
-0.000732421875
0.0106201171875
-0.005126953125
0.0087890625
-0.002197265625
0.003662109375
0.000732421875
0.0
0.0
-0.0018310546875
-0.00146484375
-0.0018310546875
-0.003662109375
0.009521484375
0.0010986328125
-0.0010986328125
0.0029296875
-0.013916015625
-0.0003662109375
-0.0025634765625
0.0
-0.000732421875
0.0010986328125
-0.0032958984375
0.0
-0.00146484375
-0.000732421875
-0.002197265625
0.000732421875
-0.003662109375
0.00146484375
-0.0032958984375
0.0003662109375
-0.003662109375
-0.00146484375
0.0010986328125
-0.002197265625
0.0054931640625
-0.002197265625
0.00439453125
-0.0018310546875
0.00146484375
-0.0003662109375
-0.00146484375
0.0003662109375
0.0
0.000732421875
0.0018310546875
0.00146484375
-0.0029296875
0.000732421875
-0.0025634765625
0.0003662109375
0.0003662109375
0.000732421875
-0.00146484375
0.000732421875
-0.002197265625
0.0018310546875
-0.000732421875
0.00146484375
0.0003662109375
0.00146484375
-0.00146484375
0.0025634765625
-0.0010986328125
-0.000732421875
-0.000732421875
0.0010986328125
-0.01171875
0.00439453125
-0.008056640625
-0.000732421875
0.01025390625
-0.005859375
0.0113525390625
-0.005126953125
0.0069580078125
-0.002197265625
0.0032958984375
-0.0018310546875
-0.0025634765625
-0.002197265625
-0.0025634765625
0.0010986328125
0.01025390625
0.01025390625
-0.000732421875
0.0172119140625
-0.0208740234375
0.01171875
-0.01025390625
0.006591796875
-0.00439453125
0.008056640625
-0.006591796875
0.0054931640625
-0.00439453125
0.0003662109375
-0.0010986328125
-0.000732421875
0.0018310546875
-0.0003662109375
0.000732421875
-0.00439453125
0.00146484375
-0.005859375
0.0032958984375
-0.0069580078125
0.0069580078125
-0.0076904296875
0.008056640625
-0.0047607421875
0.002197265625
-0.0040283203125
-0.000732421875
-0.0047607421875
-0.0010986328125
-0.005126953125
-0.000732421875
-0.0047607421875
-0.003662109375
-0.00439453125
-0.0054931640625
-0.00439453125
-0.0018310546875
-0.005859375
-0.0010986328125
-0.005126953125
-0.0010986328125
-0.0040283203125
-0.0018310546875
-0.000732421875
-0.0018310546875
-0.0010986328125
-0.000732421875
-0.00439453125
-0.0025634765625
-0.00146484375
-0.003662109375
-0.00146484375
-0.01318359375
0.0
-0.0113525390625
-0.0029296875
0.01025390625
-0.0069580078125
0.0142822265625
-0.00439453125
0.0069580078125
-0.0029296875
0.00146484375
-0.002197265625
-0.0018310546875
-0.0032958984375
0.0003662109375
-0.0054931640625
0.0135498046875
-0.00439453125
0.0010986328125
-0.0010986328125
-0.015380859375
-0.00146484375
-0.0032958984375
-0.0010986328125
0.0003662109375
-0.0010986328125
0.0010986328125
-0.0032958984375
0.0010986328125
-0.0018310546875
0.0010986328125
-0.002197265625
0.0025634765625
-0.002197265625
0.0010986328125
-0.0003662109375
-0.0003662109375
0.0
0.000732421875
-0.00146484375
0.0018310546875
-0.0018310546875
0.0025634765625
-0.0003662109375
0.0025634765625
-0.0003662109375
0.00146484375
-0.0003662109375
0.0
-0.0010986328125
-0.0025634765625
-0.002197265625
-0.0025634765625
-0.0029296875
-0.000732421875
-0.0010986328125
0.0
-0.0018310546875
0.0003662109375
-0.003662109375
0.000732421875
-0.000732421875
0.0018310546875
0.00146484375
0.00146484375
0.002197265625
-0.00146484375
0.00146484375
-0.0032958984375
0.0
-0.005859375
0.0025634765625
-0.018310546875
0.00439453125
-0.0120849609375
0.0003662109375
0.003662109375
-0.0032958984375
0.0029296875
0.0
-0.0003662109375
0.0018310546875
-0.00439453125
0.00146484375
-0.005859375
0.0
-0.0025634765625
-0.000732421875
0.0047607421875
0.003662109375
-0.00732421875
0.002197265625
-0.0150146484375
0.000732421875
-0.005126953125
0.0003662109375
-0.0040283203125
0.0003662109375
-0.0040283203125
0.0018310546875
-0.003662109375
0.0010986328125
-0.0025634765625
0.0018310546875
-0.0029296875
0.0029296875
-0.005126953125
0.0032958984375
-0.0069580078125
0.002197265625
-0.0040283203125
0.00146484375
0.0040283203125
0.0003662109375
0.002197265625
-0.000732421875
-0.000732421875
0.0010986328125
0.000732421875
0.0025634765625
-0.0010986328125
0.0029296875
-0.0003662109375
0.0018310546875
0.000732421875
0.002197265625
0.0
0.0029296875
-0.00146484375
0.0032958984375
-0.0025634765625
0.0025634765625
-0.0003662109375
0.0018310546875
0.0025634765625
0.0029296875
0.0018310546875
0.002197265625
0.0018310546875
0.0018310546875
0.002197265625
0.00146484375
-0.000732421875
0.00439453125
-0.0047607421875
0.003662109375
0.0018310546875
-0.002197265625
0.0146484375
-0.0029296875
0.013916015625
-0.0003662109375
0.0062255859375
-0.0029296875
0.005126953125
0.0003662109375
0.0003662109375
-0.0003662109375
0.0135498046875
-0.0062255859375
0.02490234375
-0.0010986328125
-0.0003662109375
0.000732421875
-0.0087890625
-0.0010986328125
0.00146484375
-0.000732421875
0.0018310546875
0.0018310546875
0.0
0.002197265625
-0.0003662109375
0.000732421875
0.0032958984375
0.0010986328125
0.0029296875
0.000732421875
-0.002197265625
0.0018310546875
-0.002197265625
0.0003662109375
0.002197265625
-0.0032958984375
0.0069580078125
-0.00146484375
0.0054931640625
0.00146484375
0.0029296875
0.00146484375
0.0018310546875
-0.0010986328125
0.00146484375
0.0
0.0029296875
0.00146484375
0.0025634765625
0.0010986328125
0.002197265625
0.00146484375
0.00146484375
0.000732421875
0.000732421875
0.0018310546875
0.0018310546875
0.002197265625
0.0018310546875
0.0010986328125
0.00146484375
0.0003662109375
0.002197265625
0.0003662109375
0.00146484375
0.0003662109375
0.0
0.0025634765625
-0.009521484375
0.002197265625
-0.0029296875
0.0003662109375
0.0128173828125
0.000732421875
0.010986328125
-0.002197265625
0.0062255859375
-0.0003662109375
0.0010986328125
0.00146484375
-0.0010986328125
-0.0003662109375
-0.0003662109375
-0.00146484375
0.01025390625
0.000732421875
-0.0003662109375
0.0029296875
-0.0128173828125
0.0
-0.0025634765625
0.002197265625
-0.002197265625
0.00146484375
-0.0025634765625
-0.000732421875
0.0018310546875
0.0029296875
-0.0010986328125
0.0032958984375
-0.005859375
0.0025634765625
-0.0040283203125
0.0025634765625
-0.003662109375
0.000732421875
0.0010986328125
-0.002197265625
0.003662109375
0.0003662109375
0.0018310546875
0.0003662109375
0.0
-0.0018310546875
-0.000732421875
0.0003662109375
-0.00146484375
0.0010986328125
-0.0010986328125
0.0018310546875
-0.0003662109375
-0.000732421875
-0.0003662109375
0.0
0.000732421875
0.0
-0.0003662109375
0.0025634765625
0.0
0.002197265625
-0.000732421875
-0.0032958984375
-0.0003662109375
0.0003662109375
-0.000732421875
-0.0003662109375
-0.0010986328125
-0.000732421875
0.0
0.0010986328125
-0.008056640625
0.003662109375
-0.0106201171875
0.00146484375
0.005859375
-0.003662109375
0.010986328125
0.0010986328125
0.0025634765625
0.0003662109375
0.0003662109375
-0.0018310546875
0.0
0.0
-0.003662109375
-0.0040283203125
0.015380859375
0.0
0.01171875
0.003662109375
-0.0172119140625
0.000732421875
-0.01171875
0.0010986328125
-0.0032958984375
0.0018310546875
-0.0010986328125
0.0
0.0003662109375
0.00146484375
-0.0018310546875
0.0032958984375
-0.0025634765625
0.0010986328125
-0.0018310546875
0.0
-0.00439453125
-0.0010986328125
-0.0018310546875
0.0003662109375
0.002197265625
-0.0003662109375
0.0018310546875
-0.00146484375
0.0025634765625
-0.00146484375
0.0010986328125
0.0010986328125
0.0003662109375
0.0
0.00146484375
0.0
-0.0003662109375
0.0003662109375
-0.0003662109375
0.0
0.0003662109375
0.0018310546875
-0.0003662109375
-0.002197265625
0.000732421875
-0.0032958984375
0.00146484375
0.000732421875
-0.000732421875
0.0010986328125
0.0
-0.000732421875
0.0018310546875
0.0
0.0
0.0003662109375
-0.0003662109375
0.0
-0.008056640625
0.0025634765625
-0.01025390625
0.002197265625
0.006591796875
-0.0029296875
0.0128173828125
-0.0040283203125
0.00732421875
0.0
0.0025634765625
0.0040283203125
-0.0025634765625
0.0003662109375
-0.005859375
-0.0047607421875
0.013916015625
-0.0025634765625
0.01171875
0.0025634765625
-0.015380859375
0.0032958984375
-0.010986328125
0.00146484375
-0.0003662109375
0.0
0.0
-0.000732421875
-0.0010986328125
0.0
-0.0003662109375
0.0
-0.0010986328125
0.000732421875
-0.0029296875
0.0018310546875
-0.00439453125
0.00146484375
-0.0025634765625
-0.0010986328125
0.0025634765625
-0.0032958984375
0.0047607421875
-0.000732421875
0.0010986328125
0.002197265625
0.000732421875
0.0003662109375
0.000732421875
-0.000732421875
0.0003662109375
-0.0003662109375
0.0010986328125
-0.000732421875
0.0003662109375
0.000732421875
0.0003662109375
-0.002197265625
0.00146484375
-0.00146484375
0.0010986328125
-0.0003662109375
-0.0003662109375
0.0
-0.0018310546875
0.0018310546875
0.000732421875
0.0
0.002197265625
0.0
-0.0003662109375
-0.00146484375
0.000732421875
0.0
-0.0062255859375
0.0029296875
-0.009521484375
-0.00146484375
0.0062255859375
-0.00439453125
0.0120849609375
-0.0040283203125
0.006591796875
-0.00146484375
0.0029296875
-0.0010986328125
-0.000732421875
-0.00439453125
-0.0025634765625
-0.005126953125
0.0157470703125
-0.00146484375
0.00732421875
0.0010986328125
-0.01611328125
0.000732421875
-0.008056640625
0.000732421875
-0.003662109375
-0.000732421875
-0.0018310546875
-0.0003662109375
-0.00146484375
0.0010986328125
-0.0018310546875
0.0018310546875
-0.0018310546875
0.0003662109375
-0.0029296875
0.0018310546875
-0.00439453125
0.0010986328125
-0.002197265625
-0.00146484375
0.00146484375
0.0003662109375
0.0010986328125
0.00146484375
0.0
0.0003662109375
-0.0003662109375
-0.000732421875
-0.0003662109375
-0.00146484375
0.0
0.0003662109375
-0.000732421875
0.0003662109375
-0.00146484375
0.0
-0.000732421875
0.0
-0.0018310546875
-0.0003662109375
-0.0010986328125
0.0003662109375
-0.0010986328125
-0.0010986328125
-0.00146484375
-0.0010986328125
-0.000732421875
0.0
-0.002197265625
0.0
0.0
0.0
-0.0003662109375
0.0010986328125
-0.0069580078125
0.0025634765625
-0.0106201171875
0.000732421875
-0.000732421875
-0.003662109375
0.0084228515625
-0.0032958984375
0.0054931640625
-0.000732421875
0.00146484375
-0.000732421875
-0.002197265625
-0.00146484375
-0.003662109375
-0.0040283203125
0.0157470703125
-0.0025634765625
0.0113525390625
0.00146484375
-0.0146484375
0.0010986328125
-0.009521484375
0.0003662109375
-0.000732421875
-0.0003662109375
0.0
0.00146484375
0.0025634765625
-0.0010986328125
0.0054931640625
-0.0029296875
0.005859375
0.0003662109375
0.0047607421875
0.00146484375
0.0018310546875
0.000732421875
0.0018310546875
-0.0003662109375
0.0032958984375
0.0018310546875
0.0
0.0018310546875
-0.0029296875
0.0003662109375
-0.00439453125
0.0
-0.00439453125
0.0010986328125
-0.0010986328125
0.0025634765625
-0.0029296875
0.00146484375
-0.0062255859375
0.00146484375
-0.0054931640625
0.0010986328125
-0.00439453125
0.0018310546875
-0.00146484375
0.002197265625
-0.0010986328125
0.002197265625
-0.0032958984375
0.0018310546875
-0.003662109375
0.0018310546875
-0.0025634765625
0.002197265625
-0.002197265625
0.0018310546875
-0.0003662109375
0.0029296875
-0.009521484375
0.0032958984375
-0.0084228515625
0.0003662109375
0.0113525390625
-0.0029296875
0.0128173828125
-0.0010986328125
0.005126953125
0.0
0.0
0.000732421875
-0.00146484375
-0.00146484375
0.0010986328125
-0.0047607421875
0.01318359375
-0.0003662109375
0.0029296875
0.0032958984375
-0.0128173828125
0.0
-0.0025634765625
-0.00146484375
-0.000732421875
-0.0010986328125
0.0003662109375
-0.0018310546875
0.0018310546875
-0.0003662109375
-0.0003662109375
0.0
-0.000732421875
-0.0010986328125
-0.00146484375
0.00146484375
-0.0025634765625
0.00146484375
-0.0003662109375
-0.0018310546875
0.0040283203125
-0.002197265625
0.005126953125
-0.002197265625
0.003662109375
-0.002197265625
0.0025634765625
0.0003662109375
0.00146484375
-0.0003662109375
0.000732421875
-0.0025634765625
0.0029296875
-0.0003662109375
0.0032958984375
0.000732421875
0.00146484375
0.000732421875
0.0018310546875
-0.0003662109375
0.0018310546875
0.0003662109375
0.00146484375
0.0010986328125
0.003662109375
0.0
0.0018310546875
-0.0010986328125
0.000732421875
-0.0003662109375
0.0029296875
0.000732421875
-0.0003662109375
0.0025634765625
-0.0135498046875
0.0040283203125
-0.00732421875
-0.0010986328125
0.0142822265625
-0.0029296875
0.012451171875
0.0003662109375
0.0032958984375
0.0
0.000732421875
0.0003662109375
0.0003662109375
-0.000732421875
0.0003662109375
-0.003662109375
0.0128173828125
0.00146484375
0.002197265625
0.00439453125
-0.0135498046875
0.005126953125
-0.005859375
0.0003662109375
-0.002197265625
-0.003662109375
0.0003662109375
0.00146484375
-0.0010986328125
0.002197265625
-0.00146484375
0.0029296875
-0.0018310546875
0.00146484375
-0.0010986328125
0.0003662109375
-0.0025634765625
0.0
-0.000732421875
-0.002197265625
0.005126953125
-0.00146484375
0.0032958984375
-0.000732421875
0.0018310546875
-0.000732421875
0.00146484375
-0.0003662109375
0.0003662109375
0.002197265625
-0.0003662109375
0.002197265625
-0.0003662109375
0.0
0.0003662109375
-0.00146484375
0.0003662109375
-0.0010986328125
-0.000732421875
-0.00146484375
-0.00146484375
-0.0003662109375
-0.0018310546875
0.003662109375
-0.002197265625
0.00146484375
0.000732421875
-0.000732421875
-0.000732421875
0.0003662109375
-0.0010986328125
0.00146484375
0.000732421875
0.000732421875
-0.01171875
0.0029296875
-0.008056640625
0.0003662109375
0.01171875
-0.0032958984375
0.01025390625
-0.0010986328125
0.00439453125
-0.002197265625
0.0018310546875
-0.0003662109375
-0.0018310546875
-0.0018310546875
-0.0010986328125
-0.00439453125
0.0128173828125
0.0029296875
0.0010986328125
0.00439453125
-0.0150146484375
0.0010986328125
-0.0062255859375
0.0025634765625
-0.0040283203125
0.0010986328125
-0.0018310546875
-0.0003662109375
-0.000732421875
-0.000732421875
-0.000732421875
-0.002197265625
-0.0010986328125
0.000732421875
-0.0029296875
0.0032958984375
-0.00439453125
0.000732421875
-0.0010986328125
0.0
0.0032958984375
-0.000732421875
0.0029296875
-0.0003662109375
0.000732421875
0.00146484375
0.0
0.0010986328125
0.0003662109375
0.0003662109375
0.0
0.0
0.000732421875
0.0
0.0010986328125
0.0
0.000732421875
0.0010986328125
-0.000732421875
0.0003662109375
-0.0018310546875
-0.00146484375
0.002197265625
-0.002197265625
0.0010986328125
0.000732421875
-0.000732421875
0.00146484375
0.0003662109375
0.0
-0.0010986328125
-0.0003662109375
0.0
0.000732421875
-0.0084228515625
0.003662109375
-0.0106201171875
0.0010986328125
0.0069580078125
-0.0029296875
0.0128173828125
-0.0032958984375
0.005126953125
-0.0029296875
0.0025634765625
-0.0003662109375
-0.000732421875
0.0003662109375
-0.0047607421875
-0.0025634765625
0.0172119140625
-0.0003662109375
0.0087890625
0.0018310546875
-0.0186767578125
0.0010986328125
-0.0084228515625
-0.0003662109375
-0.0003662109375
-0.0003662109375
-0.0003662109375
0.0003662109375
-0.0010986328125
-0.0003662109375
-0.00146484375
0.000732421875
-0.000732421875
0.0029296875
-0.002197265625
0.0
-0.0040283203125
0.0003662109375
-0.00146484375
0.0010986328125
0.0025634765625
-0.0029296875
0.005126953125
-0.00146484375
0.0040283203125
-0.00146484375
0.0032958984375
-0.0018310546875
0.0040283203125
0.0032958984375
0.0018310546875
0.002197265625
0.0029296875
0.0
0.00439453125
0.0032958984375
0.0047607421875
0.00146484375
0.006591796875
0.0003662109375
0.00439453125
0.0003662109375
0.00439453125
-0.0003662109375
0.003662109375
-0.0003662109375
0.003662109375
-0.0010986328125
0.00439453125
-0.0010986328125
0.003662109375
-0.0010986328125
0.003662109375
0.0
0.0029296875
0.002197265625
-0.0047607421875
0.0047607421875
-0.010986328125
0.005859375
0.0025634765625
0.0018310546875
0.009521484375
0.0010986328125
0.00439453125
0.0018310546875
-0.0003662109375
0.002197265625
-0.0047607421875
-0.000732421875
-0.0069580078125
-0.00732421875
0.0146484375
-0.0029296875
0.01025390625
0.00146484375
-0.019775390625
0.000732421875
-0.01171875
-0.0018310546875
-0.002197265625
-0.0029296875
-0.0025634765625
-0.0003662109375
-0.0010986328125
0.000732421875
-0.0010986328125
-0.0010986328125
-0.0010986328125
-0.0003662109375
-0.0029296875
0.000732421875
-0.006591796875
0.000732421875
-0.003662109375
-0.00146484375
0.0018310546875
-0.0032958984375
0.00439453125
-0.000732421875
0.0040283203125
0.000732421875
-0.00146484375
-0.000732421875
-0.0025634765625
-0.0010986328125
0.0
0.000732421875
0.0
-0.0003662109375
-0.0010986328125
-0.00146484375
0.0
-0.0010986328125
0.0025634765625
-0.000732421875
-0.00146484375
0.0003662109375
-0.0029296875
0.0
-0.0003662109375
0.0
0.0010986328125
-0.002197265625
0.00439453125
-0.00439453125
0.000732421875
0.0
-0.0025634765625
-0.0025634765625
0.0003662109375
-0.0010986328125
-0.0106201171875
0.0040283203125
-0.01171875
-0.0010986328125
0.0087890625
-0.005859375
0.013916015625
-0.005859375
0.006591796875
-0.0018310546875
0.0018310546875
-0.0003662109375
-0.002197265625
-0.0025634765625
-0.0032958984375
-0.005126953125
0.012451171875
-0.000732421875
0.00146484375
0.0032958984375
-0.01611328125
0.0
-0.005126953125
-0.0010986328125
-0.002197265625
0.0
-0.002197265625
0.0003662109375
-0.0018310546875
0.000732421875
-0.0025634765625
0.0010986328125
-0.0025634765625
0.0
-0.0018310546875
-0.000732421875
-0.0029296875
0.0
-0.0032958984375
0.0003662109375
-0.000732421875
-0.0003662109375
0.00146484375
0.0003662109375
-0.00146484375
0.0010986328125
-0.0025634765625
0.0003662109375
-0.0018310546875
0.0
-0.00146484375
0.0
-0.002197265625
-0.000732421875
-0.00146484375
0.0
0.0003662109375
0.00146484375
-0.0010986328125
0.0
-0.002197265625
-0.0003662109375
-0.0003662109375
0.00146484375
-0.0003662109375
-0.0003662109375
-0.000732421875
-0.0018310546875
0.000732421875
-0.0003662109375
0.0003662109375
-0.0010986328125
0.0
-0.000732421875
-0.003662109375
0.002197265625
-0.0069580078125
0.0025634765625
0.0032958984375
-0.00146484375
0.0150146484375
-0.0025634765625
0.0128173828125
-0.0003662109375
0.00439453125
0.0
-0.0003662109375
-0.0010986328125
-0.0047607421875
-0.0047607421875
0.013916015625
-0.002197265625
0.01611328125
0.003662109375
-0.01318359375
0.0032958984375
-0.0135498046875
0.0003662109375
-0.0032958984375
-0.0010986328125
-0.0010986328125
-0.0003662109375
-0.0003662109375
0.0
0.0
0.000732421875
-0.0025634765625
0.000732421875
-0.00146484375
0.0
0.0
0.000732421875
-0.0025634765625
-0.000732421875
0.0010986328125
-0.000732421875
0.0040283203125
0.0
-0.000732421875
0.0
-0.0029296875
0.0
-0.0029296875
0.00146484375
-0.00146484375
0.0010986328125
-0.0010986328125
0.000732421875
-0.0029296875
0.0018310546875
-0.00146484375
0.000732421875
0.0
0.00146484375
-0.0010986328125
0.000732421875
-0.00146484375
0.00146484375
-0.0010986328125
0.0010986328125
-0.0003662109375
-0.000732421875
0.0010986328125
0.0003662109375
-0.000732421875
0.0
-0.000732421875
-0.0003662109375
-0.0029296875
0.002197265625
-0.01025390625
0.0029296875
-0.0032958984375
-0.002197265625
0.0113525390625
-0.00439453125
0.012451171875
-0.000732421875
0.0047607421875
0.000732421875
0.00146484375
-0.0003662109375
-0.0029296875
-0.0040283203125
0.0113525390625
-0.0040283203125
0.0194091796875
0.0
-0.0084228515625
0.0018310546875
-0.013916015625
0.0003662109375
-0.0029296875
-0.0010986328125
-0.000732421875
0.0003662109375
0.0003662109375
0.0
0.0018310546875
-0.00146484375
0.002197265625
-0.0025634765625
-0.0018310546875
0.000732421875
-0.0018310546875
0.0018310546875
-0.0003662109375
-0.0003662109375
0.0029296875
-0.0010986328125
0.00732421875
-0.0025634765625
0.006591796875
0.0
0.003662109375
0.000732421875
0.003662109375
0.002197265625
0.0029296875
0.002197265625
0.0
0.0010986328125
0.000732421875
0.000732421875
0.002197265625
-0.0003662109375
0.0025634765625
0.0010986328125
0.000732421875
-0.0018310546875
0.0018310546875
-0.00146484375
0.0010986328125
0.002197265625
0.000732421875
0.0025634765625
0.0003662109375
0.0
-0.000732421875
-0.0003662109375
0.00146484375
0.00146484375
-0.0003662109375
0.0032958984375
-0.0128173828125
0.003662109375
-0.01025390625
0.0
0.0128173828125
-0.0029296875
0.013916015625
-0.0029296875
0.0047607421875
-0.0003662109375
0.00146484375
0.00146484375
-0.0018310546875
0.0010986328125
-0.0003662109375
-0.003662109375
0.012451171875
-0.000732421875
0.0003662109375
0.00439453125
-0.0157470703125
0.0018310546875
-0.0047607421875
0.0010986328125
-0.0018310546875
0.00146484375
-0.002197265625
-0.000732421875
-0.000732421875
-0.0010986328125
-0.0003662109375
0.00146484375
-0.0025634765625
0.0010986328125
-0.0025634765625
0.0010986328125
-0.0040283203125
-0.0003662109375
-0.0029296875
-0.0025634765625
0.003662109375
-0.0003662109375
0.0029296875
0.0003662109375
-0.00146484375
-0.0003662109375
0.0
-0.0018310546875
0.00146484375
0.0
-0.00146484375
0.00146484375
-0.002197265625
0.0
-0.00146484375
-0.0003662109375
-0.000732421875
0.002197265625
-0.0018310546875
0.002197265625
-0.002197265625
0.0
0.0003662109375
0.0010986328125
0.002197265625
0.0003662109375
-0.000732421875
0.0003662109375
-0.0018310546875
0.0010986328125
-0.0003662109375
0.002197265625
-0.0010986328125
0.00146484375
-0.00146484375
0.000732421875
-0.0142822265625
0.0032958984375
-0.0087890625
-0.000732421875
0.015380859375
-0.0032958984375
0.0120849609375
-0.0018310546875
0.0047607421875
0.0
0.003662109375
0.0025634765625
-0.0025634765625
0.0
-0.0032958984375
-0.0040283203125
0.0113525390625
-0.0025634765625
0.00146484375
0.00146484375
-0.0142822265625
0.0003662109375
-0.0025634765625
0.0003662109375
-0.0003662109375
0.002197265625
-0.0018310546875
0.0
-0.002197265625
0.0
-0.00146484375
0.00146484375
-0.0018310546875
0.0010986328125
-0.0040283203125
0.0025634765625
-0.0047607421875
0.0003662109375
-0.0018310546875
-0.0010986328125
0.0047607421875
-0.00146484375
0.0047607421875
-0.0010986328125
0.0018310546875
0.0010986328125
0.0003662109375
0.000732421875
0.000732421875
-0.0010986328125
-0.0003662109375
-0.002197265625
-0.00146484375
0.000732421875
0.0
0.0010986328125
0.0018310546875
0.0003662109375
0.000732421875
0.0003662109375
-0.0010986328125
-0.0010986328125
0.0
-0.0003662109375
0.0010986328125
0.0
0.000732421875
0.0
0.0003662109375
-0.002197265625
0.00146484375
0.0
-0.0010986328125
0.002197265625
-0.00439453125
0.0010986328125
-0.0098876953125
0.0018310546875
-0.0010986328125
-0.0010986328125
0.0120849609375
-0.003662109375
0.009521484375
-0.002197265625
0.0040283203125
-0.000732421875
-0.0010986328125
0.0
-0.005126953125
-0.0003662109375
0.0054931640625
-0.000732421875
0.0142822265625
0.00146484375
-0.0091552734375
0.0029296875
-0.0150146484375
0.0
-0.000732421875
-0.0018310546875
-0.0003662109375
0.00146484375
-0.00146484375
0.0018310546875
-0.0025634765625
-0.00146484375
-0.0010986328125
0.0
0.0003662109375
0.00146484375
-0.0018310546875
0.0010986328125
-0.0047607421875
0.0003662109375
0.0
-0.002197265625
0.005126953125
-0.0025634765625
0.002197265625
0.0010986328125
-0.000732421875
0.002197265625
-0.0003662109375
-0.002197265625
0.00146484375
-0.00146484375
0.0010986328125
-0.00146484375
0.000732421875
-0.00146484375
0.0010986328125
-0.00146484375
0.000732421875
-0.000732421875
-0.0010986328125
0.0010986328125
-0.0010986328125
-0.0003662109375
0.0010986328125
0.000732421875
0.000732421875
0.0003662109375
-0.0018310546875
-0.000732421875
-0.0018310546875
-0.0010986328125
0.00146484375
-0.0010986328125
0.0003662109375
-0.0003662109375
-0.003662109375
0.00146484375
-0.01318359375
0.0029296875
-0.0062255859375
-0.0003662109375
0.012451171875
-0.002197265625
0.01025390625
-0.0018310546875
0.0032958984375
0.0
-0.0003662109375
0.000732421875
-0.0018310546875
-0.0032958984375
0.002197265625
-0.003662109375
0.01025390625
0.0
-0.003662109375
0.003662109375
-0.0135498046875
0.0032958984375
-0.0040283203125
0.0010986328125
-0.0029296875
0.0003662109375
-0.0010986328125
0.0003662109375
-0.000732421875
0.0
0.0
0.000732421875
-0.0003662109375
0.0010986328125
-0.0029296875
-0.000732421875
-0.0025634765625
0.0
-0.0003662109375
-0.0003662109375
0.0029296875
-0.0018310546875
0.0029296875
-0.0010986328125
0.000732421875
-0.000732421875
0.0003662109375
0.000732421875
-0.0003662109375
0.000732421875
-0.0010986328125
0.0
0.0003662109375
-0.0003662109375
0.0
0.0003662109375
-0.0010986328125
0.0
0.0010986328125
-0.00146484375
0.0010986328125
0.0003662109375
0.002197265625
0.0010986328125
0.002197265625
0.0018310546875
0.000732421875
-0.0010986328125
0.000732421875
-0.002197265625
0.00146484375
-0.0003662109375
0.0018310546875
-0.0003662109375
-0.0069580078125
0.003662109375
-0.0076904296875
0.0018310546875
0.0087890625
-0.003662109375
0.0150146484375
-0.003662109375
0.0106201171875
0.0
0.0040283203125
0.00146484375
0.000732421875
-0.000732421875
-0.0032958984375
-0.00439453125
0.0157470703125
-0.0032958984375
0.0106201171875
0.0029296875
-0.0164794921875
0.002197265625
-0.0087890625
0.0
-0.003662109375
-0.0003662109375
-0.0025634765625
-0.0010986328125
0.0
0.0010986328125
0.0
0.00146484375
-0.002197265625
0.0010986328125
-0.00146484375
0.0010986328125
-0.00146484375
0.0003662109375
-0.003662109375
-0.0010986328125
-0.0003662109375
-0.00146484375
0.0025634765625
-0.0003662109375
0.00146484375
0.0
-0.0003662109375
0.000732421875
-0.00146484375
0.0003662109375
-0.0003662109375
0.0
-0.0010986328125
-0.000732421875
-0.0010986328125
0.0010986328125
-0.0029296875
0.0003662109375
-0.0032958984375
0.000732421875
-0.0018310546875
0.00146484375
-0.00146484375
0.0003662109375
-0.00146484375
0.002197265625
-0.0029296875
0.0010986328125
-0.0018310546875
0.00146484375
-0.0010986328125
0.000732421875
-0.0018310546875
-0.0003662109375
-0.00146484375
0.0010986328125
-0.01025390625
0.003662109375
-0.0120849609375
0.0
0.0062255859375
-0.0040283203125
0.0135498046875
-0.0010986328125
0.005126953125
-0.0010986328125
0.000732421875
0.000732421875
0.0
0.0
-0.002197265625
-0.005126953125
0.0164794921875
-0.0018310546875
0.005859375
0.002197265625
-0.017578125
0.000732421875
-0.0054931640625
0.000732421875
-0.0010986328125
0.0018310546875
-0.000732421875
0.000732421875
-0.0010986328125
-0.0003662109375
-0.000732421875
0.000732421875
-0.000732421875
0.0
0.000732421875
0.0010986328125
-0.0010986328125
0.002197265625
-0.0025634765625
-0.0010986328125
0.0047607421875
-0.00146484375
0.005859375
0.0
0.002197265625
0.0003662109375
0.0025634765625
0.00146484375
0.0
0.0010986328125
0.0003662109375
-0.000732421875
0.002197265625
-0.0029296875
0.0010986328125
-0.000732421875
0.0003662109375
0.0025634765625
0.0010986328125
-0.0003662109375
0.00439453125
-0.00146484375
0.0032958984375
0.0
0.000732421875
-0.000732421875
0.00146484375
0.0
0.0018310546875
-0.0003662109375
0.002197265625
0.0
0.0003662109375
0.0003662109375
-0.00146484375
-0.0003662109375
-0.0029296875
0.003662109375
-0.009521484375
0.0032958984375
-0.000732421875
-0.0025634765625
0.01318359375
-0.003662109375
0.010986328125
-0.0003662109375
0.003662109375
0.0003662109375
-0.000732421875
0.00146484375
-0.008056640625
-0.0010986328125
0.00732421875
-0.0025634765625
0.0179443359375
0.0018310546875
-0.01025390625
0.0029296875
-0.0164794921875
0.0025634765625
-0.002197265625
0.00146484375
-0.00146484375
-0.00146484375
-0.0029296875
-0.0003662109375
-0.000732421875
0.0029296875
-0.0003662109375
0.000732421875
-0.0029296875
0.000732421875
-0.00439453125
0.002197265625
-0.0025634765625
-0.000732421875
0.0010986328125
-0.0010986328125
0.0032958984375
0.000732421875
0.0025634765625
0.0003662109375
0.000732421875
0.0
0.0003662109375
-0.0003662109375
0.000732421875
0.0003662109375
-0.000732421875
-0.0003662109375
0.0
0.00146484375
-0.0018310546875
0.00146484375
-0.002197265625
-0.00146484375
0.0032958984375
-0.00146484375
0.0025634765625
-0.0003662109375
-0.000732421875
0.0003662109375
-0.0003662109375
0.000732421875
-0.000732421875
0.0010986328125
0.0003662109375
0.000732421875
-0.000732421875
0.0018310546875
-0.0025634765625
0.0003662109375
-0.00146484375
0.0
-0.006591796875
0.0032958984375
-0.0098876953125
0.0003662109375
0.0054931640625
-0.0025634765625
0.013916015625
-0.0018310546875
0.006591796875
-0.002197265625
0.0047607421875
-0.000732421875
-0.0010986328125
0.0003662109375
-0.0076904296875
-0.0040283203125
0.015380859375
-0.002197265625
0.01171875
0.00439453125
-0.01904296875
0.0010986328125
-0.01171875
0.0010986328125
-0.0018310546875
0.0018310546875
-0.0025634765625
0.0010986328125
-0.000732421875
0.0010986328125
-0.00146484375
0.002197265625
-0.0032958984375
0.0018310546875
-0.0029296875
0.000732421875
-0.00439453125
0.0010986328125
-0.0025634765625
-0.000732421875
0.002197265625
-0.0018310546875
0.0054931640625
-0.0018310546875
0.0040283203125
0.0
0.0003662109375
0.0003662109375
0.0
0.0010986328125
-0.0003662109375
0.00146484375
-0.0003662109375
-0.0003662109375
0.0
0.0
0.0
0.0003662109375
0.0
0.0003662109375
0.0
0.0003662109375
0.0
0.00146484375
-0.0010986328125
0.0
0.0003662109375
-0.002197265625
0.0018310546875
0.0003662109375
-0.0018310546875
-0.0010986328125
0.0
-0.000732421875
0.002197265625
0.000732421875
-0.000732421875
0.0018310546875
-0.012451171875
0.0029296875
-0.0106201171875
-0.000732421875
0.01171875
-0.0029296875
0.013916015625
-0.002197265625
0.005126953125
-0.000732421875
0.0010986328125
0.000732421875
-0.00146484375
-0.0018310546875
0.0003662109375
-0.00439453125
0.01318359375
0.000732421875
0.0010986328125
0.0025634765625
-0.013916015625
0.0003662109375
-0.0040283203125
-0.0003662109375
-0.00146484375
0.00146484375
-0.0018310546875
0.0025634765625
-0.00146484375
-0.0010986328125
-0.0010986328125
0.000732421875
-0.0018310546875
0.002197265625
-0.00146484375
0.0010986328125
-0.002197265625
0.0
-0.0010986328125
-0.0018310546875
0.002197265625
-0.0010986328125
0.003662109375
-0.000732421875
0.0018310546875
-0.00146484375
0.0003662109375
-0.0003662109375
0.0
0.000732421875
0.0003662109375
0.0
0.0
-0.0010986328125
-0.000732421875
0.000732421875
0.0
0.0
0.0003662109375
-0.0018310546875
0.0
-0.00146484375
0.0
0.0
0.0
-0.0003662109375
0.000732421875
-0.0010986328125
0.0010986328125
0.002197265625
-0.0010986328125
0.0010986328125
-0.0010986328125
-0.0018310546875
0.000732421875
0.0003662109375
-0.0010986328125
0.000732421875
-0.0076904296875
0.00146484375
-0.0091552734375
0.0018310546875
0.002197265625
-0.0040283203125
0.0120849609375
-0.0025634765625
0.0076904296875
0.0018310546875
0.0010986328125
0.0018310546875
-0.0025634765625
0.00146484375
-0.0062255859375
-0.003662109375
0.0128173828125
-0.0040283203125
0.012451171875
0.0025634765625
-0.0128173828125
0.0032958984375
-0.010986328125
0.000732421875
-0.0025634765625
0.000732421875
-0.000732421875
0.0010986328125
0.0003662109375
-0.0010986328125
0.0
-0.0010986328125
-0.0003662109375
0.0
0.0003662109375
0.0003662109375
-0.000732421875
0.0
-0.0010986328125
-0.0018310546875
0.0032958984375
-0.00146484375
0.005859375
-0.0003662109375
0.006591796875
-0.0010986328125
0.0040283203125
-0.0010986328125
-0.000732421875
-0.000732421875
0.0029296875
-0.000732421875
0.0062255859375
0.000732421875
0.0054931640625
-0.0003662109375
0.0087890625
-0.002197265625
0.0091552734375
-0.000732421875
0.008056640625
0.0003662109375
0.00732421875
0.0
0.00439453125
-0.0018310546875
0.005126953125
-0.00146484375
0.005126953125
-0.000732421875
0.00439453125
0.0003662109375
0.002197265625
0.002197265625
0.000732421875
0.00146484375
0.0010986328125
0.00146484375
-0.0098876953125
0.0
-0.0040283203125
-0.00146484375
0.017578125
-0.0003662109375
0.0146484375
-0.002197265625
0.00732421875
-0.0018310546875
0.0018310546875
0.0003662109375
-0.00439453125
0.0
-0.0040283203125
-0.0018310546875
0.0062255859375
-0.0010986328125
-0.002197265625
0.0018310546875
-0.017578125
0.00146484375
-0.0091552734375
0.0003662109375
-0.003662109375
-0.0003662109375
-0.0040283203125
0.0003662109375
-0.005859375
0.0018310546875
-0.003662109375
0.0010986328125
-0.000732421875
-0.00146484375
-0.003662109375
0.0003662109375
-0.006591796875
0.0003662109375
-0.0054931640625
-0.0018310546875
-0.000732421875
-0.0018310546875
0.0010986328125
-0.0010986328125
-0.0040283203125
0.0029296875
-0.0146484375
0.0040283203125
-0.0157470703125
0.005859375
-0.0205078125
0.0018310546875
-0.0091552734375
-0.005859375
0.0234375
-0.0054931640625
0.0234375
-0.0025634765625
0.005859375
-0.000732421875
-0.002197265625
0.0
-0.002197265625
0.0003662109375
0.0018310546875
0.000732421875
0.003662109375
-0.000732421875
0.0029296875
-0.0018310546875
0.0003662109375
0.0018310546875
-0.005859375
0.005859375
-0.02197265625
0.00732421875
-0.0230712890625
0.002197265625
0.0040283203125
-0.003662109375
0.012451171875
-0.0025634765625
0.0029296875
0.0003662109375
-0.0003662109375
0.0010986328125
-0.00146484375
0.000732421875
-0.0010986328125
0.0010986328125
-0.002197265625
-0.0018310546875
0.010986328125
-0.0003662109375
0.0010986328125
0.003662109375
-0.015380859375
0.000732421875
-0.00439453125
-0.0003662109375
-0.0010986328125
0.0003662109375
-0.0010986328125
0.0010986328125
-0.0010986328125
0.0
0.0
0.0
-0.0010986328125
0.00146484375
-0.0040283203125
0.0
-0.003662109375
-0.0010986328125
0.0025634765625
-0.002197265625
0.0076904296875
-0.0010986328125
0.005126953125
-0.0003662109375
0.0018310546875
-0.0010986328125
0.00146484375
-0.0003662109375
0.0025634765625
-0.0018310546875
0.00146484375
-0.002197265625
0.0010986328125
-0.000732421875
0.0018310546875
0.000732421875
0.00146484375
0.0
0.0029296875
-0.000732421875
0.0018310546875
-0.0003662109375
0.002197265625
0.000732421875
0.0040283203125
0.002197265625
0.0018310546875
0.0025634765625
-0.0018310546875
0.00146484375
0.0
-0.0003662109375
0.002197265625
0.0010986328125
-0.00146484375
0.0025634765625
-0.0113525390625
0.00439453125
-0.009521484375
0.0
0.0120849609375
-0.0032958984375
0.013916015625
-0.00146484375
0.005126953125
0.0003662109375
0.0032958984375
0.0
0.0
-0.0032958984375
-0.0003662109375
-0.00439453125
0.0172119140625
0.000732421875
0.0047607421875
0.0029296875
-0.017578125
0.0003662109375
-0.0062255859375
0.0010986328125
-0.002197265625
0.0010986328125
-0.000732421875
0.000732421875
-0.000732421875
0.00146484375
-0.0025634765625
0.0010986328125
-0.002197265625
-0.0003662109375
0.0
0.0018310546875
-0.003662109375
0.002197265625
-0.0025634765625
-0.002197265625
0.005126953125
-0.0025634765625
0.0040283203125
0.00146484375
-0.000732421875
0.000732421875
-0.000732421875
-0.000732421875
0.0010986328125
0.0
-0.000732421875
-0.000732421875
-0.00146484375
-0.0003662109375
0.0003662109375
0.0010986328125
0.000732421875
0.00146484375
0.0
0.0003662109375
-0.000732421875
-0.00146484375
0.0003662109375
0.0010986328125
0.0003662109375
0.0010986328125
-0.0003662109375
0.0
-0.000732421875
0.0
-0.0010986328125
-0.000732421875
-0.000732421875
0.0
-0.0003662109375
-0.0003662109375
-0.002197265625
0.0029296875
-0.015380859375
0.00439453125
-0.006591796875
-0.00146484375
0.0128173828125
-0.0040283203125
0.01025390625
-0.0010986328125
0.0047607421875
0.0003662109375
-0.000732421875
0.00146484375
-0.0018310546875
-0.0018310546875
-0.000732421875
-0.0032958984375
0.0091552734375
0.0010986328125
0.0
0.0010986328125
-0.01171875
0.000732421875
-0.003662109375
-0.0010986328125
-0.0010986328125
-0.000732421875
0.0
0.0025634765625
0.0003662109375
0.00146484375
-0.0003662109375
0.0003662109375
-0.0025634765625
-0.000732421875
-0.0040283203125
-0.0010986328125
-0.0029296875
0.0003662109375
0.0003662109375
-0.0003662109375
0.0032958984375
-0.00146484375
0.0029296875
0.00146484375
0.0
0.0010986328125
0.0
-0.000732421875
-0.00146484375
0.0003662109375
-0.0003662109375
-0.0010986328125
0.002197265625
-0.000732421875
0.0003662109375
0.0003662109375
-0.0003662109375
-0.0003662109375
-0.0003662109375
0.0003662109375
-0.0003662109375
0.0
-0.0003662109375
-0.0003662109375
0.0003662109375
-0.0003662109375
0.0018310546875
0.000732421875
-0.0010986328125
0.0003662109375
-0.00146484375
0.0
0.0003662109375
-0.0010986328125
-0.000732421875
-0.0010986328125
0.0
0.0032958984375
-0.012451171875
0.0047607421875
-0.00732421875
-0.00146484375
0.0135498046875
-0.005859375
0.0113525390625
-0.0018310546875
0.0047607421875
0.000732421875
0.00146484375
0.00146484375
-0.0040283203125
-0.0018310546875
0.0
-0.0047607421875
0.01318359375
-0.0003662109375
-0.0029296875
0.0040283203125
-0.0135498046875
0.00146484375
-0.00146484375
0.000732421875
-0.0018310546875
0.00146484375
-0.0018310546875
-0.0003662109375
0.0003662109375
-0.000732421875
-0.0010986328125
0.0003662109375
-0.002197265625
0.00146484375
-0.0029296875
0.00146484375
-0.0047607421875
0.0018310546875
-0.00146484375
-0.0003662109375
0.0032958984375
-0.0010986328125
0.0029296875
0.0003662109375
0.0
-0.0010986328125
0.0
-0.0003662109375
-0.0003662109375
0.0003662109375
-0.0010986328125
0.0
0.00146484375
-0.000732421875
0.0010986328125
0.0018310546875
-0.0010986328125
0.000732421875
0.000732421875
-0.0025634765625
0.0029296875
0.0010986328125
0.0
0.0018310546875
-0.002197265625
0.0
-0.00146484375
-0.000732421875
0.0
0.0
-0.000732421875
-0.0003662109375
0.0003662109375
0.000732421875
0.0010986328125
-0.000732421875
-0.002197265625
0.002197265625
-0.0106201171875
0.003662109375
-0.003662109375
-0.003662109375
0.012451171875
-0.0025634765625
0.0087890625
0.0003662109375
0.00146484375
-0.000732421875
0.0
0.0003662109375
-0.003662109375
-0.0029296875
0.006591796875
-0.00439453125
0.015380859375
-0.0003662109375
-0.008056640625
0.0018310546875
-0.013916015625
0.002197265625
-0.0029296875
0.0010986328125
-0.0029296875
0.0
-0.00146484375
-0.0010986328125
-0.0018310546875
0.0
-0.0003662109375
0.0003662109375
0.0
0.000732421875
-0.0029296875
-0.0003662109375
-0.000732421875
-0.0018310546875
0.0029296875
-0.0018310546875
0.0047607421875
-0.0018310546875
0.0029296875
0.0
0.0
-0.0003662109375
-0.000732421875
-0.0003662109375
-0.0010986328125
-0.000732421875
-0.0003662109375
-0.0018310546875
0.0010986328125
-0.000732421875
0.0010986328125
0.0
0.0010986328125
-0.0003662109375
0.0
-0.00146484375
-0.0010986328125
-0.0018310546875
0.00146484375
-0.000732421875
0.0032958984375
0.0003662109375
0.00146484375
0.0003662109375
0.000732421875
-0.0003662109375
0.002197265625
-0.002197265625
0.0032958984375
-0.002197265625
0.00146484375
-0.00146484375
-0.00439453125
0.0003662109375
-0.0062255859375
0.0018310546875
0.006591796875
-0.0025634765625
0.0179443359375
-0.003662109375
0.0150146484375
-0.000732421875
0.0098876953125
-0.002197265625
0.0084228515625
-0.0003662109375
0.006591796875
-0.00146484375
0.027099609375
-0.000732421875
0.0245361328125
0.0025634765625
-0.006591796875
-0.000732421875
-0.0069580078125
0.0
-0.0010986328125
0.00146484375
0.0018310546875
0.00146484375
0.006591796875
0.0003662109375
0.01025390625
0.000732421875
0.0098876953125
0.0
0.0091552734375
-0.0003662109375
0.006591796875
0.0018310546875
0.0054931640625
0.00146484375
0.0025634765625
0.000732421875
-0.0054931640625
0.0
-0.0084228515625
0.000732421875
-0.0098876953125
0.00146484375
-0.0106201171875
0.0003662109375
-0.0076904296875
0.0
-0.0062255859375
0.0010986328125
-0.0087890625
0.0010986328125
-0.0054931640625
0.0
-0.0003662109375
0.0
-0.0091552734375
0.0
-0.01611328125
0.000732421875
-0.0128173828125
0.00146484375
-0.01171875
0.002197265625
-0.01025390625
0.00146484375
-0.0098876953125
0.00146484375
-0.0098876953125
0.002197265625
-0.0076904296875
0.0025634765625
-0.0157470703125
0.0054931640625
-0.015380859375
0.002197265625
0.0047607421875
-0.0018310546875
0.0084228515625
0.0010986328125
-0.000732421875
0.0003662109375
-0.0029296875
0.0
-0.005126953125
0.00146484375
-0.00439453125
-0.0003662109375
0.012451171875
0.0032958984375
-0.0003662109375
0.0040283203125
-0.0179443359375
0.000732421875
-0.003662109375
0.0010986328125
0.0010986328125
0.0018310546875
0.0
0.00146484375
0.0003662109375
0.000732421875
0.002197265625
0.0003662109375
0.00146484375
0.000732421875
0.000732421875
0.00146484375
-0.00146484375
0.00146484375
-0.000732421875
0.0003662109375
0.0047607421875
-0.0018310546875
0.003662109375
-0.0025634765625
0.002197265625
0.0
0.003662109375
0.0018310546875
0.0018310546875
0.000732421875
0.0003662109375
0.000732421875
0.00146484375
0.0003662109375
0.0
0.000732421875
0.000732421875
0.0
0.0029296875
-0.000732421875
0.0029296875
-0.0003662109375
0.0018310546875
-0.0010986328125
-0.000732421875
-0.0003662109375
-0.0003662109375
-0.000732421875
-0.0003662109375
-0.00146484375
-0.00146484375
-0.000732421875
0.0
-0.0003662109375
-0.0010986328125
0.00146484375
-0.0135498046875
0.002197265625
-0.0091552734375
-0.000732421875
0.0113525390625
-0.0032958984375
0.009521484375
-0.0025634765625
0.0040283203125
-0.0018310546875
0.0047607421875
0.000732421875
-0.000732421875
-0.0003662109375
-0.0010986328125
-0.0032958984375
0.01318359375
-0.0010986328125
0.0029296875
0.0018310546875
-0.0113525390625
0.002197265625
0.0010986328125
-0.0003662109375
0.0029296875
-0.000732421875
0.0010986328125
0.00146484375
0.002197265625
0.002197265625
0.000732421875
0.00146484375
0.000732421875
0.0010986328125
0.0003662109375
0.0
-0.000732421875
0.0
-0.0003662109375
0.0
0.003662109375
-0.0018310546875
0.005859375
-0.000732421875
0.002197265625
-0.0010986328125
0.0003662109375
-0.002197265625
0.000732421875
0.0010986328125
0.000732421875
0.000732421875
0.00146484375
-0.000732421875
0.00146484375
-0.002197265625
0.0018310546875
-0.003662109375
0.0018310546875
-0.0029296875
0.0003662109375
0.00146484375
-0.0003662109375
0.0010986328125
0.0018310546875
0.0003662109375
0.0025634765625
0.0018310546875
-0.0010986328125
0.0003662109375
-0.000732421875
0.0029296875
-0.0010986328125
-0.000732421875
0.0003662109375
0.0029296875
-0.0135498046875
0.008056640625
-0.0120849609375
-0.000732421875
0.0146484375
-0.002197265625
0.01171875
0.000732421875
0.00439453125
-0.0003662109375
0.002197265625
-0.002197265625
-0.002197265625
-0.0010986328125
-0.0018310546875
-0.00146484375
0.010986328125
0.00146484375
0.00146484375
0.003662109375
-0.0157470703125
0.00146484375
-0.00439453125
0.00146484375
0.000732421875
0.0
-0.000732421875
0.0010986328125
-0.0018310546875
0.0010986328125
-0.0025634765625
0.00146484375
-0.0029296875
0.0010986328125
-0.00146484375
-0.0003662109375
-0.002197265625
-0.000732421875
-0.0003662109375
0.0
0.003662109375
-0.0010986328125
0.0029296875
-0.0010986328125
-0.002197265625
0.000732421875
-0.00146484375
-0.0025634765625
0.002197265625
-0.002197265625
0.000732421875
-0.00146484375
0.0003662109375
-0.0018310546875
-0.002197265625
-0.0018310546875
-0.0010986328125
0.0032958984375
-0.00146484375
0.005126953125
-0.0040283203125
0.0
-0.0025634765625
0.0010986328125
-0.0018310546875
0.000732421875
-0.0010986328125
0.000732421875
-0.00146484375
-0.0003662109375
0.000732421875
-0.0003662109375
-0.000732421875
0.003662109375
-0.0047607421875
0.0032958984375
-0.0146484375
0.002197265625
-0.0098876953125
-0.0025634765625
0.012451171875
-0.003662109375
0.010986328125
0.0
0.0
0.00146484375
-0.0025634765625
0.002197265625
-0.0018310546875
-0.0032958984375
-0.0025634765625
-0.0047607421875
0.010986328125
0.0032958984375
-0.0029296875
0.005126953125
-0.0208740234375
0.00146484375
-0.005126953125
0.0010986328125
-0.002197265625
0.0018310546875
-0.0040283203125
0.0010986328125
-0.0029296875
0.000732421875
-0.0025634765625
0.000732421875
-0.0047607421875
-0.00146484375
-0.0010986328125
0.002197265625
-0.0029296875
0.0047607421875
-0.0040283203125
-0.000732421875
0.0032958984375
-0.00146484375
0.005859375
0.0
0.003662109375
-0.000732421875
0.0003662109375
0.0
0.0029296875
0.000732421875
0.005126953125
-0.000732421875
0.0029296875
-0.0010986328125
0.0018310546875
0.0
0.00146484375
-0.0003662109375
-0.0010986328125
0.000732421875
-0.0025634765625
0.0003662109375
0.000732421875
-0.000732421875
0.0032958984375
0.0010986328125
0.0
0.000732421875
-0.00146484375
0.00146484375
0.000732421875
0.00146484375
0.000732421875
-0.000732421875
0.0
-0.0003662109375
-0.00439453125
0.0003662109375
-0.0087890625
0.0003662109375
0.0029296875
-0.003662109375
0.012451171875
-0.0054931640625
0.0087890625
-0.0032958984375
0.0029296875
-0.0029296875
0.0003662109375
-0.0047607421875
-0.0010986328125
-0.008056640625
0.0150146484375
-0.0047607421875
0.013916015625
-0.000732421875
-0.013916015625
-0.0018310546875
-0.0106201171875
-0.0010986328125
-0.00146484375
-0.0018310546875
-0.0025634765625
-0.002197265625
-0.0029296875
-0.000732421875
-0.002197265625
0.0
-0.0029296875
-0.00146484375
-0.0029296875
-0.002197265625
-0.0025634765625
-0.0003662109375
-0.002197265625
0.0003662109375
0.0003662109375
-0.0010986328125
0.0032958984375
-0.0010986328125
0.0010986328125
-0.0003662109375
-0.0018310546875
-0.000732421875
-0.0010986328125
0.0
-0.002197265625
0.0
0.0003662109375
-0.0025634765625
0.000732421875
-0.000732421875
-0.003662109375
0.000732421875
-0.00146484375
-0.0029296875
0.000732421875
-0.0029296875
-0.000732421875
-0.003662109375
-0.0010986328125
-0.0040283203125
-0.000732421875
-0.0032958984375
-0.0018310546875
-0.0032958984375
-0.002197265625
-0.0010986328125
-0.00146484375
0.0
-0.0010986328125
0.0
-0.003662109375
0.0010986328125
-0.01025390625
0.0018310546875
-0.0029296875
-0.0032958984375
0.012451171875
-0.005126953125
0.0098876953125
-0.000732421875
0.0025634765625
-0.0010986328125
0.002197265625
-0.0025634765625
-0.0025634765625
-0.00439453125
0.013916015625
-0.0032958984375
0.0164794921875
0.00146484375
-0.0128173828125
0.0029296875
-0.012451171875
0.0025634765625
-0.0010986328125
0.0003662109375
-0.0025634765625
-0.000732421875
-0.0010986328125
0.0
-0.0003662109375
0.000732421875
-0.002197265625
0.0003662109375
-0.002197265625
0.00146484375
-0.0047607421875
0.0010986328125
-0.008056640625
0.0018310546875
-0.00732421875
0.005126953125
-0.006591796875
0.00146484375
-0.0054931640625
-0.0010986328125
-0.003662109375
0.0003662109375
-0.0029296875
0.0003662109375
-0.0029296875
0.0010986328125
-0.0032958984375
0.0003662109375
0.0010986328125
-0.000732421875
0.0018310546875
-0.000732421875
0.0003662109375
-0.0003662109375
0.0029296875
0.0003662109375
0.00146484375
0.000732421875
-0.0003662109375
0.0010986328125
0.0
0.0003662109375
0.002197265625
0.0003662109375
0.003662109375
0.00146484375
0.002197265625
0.0010986328125
0.002197265625
0.00146484375
-0.00732421875
0.003662109375
-0.0054931640625
0.0003662109375
0.0150146484375
-0.0025634765625
0.0157470703125
-0.0010986328125
0.00732421875
-0.0018310546875
0.0062255859375
-0.000732421875
0.00439453125
-0.0003662109375
0.0040283203125
-0.002197265625
0.0186767578125
0.0018310546875
0.008056640625
0.0040283203125
-0.0084228515625
0.002197265625
0.0
0.0010986328125
0.000732421875
0.0029296875
0.0018310546875
0.0032958984375
0.00439453125
0.0047607421875
0.0040283203125
0.0
0.0069580078125
-0.00146484375
0.010986328125
0.0040283203125
0.006591796875
0.0010986328125
0.005859375
-0.0003662109375
0.0146484375
-0.0040283203125
0.015380859375
-0.0018310546875
0.0084228515625
0.0029296875
0.003662109375
0.0029296875
0.0025634765625
0.0010986328125
0.00439453125
0.0018310546875
0.0018310546875
0.002197265625
-0.000732421875
0.0
0.0
0.0029296875
-0.000732421875
0.0029296875
-0.0018310546875
0.00146484375
-0.0010986328125
0.0018310546875
-0.000732421875
0.002197265625
-0.0025634765625
0.0029296875
-0.003662109375
0.0025634765625
0.0003662109375
0.002197265625
0.0029296875
0.000732421875
-0.0003662109375
0.003662109375
-0.0120849609375
0.00439453125
-0.005126953125
0.00146484375
0.01318359375
0.00146484375
0.009521484375
0.0
0.0025634765625
0.00146484375
0.0003662109375
0.0029296875
-0.0025634765625
0.0010986328125
0.0003662109375
-0.000732421875
0.0146484375
0.0032958984375
0.0025634765625
0.005126953125
-0.0120849609375
0.000732421875
-0.0040283203125
0.00146484375
-0.00146484375
0.0
0.0
-0.00146484375
-0.0018310546875
0.000732421875
-0.002197265625
0.0010986328125
0.000732421875
0.0010986328125
-0.000732421875
-0.0003662109375
-0.0029296875
-0.000732421875
-0.00146484375
-0.002197265625
0.00146484375
-0.0032958984375
0.00146484375
-0.00146484375
-0.0003662109375
-0.0003662109375
-0.00146484375
0.0
-0.0025634765625
0.0
-0.002197265625
0.0003662109375
-0.0032958984375
0.0003662109375
-0.0018310546875
0.0003662109375
-0.00146484375
-0.0003662109375
-0.002197265625
-0.000732421875
-0.000732421875
0.0
-0.003662109375
0.0
-0.00439453125
-0.000732421875
-0.00146484375
0.0
-0.0018310546875
0.000732421875
-0.002197265625
-0.000732421875
-0.0003662109375
-0.000732421875
-0.00439453125
0.0025634765625
-0.0142822265625
0.000732421875
-0.0025634765625
-0.003662109375
0.0120849609375
-0.0032958984375
0.0106201171875
-0.003662109375
0.0040283203125
-0.002197265625
-0.002197265625
-0.0018310546875
-0.0047607421875
-0.0032958984375
0.0003662109375
-0.002197265625
0.01025390625
-0.000732421875
-0.00732421875
0.0003662109375
-0.0146484375
0.000732421875
-0.002197265625
-0.0003662109375
-0.000732421875
0.0
-0.0029296875
0.0010986328125
-0.0032958984375
0.0
-0.002197265625
0.0003662109375
-0.00146484375
-0.0025634765625
-0.0029296875
-0.005126953125
-0.0047607421875
-0.002197265625
-0.00146484375
0.0018310546875
0.002197265625
0.0018310546875
0.003662109375
0.0003662109375
0.0018310546875
0.0018310546875
0.0
0.003662109375
-0.0018310546875
0.0010986328125
-0.00146484375
-0.002197265625
0.002197265625
-0.002197265625
0.00146484375
-0.0076904296875
0.0003662109375
-0.009521484375
0.000732421875
-0.0076904296875
0.0010986328125
-0.0025634765625
-0.000732421875
0.0
-0.002197265625
-0.0003662109375
0.0
0.000732421875
0.000732421875
0.00146484375
-0.000732421875
0.00439453125
-0.0025634765625
0.002197265625
0.0
0.005126953125
-0.01318359375
0.0062255859375
-0.010986328125
0.000732421875
0.0128173828125
-0.0010986328125
0.0113525390625
0.0
0.0047607421875
0.0018310546875
0.000732421875
-0.0003662109375
-0.0025634765625
-0.0040283203125
-0.00146484375
-0.0032958984375
0.009521484375
-0.000732421875
0.0003662109375
-0.0025634765625
-0.01318359375
-0.0032958984375
-0.0029296875
-0.0040283203125
0.0
-0.0018310546875
-0.002197265625
-0.0003662109375
0.0
-0.0032958984375
0.000732421875
-0.0010986328125
-0.002197265625
-0.0010986328125
-0.0029296875
-0.002197265625
-0.00439453125
-0.0010986328125
-0.000732421875
-0.0025634765625
0.0040283203125
-0.0032958984375
0.003662109375
-0.000732421875
-0.00146484375
-0.000732421875
-0.002197265625
-0.002197265625
-0.000732421875
-0.0018310546875
-0.0010986328125
-0.0018310546875
0.0003662109375
-0.0010986328125
0.000732421875
-0.000732421875
-0.00146484375
-0.000732421875
-0.0025634765625
-0.0003662109375
0.0
0.0
-0.0003662109375
0.0003662109375
-0.00146484375
0.000732421875
-0.0018310546875
0.0029296875
-0.0032958984375
0.0040283203125
-0.0047607421875
0.0025634765625
-0.0040283203125
0.0018310546875
-0.003662109375
0.0010986328125
-0.00732421875
0.002197265625
-0.0113525390625
0.0018310546875
-0.0010986328125
-0.0032958984375
0.010986328125
-0.0040283203125
0.0054931640625
-0.0010986328125
0.0018310546875
-0.000732421875
0.0003662109375
-0.0010986328125
-0.0054931640625
-0.0018310546875
0.01171875
-0.0018310546875
0.015380859375
0.0010986328125
-0.012451171875
0.0032958984375
-0.01318359375
0.0010986328125
0.0003662109375
0.000732421875
0.000732421875
0.0025634765625
0.0
0.0010986328125
0.000732421875
0.0010986328125
0.0010986328125
0.0025634765625
-0.0010986328125
0.0018310546875
-0.0040283203125
0.0010986328125
-0.0032958984375
0.00146484375
0.0010986328125
0.0010986328125
0.00439453125
0.0025634765625
0.0010986328125
0.0040283203125
0.0003662109375
0.0010986328125
-0.002197265625
0.000732421875
-0.0029296875
0.000732421875
0.0
-0.000732421875
-0.0010986328125
-0.0003662109375
0.0
-0.000732421875
0.0010986328125
-0.0018310546875
0.0010986328125
-0.0032958984375
-0.0003662109375
-0.00146484375
-0.0025634765625
0.0
-0.0029296875
-0.0018310546875
-0.0040283203125
-0.0010986328125
-0.0040283203125
-0.0003662109375
-0.00146484375
-0.002197265625
-0.0018310546875
-0.0010986328125
-0.0135498046875
0.0025634765625
-0.00732421875
-0.0018310546875
0.0106201171875
-0.0054931640625
0.0087890625
-0.0010986328125
0.005126953125
-0.000732421875
-0.0003662109375
-0.000732421875
-0.0032958984375
-0.0025634765625
-0.0010986328125
-0.005126953125
0.009521484375
-0.0010986328125
0.002197265625
0.0010986328125
-0.0098876953125
0.0
-0.0029296875
0.0
-0.00146484375
0.0
-0.00146484375
-0.002197265625
0.0003662109375
-0.0003662109375
0.0010986328125
0.00146484375
-0.00146484375
-0.0010986328125
-0.0029296875
0.000732421875
-0.0047607421875
0.0003662109375
-0.0018310546875
-0.002197265625
0.005126953125
-0.0010986328125
0.005859375
-0.000732421875
0.0025634765625
-0.000732421875
0.00146484375
-0.000732421875
0.000732421875
0.0
-0.0003662109375
0.0003662109375
0.000732421875
-0.002197265625
0.000732421875
-0.0003662109375
0.000732421875
0.0
0.0040283203125
-0.0010986328125
0.003662109375
-0.0003662109375
0.000732421875
-0.0010986328125
0.0010986328125
0.0
0.00146484375
0.0
-0.0003662109375
-0.0018310546875
0.0003662109375
-0.002197265625
0.0018310546875
-0.00146484375
-0.000732421875
0.0025634765625
-0.0128173828125
0.0040283203125
-0.0054931640625
-0.0018310546875
0.0146484375
-0.002197265625
0.0142822265625
0.0
0.006591796875
0.0010986328125
0.0010986328125
0.0018310546875
0.0003662109375
-0.0010986328125
0.00146484375
-0.0025634765625
0.0150146484375
0.0025634765625
0.0032958984375
0.00439453125
-0.0120849609375
0.00439453125
-0.00146484375
0.0047607421875
-0.000732421875
0.0047607421875
-0.00146484375
0.006591796875
-0.0003662109375
0.005126953125
0.000732421875
0.005126953125
-0.000732421875
0.00439453125
-0.0025634765625
0.0047607421875
-0.0029296875
0.003662109375
0.0003662109375
0.000732421875
0.00439453125
0.000732421875
0.00439453125
0.0029296875
0.0018310546875
0.0040283203125
-0.0010986328125
0.002197265625
0.0003662109375
0.000732421875
0.0010986328125
-0.0003662109375
0.0018310546875
-0.0010986328125
0.005126953125
0.0003662109375
0.0025634765625
0.0003662109375
0.0
0.0
0.0025634765625
-0.0003662109375
0.002197265625
0.0
0.0010986328125
0.0010986328125
-0.0003662109375
0.0029296875
-0.000732421875
0.003662109375
0.0003662109375
0.0032958984375
-0.000732421875
0.0054931640625
-0.0003662109375
0.0047607421875
-0.005126953125
0.00732421875
-0.0087890625
0.0047607421875
0.0025634765625
-0.000732421875
0.009521484375
-0.0018310546875
0.0054931640625
-0.0040283203125
0.0032958984375
-0.0025634765625
-0.0010986328125
-0.0010986328125
-0.0062255859375
-0.0047607421875
0.0146484375
-0.0025634765625
0.010986328125
0.0029296875
-0.0164794921875
0.0010986328125
-0.010986328125
0.000732421875
-0.002197265625
0.0003662109375
-0.002197265625
-0.0003662109375
-0.00146484375
0.000732421875
-0.0003662109375
0.000732421875
-0.002197265625
0.0018310546875
-0.0025634765625
0.0029296875
-0.003662109375
0.0018310546875
-0.0032958984375
-0.0010986328125
0.000732421875
-0.0018310546875
0.0047607421875
0.0
0.0029296875
-0.0003662109375
-0.000732421875
-0.000732421875
-0.0010986328125
-0.000732421875
-0.0003662109375
0.0
-0.0010986328125
0.0
0.0
0.0
0.00146484375
-0.000732421875
-0.0018310546875
-0.002197265625
-0.00146484375
0.0
0.0018310546875
-0.00146484375
0.0025634765625
-0.002197265625
0.0
-0.0003662109375
-0.00146484375
-0.000732421875
-0.000732421875
0.0
-0.000732421875
0.0
-0.000732421875
-0.00146484375
-0.0029296875
0.00146484375
-0.01171875
0.0025634765625
-0.0029296875
-0.0029296875
0.0128173828125
-0.005859375
0.0076904296875
-0.00439453125
0.002197265625
-0.00146484375
0.0003662109375
0.0003662109375
-0.0025634765625
-0.002197265625
0.0054931640625
-0.0040283203125
0.0142822265625
0.000732421875
-0.005859375
0.002197265625
-0.0146484375
0.0003662109375
-0.0025634765625
0.00146484375
-0.000732421875
0.0010986328125
-0.0003662109375
0.0010986328125
-0.000732421875
0.0003662109375
0.0
-0.0003662109375
-0.0010986328125
0.0018310546875
-0.00439453125
0.0010986328125
-0.0040283203125
-0.00146484375
0.0003662109375
-0.0018310546875
0.00439453125
-0.0018310546875
0.0029296875
-0.00146484375
0.00146484375
-0.0003662109375
0.0003662109375
0.0
-0.00146484375
-0.002197265625
0.0003662109375
-0.0029296875
0.002197265625
-0.00146484375
0.000732421875
-0.000732421875
-0.000732421875
-0.000732421875
-0.0003662109375
-0.0010986328125
0.0
0.0003662109375
-0.0010986328125
-0.0003662109375
-0.0025634765625
-0.00146484375
0.0003662109375
-0.0003662109375
0.00146484375
-0.0003662109375
0.0
-0.0003662109375
-0.0010986328125
0.0
-0.000732421875
0.0
-0.006591796875
0.000732421875
-0.0098876953125
-0.00146484375
0.0069580078125
-0.003662109375
0.01171875
-0.0018310546875
0.0062255859375
-0.0010986328125
0.003662109375
0.000732421875
-0.00146484375
0.000732421875
-0.0029296875
-0.0032958984375
0.017578125
-0.002197265625
0.0076904296875
0.00146484375
-0.0186767578125
0.0003662109375
-0.0091552734375
-0.00146484375
-0.0010986328125
-0.000732421875
-0.0003662109375
-0.0018310546875
-0.0018310546875
-0.000732421875
-0.00146484375
0.000732421875
-0.0018310546875
-0.0010986328125
-0.000732421875
-0.0010986328125
-0.00439453125
-0.0003662109375
-0.005126953125
-0.0025634765625
0.002197265625
-0.002197265625
0.005126953125
-0.0010986328125
0.0029296875
-0.0025634765625
0.00146484375
-0.0018310546875
0.000732421875
-0.00146484375
-0.0003662109375
-0.0010986328125
-0.0010986328125
-0.00146484375
-0.0003662109375
-0.0029296875
0.00146484375
-0.003662109375
0.0010986328125
-0.002197265625
0.0
-0.0010986328125
-0.000732421875
-0.0025634765625
-0.00146484375
-0.002197265625
-0.0010986328125
-0.0010986328125
-0.0003662109375
-0.00146484375
0.0003662109375
0.0
-0.000732421875
0.0010986328125
-0.0029296875
0.0
-0.0029296875
0.0029296875
-0.010986328125
0.003662109375
-0.005126953125
-0.0010986328125
0.0106201171875
-0.003662109375
0.0087890625
-0.00146484375
0.0029296875
0.0003662109375
-0.00146484375
-0.0003662109375
-0.0029296875
-0.002197265625
0.0040283203125
-0.0032958984375
0.0146484375
0.0003662109375
-0.005126953125
0.0029296875
-0.0142822265625
0.0003662109375
0.0018310546875
0.000732421875
0.0
0.0018310546875
-0.0025634765625
-0.0018310546875
-0.00146484375
-0.000732421875
-0.000732421875
-0.000732421875
-0.0018310546875
0.0
-0.0032958984375
0.0032958984375
-0.0018310546875
0.002197265625
-0.0003662109375
0.000732421875
0.0
0.000732421875
0.000732421875
0.0032958984375
0.0003662109375
0.0040283203125
-0.00146484375
0.0029296875
-0.0018310546875
0.0029296875
-0.0018310546875
0.0032958984375
-0.002197265625
0.0047607421875
-0.00146484375
0.0040283203125
-0.0003662109375
0.0029296875
0.0
0.002197265625
0.0018310546875
0.000732421875
0.0032958984375
0.0
0.0040283203125
0.0003662109375
0.0040283203125
-0.0003662109375
0.0010986328125
-0.0025634765625
0.0
-0.00439453125
-0.000732421875
-0.00439453125
-0.003662109375
-0.0010986328125
-0.0084228515625
0.0
-0.00146484375
-0.003662109375
0.010986328125
-0.0047607421875
0.0076904296875
-0.003662109375
0.0010986328125
-0.0029296875
-0.000732421875
-0.003662109375
-0.0040283203125
-0.005126953125
0.0062255859375
-0.0040283203125
0.009521484375
0.0010986328125
-0.01318359375
0.0018310546875
-0.0146484375
-0.0010986328125
-0.002197265625
-0.000732421875
-0.0018310546875
-0.000732421875
-0.002197265625
0.000732421875
-0.0018310546875
-0.0003662109375
-0.0029296875
-0.0010986328125
-0.00439453125
-0.000732421875
-0.0018310546875
-0.000732421875
-0.000732421875
-0.000732421875
0.00146484375
-0.0018310546875
0.0025634765625
-0.0010986328125
0.0010986328125
-0.0010986328125
0.000732421875
-0.0010986328125
0.0003662109375
0.0
-0.0010986328125
0.0003662109375
-0.0010986328125
0.0018310546875
0.0
0.00146484375
0.0
0.002197265625
0.000732421875
0.0029296875
0.00146484375
0.002197265625
0.00146484375
0.00146484375
0.0003662109375
0.0010986328125
-0.0003662109375
0.0025634765625
-0.0010986328125
0.0029296875
0.0010986328125
0.0029296875
0.0
0.0029296875
-0.0010986328125
0.002197265625
-0.0010986328125
0.0054931640625
-0.010986328125
0.0069580078125
-0.0029296875
0.0003662109375
0.01318359375
-0.0032958984375
0.0128173828125
-0.00146484375
0.006591796875
-0.00146484375
0.0025634765625
0.0003662109375
0.0
0.0
0.0025634765625
-0.0018310546875
0.0135498046875
0.0018310546875
-0.0025634765625
0.0029296875
-0.0113525390625
0.0003662109375
0.00146484375
0.0
0.000732421875
0.000732421875
-0.0003662109375
0.0
0.000732421875
0.000732421875
0.000732421875
0.00146484375
-0.000732421875
0.0010986328125
-0.0018310546875
0.0003662109375
-0.0025634765625
0.00146484375
0.000732421875
0.000732421875
0.0054931640625
-0.0010986328125
0.005126953125
0.0003662109375
0.0040283203125
0.0010986328125
0.000732421875
0.0003662109375
0.0
-0.0003662109375
0.0010986328125
-0.0003662109375
0.0003662109375
0.00146484375
0.002197265625
0.000732421875
0.0010986328125
-0.000732421875
-0.0003662109375
0.000732421875
0.0003662109375
0.000732421875
0.0010986328125
0.0
0.0010986328125
0.0018310546875
0.0003662109375
0.0018310546875
0.0
0.000732421875
0.0
0.0010986328125
0.0
0.00146484375
-0.0003662109375
0.003662109375
-0.012451171875
0.0047607421875
-0.01025390625
0.000732421875
0.0128173828125
-0.002197265625
0.0128173828125
-0.0003662109375
0.0040283203125
-0.000732421875
0.0010986328125
0.0003662109375
-0.0018310546875
0.0018310546875
-0.0025634765625
-0.0029296875
0.016845703125
0.0003662109375
0.0047607421875
0.00439453125
-0.017578125
0.002197265625
-0.0069580078125
0.0018310546875
-0.003662109375
0.0
-0.00146484375
-0.0003662109375
-0.00146484375
0.00146484375
-0.00146484375
0.002197265625
-0.0010986328125
0.002197265625
-0.00146484375
0.0010986328125
-0.00146484375
0.000732421875
-0.002197265625
0.000732421875
0.0
-0.0003662109375
0.003662109375
0.0003662109375
0.0025634765625
-0.000732421875
0.0010986328125
-0.0018310546875
0.000732421875
-0.000732421875
0.0
-0.000732421875
-0.000732421875
-0.000732421875
0.0003662109375
-0.0010986328125
0.0
-0.0003662109375
0.0003662109375
0.000732421875
0.000732421875
-0.000732421875
-0.0003662109375
0.0
0.0
0.000732421875
-0.0003662109375
0.0
0.000732421875
0.0003662109375
0.0003662109375
0.0003662109375
0.0003662109375
0.0010986328125
-0.0003662109375
0.0003662109375
-0.0010986328125
-0.0010986328125
-0.0029296875
0.002197265625
-0.0106201171875
0.0025634765625
-0.0029296875
-0.0025634765625
0.01171875
-0.003662109375
0.0106201171875
-0.0003662109375
0.003662109375
0.0
-0.0003662109375
-0.0018310546875
-0.00146484375
-0.0032958984375
0.00732421875
-0.0040283203125
0.013916015625
0.0010986328125
-0.005859375
0.0029296875
-0.013916015625
0.0018310546875
-0.003662109375
0.0029296875
-0.0018310546875
0.002197265625
-0.0018310546875
0.002197265625
-0.002197265625
0.0003662109375
0.0003662109375
0.000732421875
0.0003662109375
0.0029296875
-0.003662109375
0.0029296875
-0.002197265625
-0.0003662109375
0.0018310546875
-0.002197265625
0.003662109375
0.0018310546875
0.0029296875
0.002197265625
0.000732421875
0.0
0.00146484375
0.0
0.002197265625
0.000732421875
0.0010986328125
0.0003662109375
0.0010986328125
-0.000732421875
0.00146484375
0.0003662109375
-0.000732421875
0.00146484375
-0.0025634765625
0.0018310546875
0.0
-0.0003662109375
0.000732421875
-0.0018310546875
0.0
-0.0010986328125
-0.0003662109375
-0.000732421875
-0.0010986328125
0.0
-0.000732421875
-0.002197265625
-0.000732421875
-0.0025634765625
0.000732421875
-0.0003662109375
0.0003662109375
0.0025634765625
-0.0135498046875
0.0040283203125
-0.0084228515625
-0.0040283203125
0.0146484375
-0.005859375
0.0142822265625
-0.0018310546875
0.005126953125
-0.000732421875
0.0
0.0
-0.0010986328125
-0.0029296875
-0.0003662109375
-0.005859375
0.01171875
-0.0032958984375
0.0010986328125
0.00146484375
-0.0157470703125
0.0
-0.005859375
-0.000732421875
-0.0010986328125
-0.0010986328125
-0.0003662109375
0.0003662109375
0.0003662109375
0.000732421875
-0.0003662109375
-0.0010986328125
-0.000732421875
0.0010986328125
-0.00146484375
0.0003662109375
-0.0040283203125
0.002197265625
-0.0040283203125
0.00146484375
0.002197265625
-0.002197265625
0.0040283203125
-0.0003662109375
-0.0003662109375
-0.000732421875
0.0010986328125
-0.00146484375
0.0010986328125
-0.00146484375
0.0
-0.00146484375
0.00146484375
-0.0010986328125
0.00146484375
-0.002197265625
0.00146484375
-0.0003662109375
-0.000732421875
0.00146484375
-0.00146484375
-0.0003662109375
0.0010986328125
-0.000732421875
0.000732421875
0.000732421875
0.0
0.0010986328125
-0.000732421875
0.000732421875
-0.000732421875
0.0
-0.000732421875
0.00146484375
-0.0018310546875
0.0018310546875
-0.00146484375
0.000732421875
-0.0018310546875
0.0040283203125
-0.015380859375
0.005126953125
-0.0091552734375
0.0
0.013916015625
-0.0032958984375
0.01171875
-0.0010986328125
0.0029296875
0.0018310546875
-0.000732421875
0.00146484375
-0.0010986328125
-0.0003662109375
-0.00146484375
-0.00146484375
0.0098876953125
0.0003662109375
0.0
0.002197265625
-0.0135498046875
0.00146484375
-0.003662109375
0.000732421875
-0.0003662109375
0.0003662109375
0.000732421875
0.0010986328125
-0.000732421875
0.0025634765625
-0.0029296875
0.000732421875
-0.0025634765625
0.0003662109375
-0.0018310546875
0.0010986328125
-0.0025634765625
-0.0010986328125
0.000732421875
-0.00146484375
0.005859375
-0.0003662109375
0.0054931640625
0.00146484375
0.0
0.0010986328125
-0.00146484375
0.0
0.0010986328125
-0.00146484375
0.0018310546875
-0.00146484375
0.0010986328125
0.0018310546875
0.0
0.00146484375
0.000732421875
-0.00146484375
0.00146484375
-0.002197265625
0.0029296875
0.0010986328125
0.0025634765625
0.000732421875
0.0003662109375
-0.00146484375
0.00146484375
-0.0003662109375
0.000732421875
0.0
-0.0018310546875
-0.0003662109375
-0.0018310546875
-0.0010986328125
-0.0003662109375
-0.0010986328125
-0.002197265625
0.000732421875
-0.0150146484375
0.0029296875
-0.0106201171875
-0.0018310546875
0.012451171875
-0.0047607421875
0.0113525390625
-0.002197265625
0.0025634765625
-0.0010986328125
0.0025634765625
0.0003662109375
-0.000732421875
-0.0010986328125
-0.0047607421875
-0.0047607421875
0.0084228515625
-0.0003662109375
0.0018310546875
0.002197265625
-0.0157470703125
-0.000732421875
-0.006591796875
0.0003662109375
-0.0018310546875
0.000732421875
-0.0025634765625
-0.000732421875
-0.0010986328125
-0.0003662109375
-0.0018310546875
0.00146484375
-0.0018310546875
0.0010986328125
-0.0025634765625
0.000732421875
-0.0029296875
-0.0003662109375
-0.0003662109375
-0.0018310546875
0.00146484375
-0.00146484375
0.0025634765625
-0.000732421875
0.0025634765625
0.0
-0.002197265625
-0.00146484375
-0.0018310546875
-0.00146484375
-0.0010986328125
-0.0003662109375
-0.00146484375
-0.0003662109375
0.0029296875
0.0003662109375
0.00146484375
0.0
-0.000732421875
0.0
-0.0010986328125
0.0
0.0
0.0003662109375
0.0
0.000732421875
-0.00146484375
0.00146484375
0.0
0.0010986328125
0.0010986328125
-0.0003662109375
0.0010986328125
0.0003662109375
0.0018310546875
0.0003662109375
0.0003662109375
0.0003662109375
-0.00439453125
0.0029296875
-0.009521484375
0.002197265625
0.0025634765625
-0.0025634765625
0.0135498046875
-0.0018310546875
0.0087890625
0.000732421875
0.0032958984375
0.0003662109375
0.0003662109375
-0.00146484375
-0.005126953125
-0.0047607421875
0.01318359375
-0.003662109375
0.015380859375
0.0032958984375
-0.0150146484375
0.003662109375
-0.012451171875
-0.0018310546875
-0.0010986328125
-0.002197265625
0.0003662109375
0.0
0.0010986328125
0.0
0.0018310546875
-0.00146484375
0.00146484375
-0.0018310546875
0.0003662109375
0.0
-0.002197265625
-0.0003662109375
-0.0025634765625
-0.003662109375
0.0025634765625
-0.0040283203125
0.005859375
-0.0032958984375
0.0047607421875
-0.0025634765625
0.00146484375
-0.0010986328125
-0.0003662109375
-0.0003662109375
0.0018310546875
-0.0025634765625
0.0054931640625
-0.0040283203125
0.0018310546875
-0.0032958984375
-0.000732421875
-0.0029296875
0.00146484375
-0.0029296875
0.002197265625
-0.003662109375
0.0025634765625
-0.0018310546875
0.0003662109375
-0.0025634765625
0.0003662109375
-0.0032958984375
0.000732421875
-0.0032958984375
0.0003662109375
-0.0025634765625
0.0
-0.0010986328125
-0.0003662109375
-0.0032958984375
0.002197265625
-0.0025634765625
-0.0029296875
0.000732421875
-0.0128173828125
0.0010986328125
-0.002197265625
-0.0029296875
0.01318359375
-0.0032958984375
0.010986328125
-0.0010986328125
0.003662109375
0.0
0.0003662109375
0.0003662109375
-0.00439453125
-0.000732421875
0.0084228515625
-0.0010986328125
0.01904296875
0.002197265625
-0.0076904296875
0.00439453125
-0.0142822265625
0.003662109375
-0.0018310546875
0.003662109375
-0.003662109375
0.0010986328125
-0.00146484375
0.0010986328125
0.000732421875
0.0040283203125
0.000732421875
0.0032958984375
0.002197265625
0.000732421875
0.000732421875
0.0010986328125
-0.0032958984375
0.000732421875
-0.000732421875
-0.00146484375
0.0054931640625
0.00146484375
0.0029296875
0.002197265625
0.0010986328125
0.0010986328125
0.0032958984375
0.000732421875
0.0025634765625
0.0
0.0029296875
0.00146484375
0.0003662109375
0.0010986328125
-0.000732421875
0.002197265625
0.00146484375
0.00146484375
0.0003662109375
0.0
0.000732421875
0.0
0.0010986328125
-0.0003662109375
-0.000732421875
0.00146484375
-0.0010986328125
0.00146484375
0.0
0.0018310546875
-0.0018310546875
0.0029296875
-0.002197265625
0.0032958984375
0.0
0.00146484375
-0.002197265625
0.002197265625
-0.0120849609375
0.005126953125
-0.00439453125
0.0010986328125
0.013916015625
-0.00146484375
0.01025390625
0.0
0.0032958984375
-0.0003662109375
0.002197265625
0.0010986328125
-0.003662109375
0.000732421875
0.002197265625
0.0010986328125
0.0128173828125
0.005126953125
-0.005859375
0.0047607421875
-0.016845703125
0.0025634765625
-0.005859375
0.0018310546875
-0.0029296875
0.00146484375
-0.0010986328125
0.0018310546875
0.0
0.003662109375
-0.002197265625
0.00146484375
-0.0025634765625
0.0
-0.0010986328125
0.002197265625
-0.0032958984375
0.0029296875
-0.0018310546875
0.00146484375
0.00439453125
0.000732421875
0.003662109375
0.0003662109375
0.0003662109375
0.002197265625
-0.0018310546875
0.0029296875
-0.0018310546875
0.0018310546875
-0.0003662109375
0.0010986328125
-0.0010986328125
-0.000732421875
-0.0010986328125
-0.0010986328125
0.000732421875
0.000732421875
-0.0003662109375
0.0018310546875
-0.000732421875
0.000732421875
0.0010986328125
0.000732421875
-0.0010986328125
0.000732421875
-0.000732421875
0.002197265625
0.0010986328125
0.0025634765625
-0.00146484375
0.00146484375
-0.00146484375
0.0003662109375
0.0
0.0
-0.0010986328125
0.0029296875
-0.0142822265625
0.0032958984375
-0.0084228515625
-0.00146484375
0.0157470703125
-0.0032958984375
0.010986328125
-0.00146484375
0.0003662109375
-0.0010986328125
0.00146484375
-0.0003662109375
0.0010986328125
-0.000732421875
-0.0025634765625
-0.00439453125
0.0091552734375
-0.0010986328125
0.0010986328125
0.002197265625
-0.01318359375
0.0003662109375
-0.005859375
-0.000732421875
-0.0003662109375
-0.0003662109375
0.0003662109375
0.00146484375
-0.0040283203125
-0.0003662109375
0.0
-0.000732421875
-0.0003662109375
0.0
-0.003662109375
0.0
-0.00146484375
0.0003662109375
-0.000732421875
0.000732421875
0.002197265625
0.0
0.003662109375
0.0
0.00146484375
0.0003662109375
0.0
-0.0003662109375
-0.0003662109375
0.0018310546875
0.000732421875
0.000732421875
-0.0003662109375
0.0
-0.000732421875
0.00146484375
-0.000732421875
0.0010986328125
-0.0010986328125
0.0010986328125
-0.002197265625
0.0010986328125
-0.0010986328125
-0.0003662109375
0.000732421875
-0.000732421875
-0.00146484375
0.0010986328125
-0.0003662109375
-0.000732421875
0.0
-0.000732421875
-0.0003662109375
0.000732421875
0.0010986328125
0.0003662109375
0.0003662109375
0.0029296875
-0.0113525390625
0.0040283203125
-0.0062255859375
-0.0018310546875
0.0128173828125
-0.0054931640625
0.012451171875
-0.0018310546875
0.0076904296875
-0.0003662109375
0.0032958984375
-0.0003662109375
-0.000732421875
-0.00146484375
0.0025634765625
-0.0029296875
0.01025390625
-0.0003662109375
-0.0029296875
0.00146484375
-0.012451171875
0.0
-0.0029296875
-0.00146484375
-0.0032958984375
-0.000732421875
-0.0054931640625
-0.0010986328125
-0.0018310546875
-0.0018310546875
-0.0010986328125
-0.000732421875
-0.00146484375
0.00146484375
-0.00146484375
0.000732421875
-0.0047607421875
-0.00146484375
-0.0029296875
-0.002197265625
0.0029296875
-0.0029296875
0.00146484375
-0.0029296875
-0.00146484375
-0.0025634765625
0.0
-0.0018310546875
-0.0018310546875
-0.0003662109375
-0.002197265625
-0.0003662109375
0.0003662109375
-0.0010986328125
0.0
-0.00146484375
-0.0010986328125
-0.0018310546875
0.0
-0.000732421875
-0.0010986328125
-0.0003662109375
-0.002197265625
-0.000732421875
-0.0003662109375
-0.0003662109375
0.0
-0.0003662109375
0.0003662109375
-0.0003662109375
0.0
0.0010986328125
0.0010986328125
0.0003662109375
0.00146484375
0.000732421875
-0.01171875
0.0029296875
-0.01171875
0.0
0.01171875
-0.0040283203125
0.0146484375
-0.002197265625
0.0062255859375
0.0003662109375
0.0029296875
-0.000732421875
-0.0018310546875
-0.0018310546875
-0.0003662109375
-0.002197265625
0.01318359375
0.0003662109375
0.0010986328125
0.0029296875
-0.01318359375
0.0010986328125
-0.0025634765625
0.0010986328125
-0.0010986328125
0.00146484375
-0.00146484375
0.000732421875
0.0
0.000732421875
-0.0003662109375
0.0010986328125
-0.002197265625
0.0029296875
-0.002197265625
0.0025634765625
-0.0029296875
0.000732421875
-0.0029296875
-0.0003662109375
0.002197265625
-0.0018310546875
0.0062255859375
-0.00146484375
0.0025634765625
0.0
0.000732421875
-0.000732421875
0.000732421875
-0.0003662109375
0.0
-0.0018310546875
0.0010986328125
-0.003662109375
0.0003662109375
-0.0018310546875
-0.0003662109375
-0.0025634765625
0.0018310546875
-0.002197265625
0.00146484375
-0.002197265625
-0.0010986328125
-0.0032958984375
-0.000732421875
-0.0025634765625
0.000732421875
-0.002197265625
-0.0003662109375
-0.000732421875
0.0
-0.0018310546875
0.0003662109375
-0.0003662109375
-0.0010986328125
-0.0003662109375
-0.0029296875
0.0010986328125
-0.0113525390625
0.0025634765625
-0.0010986328125
-0.0032958984375
0.0135498046875
-0.005126953125
0.0106201171875
-0.0029296875
0.0047607421875
-0.0010986328125
0.0
-0.000732421875
-0.005859375
-0.0025634765625
0.005859375
-0.003662109375
0.01611328125
0.0025634765625
-0.01025390625
0.0040283203125
-0.01611328125
0.0
-0.002197265625
0.00146484375
-0.00146484375
0.00146484375
-0.002197265625
0.000732421875
-0.002197265625
0.002197265625
-0.00146484375
0.000732421875
-0.000732421875
-0.0018310546875
-0.0040283203125
0.0018310546875
-0.00439453125
0.002197265625
0.0025634765625
-0.0010986328125
0.005126953125
-0.0003662109375
0.00439453125
0.0010986328125
0.000732421875
0.000732421875
-0.000732421875
-0.0010986328125
0.000732421875
-0.0003662109375
0.0025634765625
0.000732421875
0.00146484375
0.0018310546875
0.0
0.0010986328125
0.0010986328125
-0.0010986328125
0.0
0.000732421875
-0.0003662109375
0.00146484375
0.0
0.0003662109375
0.0
0.0
-0.0010986328125
0.000732421875
-0.000732421875
0.0029296875
-0.000732421875
0.0010986328125
-0.000732421875
-0.0003662109375
-0.0003662109375
0.0032958984375
-0.0135498046875
0.0040283203125
-0.008056640625
-0.0003662109375
0.013916015625
-0.002197265625
0.0128173828125
0.0
0.0054931640625
0.0010986328125
0.0003662109375
0.00146484375
-0.002197265625
-0.00146484375
0.0
-0.0047607421875
0.0142822265625
-0.000732421875
0.0025634765625
0.003662109375
-0.0146484375
0.0032958984375
-0.003662109375
0.0018310546875
0.0
0.0010986328125
-0.000732421875
-0.0003662109375
0.00146484375
-0.0003662109375
0.00146484375
0.0010986328125
0.0003662109375
0.003662109375
-0.000732421875
0.003662109375
-0.0029296875
-0.0040283203125
-0.000732421875
-0.006591796875
0.005126953125
-0.0054931640625
0.0062255859375
-0.006591796875
0.0032958984375
-0.0032958984375
0.0029296875
-0.0018310546875
0.0029296875
0.0010986328125
0.0025634765625
0.0032958984375
0.0029296875
0.003662109375
0.0010986328125
0.003662109375
0.0
0.005126953125
-0.0003662109375
0.0062255859375
-0.0010986328125
0.006591796875
-0.000732421875
0.0069580078125
-0.000732421875
0.0091552734375
-0.000732421875
0.0091552734375
-0.00146484375
0.0062255859375
-0.002197265625
0.0069580078125
-0.000732421875
0.005859375
-0.002197265625
0.0062255859375
-0.015380859375
0.008056640625
-0.01171875
-0.0032958984375
0.01025390625
-0.012451171875
0.015380859375
-0.005859375
0.0076904296875
-0.0029296875
-0.0040283203125
-0.01171875
-0.0047607421875
-0.0234375
0.0003662109375
-0.0333251953125
0.012451171875
-0.0303955078125
0.0
-0.0150146484375
-0.015380859375
-0.00732421875
-0.005126953125
-0.003662109375
-0.00732421875
-0.0062255859375
-0.0040283203125
-0.00732421875
-0.0003662109375
-0.0018310546875
-0.0010986328125
0.0003662109375
-0.0010986328125
0.000732421875
-0.0025634765625
0.0018310546875
-0.0054931640625
0.002197265625
-0.0010986328125
0.000732421875
0.00439453125
0.0003662109375
0.0018310546875
0.002197265625
0.00146484375
0.0047607421875
-0.00146484375
0.005859375
-0.0025634765625
0.0047607421875
0.000732421875
0.00439453125
0.0010986328125
0.005126953125
0.0003662109375
0.0047607421875
0.0
0.006591796875
-0.00146484375
0.0054931640625
-0.0018310546875
0.0010986328125
0.000732421875
0.00146484375
0.0
0.0003662109375
-0.0003662109375
0.00146484375
0.0018310546875
0.003662109375
0.0018310546875
0.005859375
0.0
0.005859375
0.0010986328125
0.005859375
-0.00732421875
0.0091552734375
-0.0098876953125
0.0032958984375
0.0113525390625
-0.0003662109375
0.01611328125
0.0040283203125
0.00732421875
0.00439453125
0.00439453125
0.005126953125
-0.00146484375
0.005859375
-0.002197265625
0.00146484375
0.017578125
0.0062255859375
0.00439453125
0.0087890625
-0.017578125
0.0029296875
-0.00439453125
0.0010986328125
-0.00146484375
0.00146484375
-0.0029296875
0.0025634765625
-0.0003662109375
0.00146484375
0.0003662109375
0.0029296875
0.0003662109375
0.005126953125
0.003662109375
0.003662109375
0.003662109375
0.0010986328125
0.0003662109375
-0.002197265625
0.0010986328125
-0.003662109375
0.00439453125
-0.0032958984375
0.0029296875
-0.00439453125
-0.00146484375
-0.0040283203125
-0.0029296875
-0.005126953125
0.0
-0.005859375
0.0029296875
-0.005126953125
0.003662109375
-0.00439453125
0.002197265625
-0.00439453125
0.003662109375
-0.00439453125
0.0032958984375
-0.00146484375
0.0
0.000732421875
0.0
-0.0018310546875
0.0
-0.0032958984375
0.0
-0.0010986328125
0.0
0.000732421875
0.0
0.000732421875
0.0
0.000732421875
-0.01171875
0.0003662109375
-0.008056640625
-0.0054931640625
0.0146484375
-0.0069580078125
0.0150146484375
-0.0040283203125
0.005859375
-0.0047607421875
0.0032958984375
-0.0040283203125
0.0018310546875
-0.005126953125
0.0018310546875
-0.0054931640625
0.0091552734375
-0.0010986328125
-0.0047607421875
0.0003662109375
-0.0146484375
-0.0025634765625
-0.006591796875
0.0281982421875
-0.0172119140625
0.03076171875
-0.0128173828125
