0.749725341796875
-0.749725341796875
0.749725341796875
-0.749725341796875
0.0
0.0
0.0
0.0
0.0
0.0
0.0
0.0
0.0
0.0
0.0
0.0
0.0
0.0
0.0
0.0
0.0
0.0
0.0
0.0
0.0
0.0
0.0
0.0
0.0
0.0
0.0
0.0
0.0
0.0
0.0
0.0
0.0
0.0
0.0
0.0
0.0
0.0
0.0
0.0
0.0
0.0
0.0
0.0
0.0
0.0
0.0
0.0
0.0
0.0
0.0
0.0
0.0
0.0
0.0
0.0
0.0
0.0
0.0
0.0
0.0
0.242462158203125
0.0
0.141754150390625
0.0
-0.242462158203125
0.0
-0.141754150390625
0.0
0.0
0.0
0.0
-1.0
0.0
-1.0
0.0
0.0
0.0
0.0
0.0
0.152374267578125
0.0
0.32818603515625
0.0
0.356719970703125
0.0
0.180908203125
0.0
-0.046142578125
0.0
0.01318359375
0.0
0.0201416015625
0.0
-0.1563720703125
0.0
-0.168121337890625
0.0
-0.265533447265625
0.0
-0.314971923828125
0.0
-0.100372314453125
0.0
0.0
0.0
0.0
0.0
0.0
0.0
0.038116455078125
0.0
0.45379638671875
0.0
0.60504150390625
0.0
0.421539306640625
0.0
0.392974853515625
0.0
0.206573486328125
0.0
-0.182403564453125
0.0
-0.49517822265625
0.0
-0.218994140625
0.0
0.180938720703125
0.0
-0.217559814453125
0.0
-0.767669677734375
0.0
-0.41717529296875
0.0
0.0
0.0
0.0
0.0
0.0
0.0
0.188995361328125
0.0
0.44683837890625
0.0
0.47357177734375
0.0
0.365142822265625
0.0
0.251617431640625
0.0
0.172882080078125
0.0
0.1234130859375
0.0
0.0809326171875
0.0
0.0443115234375
0.0
-0.0029296875
0.0
0.0025634765625
0.0
-0.017578125
0.0
-0.0574951171875
0.0
-0.0556640625
0.0
-0.04248046875
0.0
0.05712890625
0.0
0.111328125
0.0
0.0670166015625
0.065948486328125
-0.05712890625
0.196685791015625
-0.10986328125
0.20947265625
-0.06884765625
0.155303955078125
-0.029296875
0.077301025390625
-0.00439453125
0.0054931640625
0.03515625
0.0054931640625
-0.044677734375
0.0355224609375
0.0087890625
0.0245361328125
0.0970458984375
-0.104400634765625
-0.02197265625
-0.175811767578125
-0.052001953125
-0.287872314453125
0.00146484375
-0.206939697265625
0.02783203125
-0.000732421875
-0.05419921875
0.0
-0.0999755859375
0.0
-0.151641845703125
0.0047607421875
-0.43841552734375
0.50177001953125
-0.1278076171875
0.43255615234375
0.373199462890625
-0.073974609375
0.220458984375
-0.018310546875
0.078033447265625
-0.07763671875
-0.0146484375
-0.0908203125
-0.041778564453125
-0.037384033203125
0.0029296875
0.006591796875
0.02490234375
0.033355712890625
0.000732421875
0.029296875
-0.021240234375
0.0362548828125
-0.0545654296875
0.0303955078125
-0.0867919921875
-0.02197265625
0.041015625
-0.111724853515625
0.139556884765625
-0.157501220703125
0.114288330078125
-0.0919189453125
0.06591796875
0.0084228515625
0.0120849609375
0.0450439453125
-0.016845703125
0.0523681640625
-0.0208740234375
0.0435791015625
-0.003662109375
0.04541015625
0.010986328125
0.042877197265625
0.0252685546875
0.028961181640625
0.0047607421875
0.0384521484375
-0.0186767578125
0.052001953125
-0.00146484375
0.064453125
0.0230712890625
0.09814453125
0.05126953125
0.0911865234375
-0.0025634765625
0.0377197265625
-0.0252685546875
0.057861328125
0.02490234375
0.089385986328125
0.0179443359375
0.134063720703125
0.0
0.170654296875
-0.0567626953125
0.16845703125
-0.0596923828125
0.164825439453125
-0.0531005859375
0.163726806640625
-0.097076416015625
0.1746826171875
-0.134796142578125
0.106201171875
-0.1116943359375
0.0380859375
-0.05419921875
0.041778564453125
-0.0084228515625
0.028228759765625
0.054931640625
-0.043609619140625
0.05419921875
-0.063018798828125
0.090087890625
-0.10107421875
0.08935546875
-0.10693359375
0.051666259765625
-0.0633544921875
0.007720947265625
-0.0574951171875
-0.039947509765625
-0.03076171875
-0.049102783203125
-0.013916015625
-0.0509033203125
-0.0069580078125
0.027099609375
-0.0450439453125
0.0472412109375
-0.050567626953125
0.035552978515625
-0.079132080078125
-0.084228515625
-0.037353515625
-0.181304931640625
0.0186767578125
-0.195587158203125
-0.008056640625
-0.155303955078125
0.0311279296875
-0.087890625
0.008056640625
-0.1083984375
0.0029296875
-0.0838623046875
0.046539306640625
-0.08642578125
0.060821533203125
-0.08203125
0.087890625
0.0087890625
0.019775390625
-0.039215087890625
0.0791015625
-0.073272705078125
0.1490478515625
-0.006591796875
0.076171875
-0.04833984375
0.075103759765625
0.0
-0.0098876953125
0.080963134765625
-0.071075439453125
0.042510986328125
-0.0263671875
0.0113525390625
-0.0150146484375
0.006591796875
-0.0142822265625
-0.039215087890625
0.031494140625
-0.019775390625
0.0252685546875
0.027496337890625
-0.003662109375
0.046875
-0.01318359375
0.0205078125
-0.0703125
0.0146484375
-0.0772705078125
0.0494384765625
-0.05712890625
0.012451171875
-0.0142822265625
0.0135498046875
-0.0054931640625
0.0589599609375
-0.0611572265625
0.013916015625
-0.0186767578125
0.0135498046875
-0.0135498046875
0.07177734375
-0.0509033203125
-0.0084228515625
0.034423828125
-0.0018310546875
0.01318359375
-0.0230712890625
0.025634765625
-0.1439208984375
0.1358642578125
0.02783203125
-0.02783203125
0.1043701171875
-0.112060546875
0.0538330078125
-0.0545654296875
0.03955078125
-0.0234375
0.0260009765625
-0.0142822265625
0.0238037109375
-0.01611328125
0.024169921875
-0.015411376953125
0.059326171875
-0.048004150390625
0.029296875
-0.028564453125
0.079498291015625
-0.022705078125
0.048736572265625
-0.016845703125
-0.0325927734375
-0.0194091796875
0.0150146484375
-0.0472412109375
0.06591796875
-0.0703125
0.040283203125
-0.0362548828125
0.003662109375
-0.003662109375
0.02490234375
-0.0289306640625
0.0025634765625
-0.0164794921875
0.019775390625
-0.0238037109375
0.0435791015625
-0.0377197265625
0.0281982421875
-0.0296630859375
0.005859375
-0.0238037109375
-0.02783203125
-0.0069580078125
0.0076904296875
-0.02783203125
0.0157470703125
-0.024169921875
0.0322265625
-0.03662109375
0.010986328125
-0.0230712890625
-0.00732421875
0.0146484375
-0.0018310546875
0.01611328125
-0.0087890625
0.009521484375
0.012451171875
-0.0054931640625
-0.0054931640625
0.006591796875
-0.0538330078125
0.06591796875
-0.094482421875
0.1358642578125
0.03076171875
0.0186767578125
0.032958984375
-0.0604248046875
-0.041015625
0.005859375
0.0
0.018310546875
-0.0216064453125
0.02197265625
-0.003662109375
-0.0084228515625
-0.0296630859375
0.0194091796875
0.0
0.0062255859375
0.0150146484375
-0.00146484375
0.03515625
-0.017578125
0.0498046875
-0.03662109375
0.0106201171875
-0.00732421875
0.010986328125
-0.0084228515625
-0.047607421875
0.040283203125
-0.0216064453125
0.0164794921875
-0.021240234375
0.01025390625
0.0252685546875
-0.02783203125
0.0721435546875
-0.0538330078125
0.01025390625
0.006591796875
-0.01025390625
0.01904296875
-0.0234375
0.030029296875
-0.043212890625
0.0509033203125
-0.0831298828125
0.0853271484375
0.03955078125
0.0084228515625
0.03955078125
0.0010986328125
-0.0018310546875
-0.0435791015625
0.029296875
-0.0677490234375
-0.03076171875
0.032958984375
-0.01171875
0.0194091796875
-0.0230712890625
0.0274658203125
-0.0355224609375
0.0322265625
-0.0556640625
0.0443115234375
-0.0296630859375
0.0322265625
-0.002197265625
0.0201416015625
0.0029296875
0.02197265625
0.0904541015625
-0.0648193359375
0.0838623046875
-0.088623046875
0.024169921875
-0.040283203125
0.046142578125
-0.0509033203125
0.0743408203125
-0.0791015625
0.0223388671875
-0.0267333984375
-0.0010986328125
0.013916015625
0.01171875
-0.0032958984375
-0.0238037109375
0.0234375
-0.015380859375
0.0234375
-0.046875
0.0428466796875
-0.0450439453125
0.038818359375
-0.0172119140625
0.0648193359375
0.072509765625
-0.03955078125
0.02783203125
-0.087890625
-0.0703125
0.0267333984375
-0.0128173828125
0.009521484375
-0.0164794921875
0.013916015625
-0.00146484375
0.0087890625
-0.0596923828125
0.0538330078125
-0.0545654296875
0.0465087890625
-0.01025390625
0.0128173828125
0.0128173828125
0.005126953125
0.03076171875
-0.010986328125
0.002197265625
0.0018310546875
0.0208740234375
-0.0216064453125
-0.0150146484375
0.0087890625
0.017578125
-0.01611328125
0.0355224609375
-0.034423828125
0.005126953125
-0.013916015625
0.02783203125
-0.022705078125
0.0087890625
0.009521484375
0.0186767578125
-0.013916015625
0.035888671875
-0.0369873046875
0.0234375
-0.017578125
-0.0205078125
0.0216064453125
0.0010986328125
0.0230712890625
0.005126953125
0.046142578125
-0.03662109375
0.013916015625
-0.031494140625
-0.02490234375
-0.006591796875
0.0003662109375
0.0230712890625
-0.0194091796875
-0.003662109375
0.0047607421875
-0.0025634765625
0.003662109375
-0.0355224609375
0.0303955078125
-0.0289306640625
0.0318603515625
-0.0150146484375
0.030029296875
-0.005859375
0.0252685546875
0.0498046875
-0.0399169921875
0.0267333984375
-0.0340576171875
0.0347900390625
-0.0413818359375
0.0205078125
-0.03515625
0.0146484375
-0.0252685546875
0.022705078125
-0.0340576171875
0.0164794921875
-0.0150146484375
0.006591796875
0.01171875
-0.003662109375
0.01318359375
0.027099609375
-0.02197265625
0.010986328125
-0.0029296875
0.013916015625
0.00146484375
-0.00146484375
0.0003662109375
0.01171875
0.0406494140625
0.0380859375
-0.0238037109375
-0.00439453125
-0.0552978515625
-0.0201416015625
0.0098876953125
-0.0311279296875
0.04541015625
-0.01904296875
0.0263671875
-0.0238037109375
0.017578125
0.015380859375
-0.0084228515625
-0.0029296875
0.009521484375
-0.0347900390625
0.0406494140625
0.008056640625
0.005126953125
0.0029296875
0.002197265625
0.02490234375
-0.0234375
0.0018310546875
-0.0003662109375
0.0179443359375
-0.0084228515625
-0.0084228515625
0.0186767578125
-0.0113525390625
0.016845703125
0.005126953125
-0.0069580078125
-0.0091552734375
0.013916015625
0.0263671875
-0.0201416015625
-0.01611328125
0.003662109375
0.0
-0.0179443359375
-0.037353515625
0.009521484375
-0.0772705078125
0.047607421875
-0.07470703125
0.0450439453125
-0.05419921875
0.0728759765625
-0.015380859375
0.0054931640625
-0.041748046875
-0.01171875
-0.003662109375
-0.0025634765625
0.0054931640625
-0.0091552734375
-0.003662109375
0.0003662109375
-0.029296875
-0.008056640625
-0.0135498046875
-0.0252685546875
0.013916015625
-0.018310546875
0.0172119140625
-0.0084228515625
0.071044921875
-0.04833984375
0.0340576171875
-0.022705078125
0.0150146484375
-0.013916015625
-0.013916015625
0.0062255859375
-0.0263671875
0.024169921875
-0.0172119140625
0.0150146484375
-0.0157470703125
0.0032958984375
0.0010986328125
0.002197265625
-0.0260009765625
0.044677734375
-0.025634765625
0.0325927734375
-0.0325927734375
0.03076171875
0.0025634765625
0.00732421875
0.0150146484375
-0.008056640625
0.0428466796875
-0.0377197265625
0.0380859375
0.0274658203125
0.025634765625
-0.01171875
0.0172119140625
-0.0831298828125
-0.019775390625
-0.003662109375
0.02197265625
-0.0223388671875
-0.0120849609375
0.0098876953125
-0.034423828125
0.03076171875
-0.0406494140625
0.029296875
-0.0208740234375
0.0164794921875
0.028564453125
-0.0172119140625
0.012451171875
0.0047607421875
0.0157470703125
-0.0003662109375
-0.013916015625
0.013916015625
-0.0150146484375
0.01318359375
-0.01025390625
0.003662109375
0.0087890625
-0.008056640625
0.032958984375
-0.0296630859375
-0.013916015625
0.0047607421875
0.021240234375
-0.0281982421875
0.0362548828125
-0.0303955078125
0.0252685546875
-0.0146484375
-0.0106201171875
0.010986328125
-0.015380859375
0.018310546875
0.0054931640625
-0.005859375
0.0164794921875
-0.0146484375
0.0340576171875
0.019775390625
0.0274658203125
0.00146484375
0.0076904296875
-0.065185546875
-0.03515625
-0.0084228515625
0.0047607421875
-0.00732421875
0.013916015625
-0.0157470703125
0.0069580078125
-0.00732421875
-0.006591796875
-0.002197265625
-0.0281982421875
0.017578125
0.01025390625
-0.00439453125
-0.005126953125
0.02197265625
0.0128173828125
0.0098876953125
0.0208740234375
-0.01171875
0.022705078125
-0.0208740234375
0.0311279296875
-0.03662109375
-0.0091552734375
-0.0047607421875
-0.0146484375
-0.00439453125
-0.0150146484375
-0.0098876953125
0.0069580078125
-0.0128173828125
0.0018310546875
0.0062255859375
0.0157470703125
-0.00439453125
0.0157470703125
-0.008056640625
0.0201416015625
-0.013916015625
0.0230712890625
-0.0245361328125
-0.0032958984375
-0.005126953125
0.02197265625
0.0252685546875
0.030029296875
-0.0047607421875
0.0135498046875
-0.0556640625
-0.037353515625
0.0157470703125
-0.018310546875
0.0333251953125
-0.0260009765625
0.0399169921875
-0.04541015625
0.0472412109375
-0.024169921875
0.0267333984375
-0.0208740234375
0.03076171875
0.041015625
-0.0084228515625
0.04833984375
-0.0142822265625
0.03662109375
-0.0120849609375
0.0
0.0106201171875
0.003662109375
0.0238037109375
0.0234375
0.0106201171875
0.0135498046875
-0.0047607421875
0.025634765625
-0.024169921875
-0.037353515625
0.0267333984375
-0.0380859375
0.024169921875
-0.0205078125
0.035888671875
0.0069580078125
0.015380859375
0.016845703125
-0.0205078125
0.0164794921875
-0.0223388671875
0.0069580078125
-0.01318359375
-0.034423828125
0.0230712890625
0.0128173828125
0.0032958984375
0.0238037109375
-0.0113525390625
0.000732421875
-0.0545654296875
-0.0413818359375
-0.0106201171875
-0.0098876953125
0.00439453125
0.0164794921875
-0.018310546875
0.0010986328125
-0.005859375
0.0069580078125
-0.0274658203125
-0.0677490234375
0.0391845703125
-0.044677734375
0.0380859375
-0.0457763671875
0.0186767578125
-0.0809326171875
0.034423828125
-0.046875
0.024169921875
-0.005859375
0.0003662109375
0.0552978515625
-0.0596923828125
0.0435791015625
-0.047607421875
0.0289306640625
-0.028564453125
-0.0025634765625
-0.01171875
0.002197265625
-0.0010986328125
0.0087890625
0.0054931640625
-0.002197265625
0.0047607421875
-0.0003662109375
-0.000732421875
-0.0142822265625
0.0091552734375
0.01025390625
-0.01611328125
-0.0303955078125
0.02197265625
-0.0556640625
0.1138916015625
-0.005859375
0.0150146484375
0.0245361328125
-0.0908203125
-0.0106201171875
-0.0087890625
0.0003662109375
-0.0029296875
0.0201416015625
-0.0194091796875
-0.02490234375
0.021240234375
-0.01318359375
0.0076904296875
-0.0245361328125
0.0179443359375
-0.008056640625
0.0172119140625
0.0142822265625
0.002197265625
-0.005126953125
0.022705078125
0.0157470703125
-0.0087890625
0.0245361328125
-0.029296875
0.0252685546875
-0.02783203125
-0.0047607421875
0.0003662109375
0.0018310546875
-0.0003662109375
-0.0069580078125
-0.00439453125
0.0076904296875
-0.0069580078125
0.013916015625
0.0010986328125
-0.02197265625
0.0260009765625
0.0098876953125
-0.0054931640625
-0.0062255859375
0.008056640625
-0.002197265625
0.0054931640625
0.0098876953125
-0.0120849609375
0.008056640625
0.05126953125
0.030029296875
-0.0146484375
0.01318359375
-0.079833984375
0.0025634765625
-0.0274658203125
0.022705078125
-0.027099609375
0.0260009765625
-0.0234375
0.0040283203125
-0.005859375
0.01171875
-0.0216064453125
-0.02197265625
0.0087890625
-0.03515625
0.0428466796875
-0.0142822265625
0.035888671875
-0.0186767578125
0.0384521484375
0.0263671875
-0.0172119140625
0.0230712890625
-0.0267333984375
0.0150146484375
-0.0172119140625
0.0091552734375
-0.01171875
0.0040283203125
-0.000732421875
0.0076904296875
-0.017578125
0.01904296875
-0.0208740234375
0.021240234375
-0.00732421875
-0.0040283203125
0.0047607421875
0.0025634765625
-0.006591796875
-0.009521484375
0.0010986328125
0.0003662109375
-0.0047607421875
-0.0157470703125
0.0084228515625
-0.00439453125
0.0501708984375
0.0238037109375
0.0
-0.0146484375
-0.040283203125
-0.0062255859375
-0.0157470703125
0.0029296875
0.0069580078125
0.009521484375
-0.0069580078125
-0.0157470703125
0.0032958984375
-0.0194091796875
0.0146484375
-0.017578125
0.0263671875
0.0029296875
0.0208740234375
0.0347900390625
-0.0087890625
0.00439453125
0.0084228515625
0.0252685546875
-0.0047607421875
0.01611328125
0.0047607421875
0.005859375
0.0069580078125
-0.00732421875
0.01904296875
-0.0029296875
0.015380859375
-0.01904296875
0.0113525390625
-0.0091552734375
0.005859375
0.0391845703125
-0.0135498046875
0.046875
-0.0032958984375
0.079833984375
-0.0347900390625
0.0164794921875
-0.0029296875
-0.0047607421875
0.002197265625
-0.0076904296875
0.0003662109375
0.0
0.012451171875
0.03955078125
-0.017578125
-0.0267333984375
-0.0146484375
-0.0347900390625
-0.0234375
-0.027099609375
0.005859375
-0.008056640625
-0.005859375
-0.024169921875
0.009521484375
-0.0875244140625
0.0142822265625
-0.0845947265625
-0.0054931640625
-0.054931640625
0.0296630859375
-0.03076171875
0.0311279296875
-0.02783203125
0.0322265625
0.0340576171875
0.003662109375
-0.02197265625
0.002197265625
-0.0355224609375
-0.0087890625
0.013916015625
-0.006591796875
-0.002197265625
0.0047607421875
0.01171875
-0.01904296875
-0.003662109375
0.00146484375
0.017578125
0.000732421875
0.0201416015625
-0.01171875
0.016845703125
-0.0120849609375
-0.0087890625
0.0113525390625
0.00732421875
-0.0032958984375
0.01171875
-0.0087890625
-0.0106201171875
0.05126953125
0.025634765625
0.0135498046875
-0.012451171875
-0.03662109375
-0.047607421875
0.0040283203125
-0.008056640625
0.00439453125
0.0322265625
-0.031494140625
-0.0208740234375
0.021240234375
-0.037353515625
0.03076171875
-0.003662109375
-0.0047607421875
-0.02197265625
0.021240234375
0.0106201171875
0.00732421875
0.006591796875
0.015380859375
0.01318359375
0.005859375
0.0120849609375
-0.008056640625
0.0032958984375
-0.006591796875
0.0084228515625
-0.01171875
0.019775390625
-0.01904296875
0.032958984375
-0.035888671875
-0.0069580078125
0.00146484375
0.0194091796875
-0.0076904296875
0.005126953125
0.0018310546875
-0.0047607421875
0.01025390625
0.0054931640625
-0.0029296875
-0.00732421875
0.00732421875
-0.01904296875
0.0201416015625
-0.0142822265625
0.041015625
0.02783203125
0.018310546875
-0.0289306640625
-0.0087890625
-0.0274658203125
-0.0267333984375
0.09375
-0.0985107421875
0.0882568359375
-0.090087890625
0.00732421875
-0.0076904296875
-0.006591796875
-0.0003662109375
-0.0135498046875
-0.00146484375
-0.03369140625
0.02490234375
0.003662109375
0.0062255859375
-0.0047607421875
0.0157470703125
0.0018310546875
0.01025390625
0.0179443359375
-0.01025390625
0.0029296875
0.0047607421875
0.040283203125
-0.01904296875
0.0439453125
-0.0179443359375
0.0743408203125
-0.0260009765625
0.037353515625
-0.01025390625
-0.0084228515625
0.0120849609375
-0.02783203125
0.041748046875
-0.0113525390625
0.027099609375
0.010986328125
-0.005126953125
0.0
-0.01025390625
0.0234375
-0.03076171875
0.00439453125
-0.01171875
-0.003662109375
0.0556640625
-0.0084228515625
0.0216064453125
-0.0501708984375
-0.021240234375
-0.073974609375
0.0289306640625
0.0179443359375
0.022705078125
0.076171875
0.04248046875
0.331085205078125
0.076171875
0.632537841796875
0.0882568359375
0.34796142578125
0.04248046875
0.0208740234375
0.053131103515625
-0.35089111328125
0.122711181640625
-0.47576904296875
0.0289306640625
-0.065185546875
-0.0479736328125
0.1519775390625
-0.0223388671875
0.268463134765625
-0.015380859375
0.30841064453125
-0.0274658203125
0.147613525390625
-0.158599853515625
0.015380859375
-0.200347900390625
0.0
-0.1285400390625
0.0
-0.107330322265625
-0.059722900390625
-0.013916015625
-0.201812744140625
0.0032958984375
-0.14794921875
-0.035919189453125
-0.137359619140625
-0.029296875
-0.178009033203125
-0.00439453125
-0.0772705078125
0.02783203125
0.0084228515625
-0.0267333984375
0.0150146484375
-0.053466796875
-0.056396484375
-0.0406494140625
-0.098876953125
-0.050537109375
-0.128173828125
-0.012451171875
-0.10400390625
0.01171875
-0.061920166015625
-0.002197265625
-0.040679931640625
-0.0025634765625
-0.0703125
0.0003662109375
-0.0794677734375
0.047607421875
-0.0487060546875
0.0538330078125
-0.0552978515625
-0.0194091796875
-0.059326171875
-0.009521484375
-0.0472412109375
0.050537109375
-0.05859375
0.05419921875
-0.05126953125
0.0234375
-0.046905517578125
0.033355712890625
-0.043975830078125
0.082427978515625
0.009521484375
0.0545654296875
0.0238037109375
0.0384521484375
0.091949462890625
-0.0205078125
0.131500244140625
-0.109130859375
0.0098876953125
-0.0439453125
-0.0399169921875
-0.0025634765625
-0.049072265625
0.072509765625
-0.0289306640625
-0.004425048828125
-0.0025634765625
-0.0802001953125
0.00732421875
-0.0098876953125
0.00732421875
-0.001861572265625
0.0263671875
-0.012451171875
0.008056640625
-0.008056640625
-0.052734375
0.039947509765625
-0.080596923828125
0.065948486328125
-0.080596923828125
0.060791015625
-0.0018310546875
-0.0164794921875
0.0029296875
-0.0289306640625
0.026763916015625
-0.0318603515625
0.091949462890625
-0.035888671875
0.052734375
0.0003662109375
-0.0201416015625
0.0025634765625
-0.0179443359375
-0.009552001953125
-0.005859375
-0.0032958984375
0.000732421875
0.003326416015625
0.0384521484375
-0.010650634765625
0.076904296875
-0.038116455078125
0.0904541015625
-0.04541015625
0.0677490234375
-0.010986328125
0.1043701171875
-0.0054931640625
0.120513916015625
0.0054931640625
0.158233642578125
0.013916015625
0.192626953125
-0.03369140625
0.183135986328125
-0.0391845703125
0.156768798828125
-0.0238037109375
0.10400390625
-0.041748046875
0.0615234375
-0.0560302734375
-0.0333251953125
-0.0413818359375
-0.0684814453125
-0.0201416015625
-0.053466796875
0.005859375
-0.0450439453125
0.021240234375
-0.065582275390625
0.0040283203125
-0.039581298828125
0.009521484375
-0.0443115234375
0.003662109375
-0.1995849609375
0.0076904296875
-0.2186279296875
0.0113525390625
-0.137359619140625
0.02783203125
-0.107696533203125
0.0556640625
-0.088623046875
0.0787353515625
0.0076904296875
0.092681884765625
0.0802001953125
0.059722900390625
-0.04248046875
0.0435791015625
-0.0853271484375
0.0238037109375
0.0670166015625
-0.0498046875
0.136962890625
-0.062286376953125
0.0494384765625
-0.022003173828125
-0.0010986328125
0.027862548828125
-0.009521484375
0.019805908203125
0.063385009765625
-0.0010986328125
0.151275634765625
0.0201416015625
0.0802001953125
0.0164794921875
-0.04833984375
0.0260009765625
-0.0853271484375
0.0252685546875
-0.0260009765625
0.005126953125
0.0018310546875
-0.009521484375
-0.01171875
-0.00732421875
-0.01171875
-0.0157470703125
-0.000732421875
-0.009521484375
0.0142822265625
-0.01318359375
0.00732421875
-0.01171875
0.050537109375
-0.0018310546875
0.087158203125
0.0025634765625
0.1461181640625
0.0084228515625
0.226348876953125
0.01904296875
0.065216064453125
0.03369140625
0.219390869140625
-0.002197265625
0.299957275390625
-0.0296630859375
0.0340576171875
-0.03515625
0.0
-0.0194091796875
-0.039947509765625
-0.024200439453125
-0.067047119140625
-0.030792236328125
-0.0098876953125
0.025299072265625
-0.2442626953125
0.089385986328125
-0.456329345703125
0.1201171875
-0.266265869140625
0.05712890625
-0.111724853515625
0.03076171875
-0.082061767578125
0.052734375
-0.1461181640625
0.08203125
-0.1376953125
0.0673828125
-0.054931640625
0.0062255859375
-0.0421142578125
0.015380859375
-0.035888671875
0.0010986328125
-0.055328369140625
0.0
-0.062286376953125
-0.01318359375
-0.0216064453125
-0.0245361328125
-0.0040283203125
-0.0098876953125
-0.02197265625
-0.016845703125
-0.0377197265625
-0.00732421875
-0.03076171875
-0.00146484375
-0.0172119140625
0.0091552734375
-0.0010986328125
-0.0091552734375
-0.0146484375
-0.0076904296875
-0.0303955078125
-0.0003662109375
-0.015380859375
-0.0076904296875
-0.0325927734375
-0.0029296875
-0.041015625
0.0589599609375
0.0216064453125
-0.013916015625
0.034423828125
-0.090087890625
0.005859375
0.0010986328125
0.0238037109375
-0.003662109375
-0.010986328125
-0.0040283203125
-0.0443115234375
0.005126953125
-0.0230712890625
-0.006591796875
-0.0150146484375
0.0076904296875
0.00146484375
0.0003662109375
0.002197265625
0.0069580078125
-0.0084228515625
0.0025634765625
0.000732421875
-0.002197265625
0.0377197265625
-0.0062255859375
0.0721435546875
-0.0164794921875
0.049072265625
-0.0025634765625
0.016845703125
-0.010986328125
0.0025634765625
-0.0047607421875
0.0084228515625
0.0025634765625
0.00732421875
0.0113525390625
-0.005126953125
0.0029296875
-0.03076171875
0.005126953125
-0.04248046875
0.0146484375
-0.0252685546875
0.003662109375
-0.0157470703125
0.0054931640625
-0.019775390625
0.06884765625
0.0040283203125
-0.000732421875
0.0106201171875
-0.076171875
-0.0157470703125
0.0047607421875
0.0087890625
-0.008056640625
0.0128173828125
-0.01904296875
0.002197265625
-0.005126953125
0.0216064453125
-0.0230712890625
0.0325927734375
-0.0157470703125
0.0545654296875
-0.0274658203125
0.0618896484375
-0.0296630859375
0.052032470703125
-0.0311279296875
0.060089111328125
-0.0362548828125
0.0823974609375
-0.032958984375
0.104736328125
-0.047607421875
0.08642578125
-0.032958984375
0.057861328125
-0.035888671875
0.04833984375
-0.012451171875
0.028564453125
-0.002197265625
-0.044677734375
0.0032958984375
-0.128173828125
0.01025390625
-0.212066650390625
0.0025634765625
-0.181304931640625
0.012451171875
-0.056396484375
0.0040283203125
-0.0179443359375
0.0216064453125
-0.0347900390625
0.0538330078125
0.0091552734375
-0.0318603515625
0.0322265625
-0.081298828125
0.002197265625
0.000732421875
0.0069580078125
0.0128173828125
-0.0032958984375
-0.00439453125
-0.019775390625
0.01025390625
-0.016845703125
-0.0029296875
-0.0076904296875
0.0128173828125
0.0245361328125
0.01318359375
0.06884765625
0.01611328125
0.110626220703125
0.0322265625
0.056427001953125
0.0655517578125
-0.063018798828125
0.090087890625
-0.075836181640625
0.0435791015625
-0.0611572265625
0.0574951171875
-0.05419921875
0.03369140625
-0.0662841796875
0.0135498046875
-0.145751953125
0.038818359375
-0.1083984375
0.022705078125
-0.0157470703125
0.01171875
-0.058624267578125
0.018310546875
-0.042144775390625
0.0223388671875
-0.0245361328125
-0.005126953125
-0.02490234375
0.019073486328125
0.0234375
0.0274658203125
-0.0113525390625
-0.020172119140625
-0.0234375
-0.0208740234375
0.064453125
-0.0640869140625
0.0267333984375
-0.0047607421875
-0.0076904296875
0.050537109375
0.0245361328125
0.003662109375
0.0091552734375
-0.0260009765625
0.037384033203125
-0.0439453125
0.048736572265625
-0.016845703125
0.0135498046875
0.028564453125
0.01904296875
0.0186767578125
0.0347900390625
-0.024169921875
0.005126953125
-0.0091552734375
0.0128173828125
-0.0150146484375
0.0234375
-0.0150146484375
0.0186767578125
-0.0201416015625
0.005859375
0.00146484375
0.002197265625
0.0106201171875
0.028564453125
-0.0380859375
0.041748046875
-0.0260009765625
0.0223388671875
0.003662109375
0.0029296875
0.0135498046875
0.0076904296875
-0.0098876953125
-0.0087890625
0.06884765625
0.0252685546875
-0.005126953125
0.0194091796875
-0.0831298828125
-0.017578125
0.005859375
0.0047607421875
-0.00439453125
-0.0120849609375
0.024169921875
-0.002197265625
0.0087890625
0.008056640625
-0.008056640625
0.021240234375
-0.0186767578125
0.019775390625
-0.0087890625
0.0164794921875
0.0098876953125
0.0487060546875
-0.025634765625
0.0318603515625
-0.0164794921875
0.0146484375
-0.01171875
0.0098876953125
-0.0029296875
0.01611328125
-0.0091552734375
0.0120849609375
-0.00439453125
0.0003662109375
-0.0062255859375
0.0010986328125
-0.0062255859375
0.0010986328125
0.0172119140625
0.009521484375
-0.0025634765625
0.0069580078125
0.0054931640625
0.01611328125
-0.00146484375
0.0076904296875
0.0032958984375
0.0010986328125
0.003662109375
0.010284423828125
0.0384521484375
0.032257080078125
0.008056640625
0.002197265625
-0.053466796875
-0.0238037109375
-0.0098876953125
0.0098876953125
-0.0087890625
0.0018310546875
0.010986328125
0.0113525390625
0.0069580078125
0.0135498046875
-0.0047607421875
0.00439453125
-0.0018310546875
0.005126953125
-0.000732421875
0.015380859375
0.005126953125
0.0333251953125
-0.0172119140625
0.0076904296875
-0.006591796875
0.0047607421875
-0.022705078125
0.005126953125
-0.0260009765625
0.009521484375
-0.028564453125
0.0164794921875
-0.041015625
0.025634765625
-0.0443115234375
0.052001953125
-0.046142578125
0.0560302734375
-0.019775390625
0.0706787109375
-0.031524658203125
0.07470703125
-0.029693603515625
0.0867919921875
-0.043212890625
0.119781494140625
-0.057861328125
-0.0596923828125
0.072906494140625
-0.05126953125
0.162628173828125
0.137725830078125
0.05419921875
0.17431640625
-0.0128173828125
0.300689697265625
0.02197265625
0.40289306640625
0.00439453125
0.228912353515625
-0.0029296875
0.0150146484375
-0.010986328125
0.0
0.00146484375
0.0
0.0135498046875
0.0
-0.0098876953125
0.0
0.0091552734375
0.0
-0.0106201171875
0.0
0.002197265625
0.0
-0.0010986328125
0.0
0.0003662109375
0.0
0.00146484375
0.0
-0.0223388671875
0.0
-0.0113525390625
-0.0032958984375
-0.0150146484375
-0.052032470703125
0.0150146484375
-0.108428955078125
-0.00732421875
-0.07763671875
-0.0047607421875
-0.0853271484375
0.0047607421875
-0.204376220703125
0.008056640625
-0.291534423828125
0.0443115234375
-0.312408447265625
0.04248046875
-0.279083251953125
0.053466796875
-0.292266845703125
-0.0018310546875
-0.233673095703125
-0.00732421875
-0.0849609375
0.0032958984375
-0.046875
0.0025634765625
-0.040283203125
0.017578125
-0.03955078125
0.01025390625
-0.0391845703125
0.0194091796875
-0.017578125
0.0047607421875
0.0128173828125
0.0245361328125
0.0029296875
0.0084228515625
-0.0106201171875
0.009521484375
0.0164794921875
0.005859375
0.019775390625
-0.0091552734375
0.017578125
-0.002197265625
0.028564453125
-0.0238037109375
0.0479736328125
-0.038818359375
0.0498046875
-0.0369873046875
0.0252685546875
0.0098876953125
0.015380859375
0.0029296875
0.01318359375
-0.0003662109375
0.0201416015625
0.0069580078125
0.0245361328125
-0.006591796875
0.0106201171875
0.0087890625
0.01171875
0.029296875
0.041015625
0.01025390625
0.0146484375
-0.0538330078125
-0.022705078125
-0.0205078125
0.0003662109375
0.00146484375
-0.0029296875
-0.006591796875
0.0
0.005859375
0.0091552734375
-0.006591796875
-0.005859375
0.0146484375
0.0032958984375
0.008056640625
0.0186767578125
0.01171875
0.036651611328125
-0.00146484375
0.01318359375
-0.017578125
-0.038482666015625
-0.00732421875
-0.0296630859375
-0.0084228515625
-0.005126953125
0.0040283203125
0.0032958984375
-0.0047607421875
0.0029296875
0.00732421875
-0.005859375
-0.0032958984375
-0.008056640625
0.0120849609375
0.01318359375
0.0172119140625
0.0208740234375
-0.0040283203125
0.01025390625
0.005126953125
-0.000732421875
-0.0076904296875
-0.010986328125
0.0106201171875
0.003662109375
-0.0003662109375
-0.0076904296875
0.0750732421875
0.015380859375
0.0
0.0047607421875
-0.06884765625
-0.027099609375
0.0194091796875
-0.0062255859375
0.0032958984375
-0.00146484375
0.0164794921875
0.01611328125
0.0010986328125
0.009521484375
0.002197265625
-0.0047607421875
0.0054931640625
0.0025634765625
0.0069580078125
0.013916015625
0.0032958984375
0.0186767578125
-0.009521484375
0.022003173828125
-0.0150146484375
0.035186767578125
-0.0384521484375
0.0465087890625
-0.0281982421875
0.035888671875
-0.021240234375
0.01904296875
-0.0025634765625
0.068115234375
-0.0106201171875
0.1754150390625
-0.016845703125
0.223052978515625
-0.027099609375
0.149078369140625
-0.0391845703125
-0.000732421875
0.062255859375
-0.0069580078125
0.0509033203125
0.103271484375
-0.006591796875
0.1175537109375
-0.01171875
0.1036376953125
0.041015625
0.112457275390625
-0.002197265625
0.141754150390625
-0.056396484375
0.1505126953125
0.0084228515625
0.188629150390625
-0.005126953125
0.122711181640625
-0.0062255859375
0.000732421875
-0.0201416015625
0.0
0.005859375
0.0
0.002197265625
0.0
0.0
0.0
0.0087890625
0.0
-0.0098876953125
0.0
0.01025390625
0.0
-0.0054931640625
0.0
0.01611328125
0.0
0.005859375
0.0
0.0
0.0
-0.024169921875
0.0
-0.0263671875
0.0
0.013916015625
-0.0025634765625
-0.0146484375
-0.068878173828125
0.0010986328125
-0.191558837890625
0.01025390625
-0.1944580078125
0.0274658203125
-0.225616455078125
0.01171875
-0.231109619140625
0.04248046875
-0.1204833984375
0.0516357421875
-0.150177001953125
-0.01171875
-0.147613525390625
0.016845703125
-0.227783203125
0.0091552734375
-0.325225830078125
0.0047607421875
-0.294097900390625
0.0076904296875
-0.246856689453125
0.0113525390625
-0.161529541015625
0.009521484375
-0.073974609375
-0.0010986328125
-0.0025634765625
0.0164794921875
0.0201416015625
0.003662109375
0.02783203125
0.0135498046875
0.015380859375
-0.0029296875
0.0069580078125
-0.0010986328125
0.01611328125
-0.005126953125
0.031494140625
-0.0142822265625
0.0223388671875
-0.003662109375
0.0322265625
-0.0003662109375
0.0322265625
0.0223388671875
0.0069580078125
-0.0003662109375
0.052398681640625
-0.0234375
0.082427978515625
-0.037353515625
0.052734375
-0.0172119140625
0.018310546875
0.0032958984375
0.03076171875
0.021240234375
0.0589599609375
0.003662109375
0.0084228515625
-0.05126953125
-0.013916015625
-0.0142822265625
0.0087890625
-0.00146484375
0.0135498046875
0.0018310546875
0.032958984375
0.0062255859375
0.0439453125
-0.0018310546875
0.016845703125
0.0087890625
0.0069580078125
0.0010986328125
0.0267333984375
0.0106201171875
-0.0205078125
-0.0032958984375
-0.0494384765625
0.005859375
-0.006591796875
0.0
0.012451171875
-0.0091552734375
0.019775390625
-0.005859375
0.01904296875
-0.0084228515625
0.008056640625
0.008056640625
0.0091552734375
-0.0113525390625
0.0128173828125
0.0091552734375
0.0128173828125
0.01171875
0.0120849609375
0.005859375
0.01904296875
-0.000732421875
0.0201416015625
-0.0069580078125
0.0047607421875
0.012451171875
0.000732421875
-0.0003662109375
-0.0069580078125
0.0611572265625
0.021240234375
-0.016845703125
0.0087890625
-0.0706787109375
-0.018310546875
-0.0062255859375
0.008056640625
-0.0054931640625
0.01025390625
0.0040283203125
0.062255859375
-0.0120849609375
0.084625244140625
-0.027099609375
0.025665283203125
-0.0234375
-0.0062255859375
0.0179443359375
-0.035186767578125
0.0142822265625
-0.093048095703125
0.01171875
-0.0633544921875
0.0150146484375
0.005126953125
0.005859375
0.0146484375
0.000732421875
0.01611328125
-0.0087890625
0.0128173828125
0.0054931640625
0.00146484375
-0.00439453125
-0.008056640625
0.0179443359375
0.0054931640625
0.0172119140625
0.0263671875
-0.0018310546875
0.110260009765625
-0.0029296875
0.103668212890625
-0.0142822265625
0.01025390625
-0.0040283203125
-0.0084228515625
-0.019775390625
-0.0318603515625
0.0322265625
0.0018310546875
0.0223388671875
0.0435791015625
-0.0406494140625
0.0552978515625
-0.038818359375
0.07177734375
-0.0362548828125
0.1153564453125
-0.0556640625
0.047607421875
-0.0516357421875
-0.0772705078125
0.0758056640625
0.0655517578125
0.0699462890625
0.294830322265625
0.01025390625
0.32086181640625
0.0010986328125
0.293731689453125
-0.0098876953125
0.2047119140625
-0.0010986328125
0.146148681640625
-0.006591796875
0.098907470703125
-0.0029296875
0.0
-0.0223388671875
0.0
0.0047607421875
0.0
-0.003662109375
0.0
-0.0047607421875
0.0
0.0120849609375
0.0
0.0150146484375
0.0
0.0150146484375
0.0
-0.0186767578125
0.0
0.0025634765625
0.0
-0.013916015625
0.0
-0.0018310546875
0.0
0.028564453125
0.0
0.0025634765625
0.0
-0.025634765625
0.0
-0.0205078125
0.0
0.0091552734375
0.0
-0.0179443359375
0.0
0.0238037109375
-0.110260009765625
0.0164794921875
-0.193023681640625
0.0025634765625
-0.288238525390625
0.0296630859375
-0.341705322265625
0.03076171875
-0.50140380859375
0.0399169921875
-0.680511474609375
0.0128173828125
-0.413848876953125
0.0150146484375
-0.151611328125
-0.00732421875
-0.0369873046875
0.0
0.00439453125
-0.0018310546875
-0.0003662109375
-0.0098876953125
0.01171875
0.016845703125
0.00732421875
0.0135498046875
0.0230712890625
0.01171875
0.005859375
-0.003662109375
0.01318359375
0.0157470703125
0.021240234375
0.008056640625
0.0318603515625
0.0040283203125
0.0596923828125
0.025634765625
0.05712890625
0.006591796875
0.010986328125
-0.02197265625
-0.015380859375
-0.0223388671875
0.0164794921875
0.01171875
0.0
-0.0318603515625
0.01611328125
-0.0303955078125
0.0556640625
-0.005126953125
0.034423828125
-0.003662109375
0.017608642578125
0.0076904296875
0.037384033203125
-0.012451171875
-0.0091552734375
-0.00439453125
0.0
-0.034423828125
0.0443115234375
-0.02490234375
0.018310546875
-0.0091552734375
0.0201416015625
-0.006591796875
0.0164794921875
0.00439453125
0.0172119140625
-0.0076904296875
0.013916015625
0.009521484375
0.0142822265625
0.0069580078125
0.0128173828125
0.012451171875
0.012451171875
0.000732421875
0.0274658203125
0.006591796875
0.0267333984375
0.008056640625
0.0223388671875
0.0003662109375
0.024169921875
0.0032958984375
0.01171875
0.0589599609375
0.02783203125
-0.005859375
0.0172119140625
-0.0823974609375
0.0047607421875
0.0069580078125
0.027099609375
-0.0018310546875
0.0333251953125
-0.008056640625
0.031494140625
0.0010986328125
0.016845703125
-0.00439453125
0.0128173828125
0.0076904296875
0.0120849609375
0.0047607421875
0.0238037109375
0.017578125
0.033355712890625
0.00439453125
0.014678955078125
0.00732421875
-0.000732421875
0.0040283203125
-0.0003662109375
-0.005859375
0.0
0.005126953125
0.008056640625
-0.0062255859375
0.0263671875
-0.02490234375
0.0289306640625
-0.0281982421875
0.0135498046875
0.0062255859375
0.005859375
-0.00732421875
0.0142822265625
-0.01318359375
0.0069580078125
0.010986328125
0.0062255859375
0.0032958984375
0.0120849609375
0.00146484375
0.0146484375
0.010986328125
0.02783203125
0.02783203125
-0.0025634765625
-0.0205078125
-0.02197265625
-0.0201416015625
-0.0062255859375
0.009521484375
-0.000732421875
-0.002197265625
-0.005126953125
0.012451171875
-0.0018310546875
-0.0029296875
-0.0018310546875
0.0010986328125
-0.0047607421875
-0.0069580078125
0.008056640625
-0.008056640625
0.024169921875
-0.0164794921875
0.0216064453125
-0.0194091796875
-0.0098876953125
0.0003662109375
-0.0673828125
0.0311279296875
-0.0545654296875
0.03369140625
-0.0029296875
-0.01904296875
-0.034454345703125
-0.0216064453125
-0.015380859375
-0.0362548828125
0.074737548828125
-0.0325927734375
0.1300048828125
-0.073974609375
0.0498046875
-0.0303955078125
-0.07763671875
0.11572265625
-0.022705078125
0.068115234375
-0.0142822265625
0.0062255859375
-0.0054931640625
-0.0087890625
0.2109375
0.0274658203125
0.291900634765625
-0.002197265625
0.144683837890625
-0.032958984375
0.099609375
0.0146484375
0.239898681640625
-0.008056640625
0.324127197265625
-0.0106201171875
0.208740234375
-0.0142822265625
0.094146728515625
0.0062255859375
0.044342041015625
-0.0040283203125
0.0
0.0084228515625
0.0
0.0047607421875
0.0
-0.0098876953125
0.0
0.005859375
0.0
-0.0098876953125
0.0
0.01171875
0.0
-0.0084228515625
0.0
0.0084228515625
0.0
-0.005859375
0.0
-0.0084228515625
-0.094146728515625
0.0098876953125
-0.155303955078125
-0.013916015625
-0.1131591796875
0.0010986328125
-0.098876953125
-0.0113525390625
-0.1043701171875
0.01611328125
-0.35711669921875
0.0113525390625
-0.698455810546875
0.02490234375
-0.505401611328125
0.085693359375
-0.12744140625
0.003662109375
-0.05859375
-0.03076171875
-0.047271728515625
0.0164794921875
-0.038848876953125
0.0164794921875
-0.0186767578125
0.0029296875
0.0150146484375
0.010986328125
-0.0054931640625
0.0029296875
-0.0128173828125
0.003662109375
0.0003662109375
0.0150146484375
-0.0260009765625
0.0018310546875
-0.0234375
0.0142822265625
0.0146484375
-0.0018310546875
0.01171875
0.0010986328125
0.0084228515625
-0.013916015625
0.016845703125
-0.0069580078125
0.0263671875
-0.0106201171875
0.070709228515625
-0.052001953125
0.108062744140625
-0.0640869140625
0.0677490234375
-0.056396484375
0.027099609375
-0.006591796875
0.022705078125
0.0029296875
0.0234375
0.0164794921875
0.021240234375
0.0091552734375
0.015380859375
-0.003662109375
-0.0084228515625
0.079833984375
0.0281982421875
-0.013916015625
0.0179443359375
-0.069580078125
-0.0238037109375
0.006591796875
0.005126953125
0.010986328125
0.0205078125
0.0069580078125
0.04248046875
0.0084228515625
0.0567626953125
0.009521484375
0.035888671875
0.00146484375
0.0076904296875
0.018310546875
0.0245361328125
0.0054931640625
0.0296630859375
0.01318359375
0.0076904296875
0.0062255859375
-0.0003662109375
0.0076904296875
-0.0010986328125
0.0
0.006256103515625
-0.0040283203125
0.006988525390625
0.0091552734375
0.0069580078125
-0.010986328125
0.0047607421875
-0.0018310546875
0.005859375
-0.0025634765625
0.0040283203125
0.0087890625
0.006591796875
-0.0003662109375
0.0216064453125
-0.0029296875
0.02197265625
0.002197265625
0.0472412109375
-0.034423828125
0.0479736328125
-0.03515625
0.012451171875
0.0428466796875
0.0355224609375
-0.01318359375
0.0120849609375
-0.0780029296875
-0.0263671875
0.009521484375
-0.0069580078125
0.01025390625
0.00732421875
0.005859375
0.0340576171875
0.0087890625
0.017578125
-0.000732421875
-0.0208740234375
0.02490234375
-0.017578125
0.01611328125
0.0029296875
0.0146484375
0.008056640625
0.005859375
-0.01171875
-0.0003662109375
-0.0296630859375
0.002197265625
-0.016845703125
-0.016845703125
-0.0025634765625
-0.016845703125
0.005859375
-0.0311279296875
-0.046875
0.01318359375
-0.065185546875
0.0205078125
-0.0128173828125
-0.00439453125
0.0076904296875
-0.022705078125
0.0205078125
-0.0380859375
0.010986328125
-0.030029296875
0.05859375
-0.065185546875
0.05859375
-0.062286376953125
0.0263671875
-0.034454345703125
-0.0589599609375
0.153106689453125
-0.0714111328125
0.130767822265625
0.059326171875
-0.0164794921875
0.191162109375
0.0098876953125
0.428863525390625
-0.005126953125
0.251983642578125
0.0146484375
-0.00146484375
-0.013916015625
0.152374267578125
-0.012451171875
0.36151123046875
-0.0076904296875
0.238067626953125
0.0040283203125
0.0
-0.0010986328125
0.0
-0.008056640625
0.0
0.0091552734375
0.0
-0.0087890625
0.0
0.006591796875
0.0
-0.00146484375
0.0
0.01904296875
0.0
-0.005126953125
-0.0146484375
-0.002197265625
-0.072540283203125
0.015380859375
-0.085723876953125
-0.009521484375
-0.0926513671875
0.0032958984375
-0.1380615234375
-0.0106201171875
-0.177642822265625
0.008056640625
-0.214996337890625
0.0025634765625
-0.228515625
0.028564453125
-0.47503662109375
0.032958984375
-0.57061767578125
-0.009521484375
-0.262237548828125
0.005126953125
-0.069976806640625
0.010986328125
-0.0340576171875
0.0157470703125
0.0091552734375
0.00732421875
0.000732421875
0.0142822265625
-0.0318603515625
0.0003662109375
0.0091552734375
0.0
0.0457763671875
0.010986328125
0.049835205078125
0.0029296875
0.032989501953125
0.0150146484375
0.0252685546875
-0.005126953125
0.01318359375
-0.0084228515625
0.0010986328125
-0.01904296875
0.053466796875
-0.03515625
0.06884765625
-0.04541015625
0.075439453125
-0.06005859375
0.0684814453125
-0.0380859375
0.019775390625
-0.0142822265625
0.0234375
0.00146484375
0.03369140625
0.00439453125
0.0216064453125
0.02197265625
0.00146484375
0.0113525390625
0.0047607421875
0.0106201171875
0.0146484375
0.0479736328125
0.0113525390625
-0.0208740234375
-0.0128173828125
-0.0355224609375
-0.0179443359375
0.0076904296875
-0.0032958984375
0.0150146484375
0.02197265625
0.008056640625
0.0311279296875
0.006591796875
-0.002197265625
0.01171875
-0.0142822265625
0.01611328125
-0.00146484375
0.0252685546875
0.021240234375
0.012451171875
0.01611328125
0.01904296875
-0.00146484375
-0.0003662109375
-0.0032958984375
0.003662109375
-0.0032958984375
-0.0047607421875
0.0029296875
-0.00732421875
0.0025634765625
0.009521484375
0.003662109375
-0.0076904296875
0.00732421875
0.00146484375
0.0113525390625
-0.0032958984375
0.009521484375
0.002197265625
0.01025390625
-0.0062255859375
0.019439697265625
-0.0003662109375
0.019073486328125
0.0029296875
0.0223388671875
-0.0157470703125
0.029296875
-0.0091552734375
0.010986328125
0.04248046875
0.0025634765625
-0.0047607421875
0.01171875
-0.07763671875
0.003662109375
-0.008056640625
0.0018310546875
-0.0018310546875
0.013916015625
0.0032958984375
0.00439453125
0.0234375
0.003662109375
-0.00146484375
0.012451171875
-0.00146484375
0.0128173828125
-0.0003662109375
0.0208740234375
0.0223388671875
0.0186767578125
0.0084228515625
0.0179443359375
-0.0146484375
0.0032958984375
-0.005126953125
-0.0281982421875
0.0146484375
-0.031494140625
0.0311279296875
0.000732421875
-0.017578125
0.013916015625
-0.035888671875
0.0120849609375
-0.03515625
-0.000732421875
-0.018310546875
-0.0087890625
-0.015380859375
-0.0018310546875
-0.01611328125
-0.0098876953125
0.0010986328125
-0.0662841796875
0.0194091796875
-0.079864501953125
0.0263671875
-0.0032958984375
0.00732421875
0.058624267578125
-0.018310546875
0.05126953125
-0.0662841796875
0.0926513671875
-0.0428466796875
0.0966796875
-0.0516357421875
0.0472412109375
-0.069976806640625
0.0567626953125
-0.026397705078125
0.0205078125
0.034088134765625
-0.09814453125
0.132598876953125
-0.090087890625
0.0845947265625
0.0146484375
0.0146484375
0.01025390625
0.00146484375
-0.005126953125
-0.0069580078125
0.0311279296875
0.0025634765625
0.1182861328125
-0.0076904296875
0.287506103515625
0.01318359375
0.324493408203125
-0.0194091796875
0.240264892578125
-0.0186767578125
0.172882080078125
-0.009521484375
0.075439453125
0.01171875
0.0494384765625
0.018310546875
0.126007080078125
0.0
0.100372314453125
0.01318359375
0.0
-0.00732421875
0.0
0.0120849609375
0.0
-0.0025634765625
0.0
0.03369140625
0.0
-0.000732421875
-0.0069580078125
-0.0472412109375
-0.084259033203125
-0.0084228515625
-0.108795166015625
-0.016845703125
-0.1087646484375
0.0029296875
-0.1556396484375
-0.0084228515625
-0.236602783203125
0.009521484375
-0.40765380859375
0.0087890625
-0.61749267578125
0.021240234375
-0.379058837890625
0.0252685546875
-0.041748046875
0.0098876953125
-0.05712890625
0.0252685546875
-0.050537109375
0.005859375
-0.078765869140625
0.030029296875
-0.054229736328125
0.017578125
0.0032958984375
0.002197265625
0.0062255859375
0.0
0.017974853515625
0.00732421875
0.021270751953125
0.0146484375
0.040283203125
-0.0322265625
0.100341796875
-0.0655517578125
0.12744140625
-0.073974609375
0.0823974609375
-0.024169921875
0.0252685546875
-0.0084228515625
0.0142822265625
0.015380859375
0.022705078125
0.019775390625
-0.01318359375
-0.0281982421875
-0.03662109375
-0.009521484375
-0.00439453125
0.0029296875
0.00732421875
0.0135498046875
0.0223388671875
0.0087890625
0.01904296875
0.015380859375
-0.0018310546875
0.009521484375
0.002197265625
0.00439453125
0.0069580078125
0.0216064453125
0.0281982421875
0.0098876953125
0.0523681640625
0.016845703125
0.055694580078125
0.0142822265625
0.013916015625
0.031494140625
-0.0087890625
0.0091552734375
0.006256103515625
-0.00439453125
0.0076904296875
-0.0054931640625
0.01171875
-0.0076904296875
0.0084228515625
0.01611328125
0.003662109375
-0.005126953125
0.003662109375
0.0040283203125
0.0545654296875
0.0040283203125
0.062255859375
0.008056640625
0.0087890625
0.0025634765625
-0.0018310546875
-0.0069580078125
-0.0205078125
0.076171875
0.0150146484375
-0.0208740234375
0.0120849609375
-0.0787353515625
-0.0234375
-0.00146484375
-0.0032958984375
0.0010986328125
0.0025634765625
-0.0018310546875
0.005859375
0.0003662109375
-0.003662109375
0.002197265625
-0.0084228515625
-0.0054931640625
-0.0032958984375
0.012451171875
0.0128173828125
0.0003662109375
0.0029296875
0.0113525390625
-0.01025390625
0.002197265625
-0.00732421875
0.0047607421875
-0.0135498046875
0.0084228515625
-0.0106201171875
0.0062255859375
-0.0120849609375
0.0194091796875
-0.0172119140625
0.0069580078125
-0.0303955078125
0.0421142578125
-0.021240234375
0.02783203125
-0.0054931640625
0.0040283203125
0.0479736328125
-0.0494384765625
0.06005859375
-0.0567626953125
0.00732421875
-0.0084228515625
0.0040283203125
-0.01904296875
0.01025390625
0.005126953125
0.0179443359375
0.0076904296875
-0.0179443359375
-0.019775390625
-0.037353515625
-0.0391845703125
0.0069580078125
-0.0164794921875
0.006591796875
-0.019775390625
-0.0135498046875
-0.02197265625
-0.01318359375
-0.0087890625
0.021240234375
-0.02490234375
0.059326171875
-0.0194091796875
0.0443115234375
-0.0443115234375
0.046875
-0.068878173828125
0.0281982421875
-0.055694580078125
0.005859375
-0.005126953125
-0.063720703125
0.116119384765625
-0.0662841796875
0.130767822265625
0.03369140625
0.0406494140625
0.0655517578125
-0.0062255859375
0.271392822265625
0.01171875
0.347564697265625
0.021240234375
0.300689697265625
-0.0146484375
0.38421630859375
-0.0369873046875
0.199249267578125
-0.0087890625
0.0
0.0076904296875
-0.078765869140625
-0.00439453125
-0.158966064453125
0.0098876953125
-0.1094970703125
0.0263671875
-0.0380859375
0.0010986328125
-0.0919189453125
-0.0498046875
-0.130401611328125
-0.0091552734375
-0.105499267578125
0.0069580078125
-0.1962890625
0.01025390625
-0.57318115234375
0.0443115234375
-0.48126220703125
0.0135498046875
-0.06005859375
0.0150146484375
0.016845703125
0.010986328125
0.05419921875
0.0164794921875
0.0369873046875
0.015380859375
-0.01025390625
0.008056640625
-0.0380859375
0.0157470703125
-0.017578125
-0.0084228515625
-0.0098876953125
0.0029296875
0.0018310546875
-0.0150146484375
0.0201416015625
-0.01611328125
0.0263671875
-0.002197265625
0.0655517578125
-0.0421142578125
0.0604248046875
-0.057861328125
0.022369384765625
-0.02197265625
0.014678955078125
0.012451171875
0.0087890625
0.003662109375
0.005126953125
0.0106201171875
0.019775390625
0.01904296875
0.0457763671875
0.010986328125
-0.0029296875
-0.0260009765625
-0.0340576171875
-0.0201416015625
-0.0010986328125
0.012451171875
0.0069580078125
-0.003662109375
0.0025634765625
0.01318359375
-0.054962158203125
0.00732421875
-0.063018798828125
0.0113525390625
-0.0047607421875
0.0076904296875
0.0146484375
0.0062255859375
0.028564453125
0.0142822265625
0.031524658203125
0.0029296875
0.021270751953125
0.01025390625
0.0157470703125
-0.01025390625
0.0146484375
-0.0025634765625
0.0179443359375
-0.009521484375
0.01171875
-0.0084228515625
-0.0025634765625
0.0091552734375
0.0025634765625
0.010986328125
-0.0076904296875
0.0106201171875
-0.002197265625
-0.008056640625
0.0091552734375
0.009521484375
0.0054931640625
0.00732421875
-0.0029296875
0.01318359375
-0.01904296875
0.01318359375
-0.02490234375
0.0791015625
0.01318359375
-0.000732421875
0.0040283203125
-0.078369140625
-0.0347900390625
0.010986328125
0.0
-0.013916015625
0.01904296875
-0.0062255859375
0.027099609375
-0.0029296875
0.0128173828125
0.0076904296875
-0.0172119140625
0.0142822265625
-0.0186767578125
0.0146484375
0.00732421875
0.021240234375
0.0318603515625
0.0025634765625
0.0076904296875
0.010986328125
-0.0113525390625
-0.0029296875
-0.01318359375
-0.000732421875
0.03515625
-0.05126953125
0.0560302734375
-0.066650390625
-0.00146484375
-0.0252685546875
-0.015380859375
-0.0098876953125
-0.082794189453125
0.05419921875
-0.093780517578125
0.0263671875
-0.0142822265625
-0.0157470703125
0.050567626953125
-0.0263671875
0.097442626953125
-0.027099609375
0.0699462890625
-0.03076171875
0.052001953125
-0.0538330078125
0.0596923828125
-0.00732421875
0.0618896484375
-0.0604248046875
-0.0816650390625
0.04541015625
-0.1014404296875
0.1278076171875
0.376129150390625
0.035888671875
0.412384033203125
0.0087890625
0.126007080078125
0.005859375
0.194122314453125
-0.0087890625
0.2156982421875
-0.0252685546875
0.167022705078125
0.01611328125
0.059326171875
-0.0062255859375
0.030029296875
0.0029296875
0.037750244140625
-0.003662109375
0.0
0.0040283203125
0.0
0.0018310546875
0.0
-0.003662109375
0.0
0.0106201171875
0.0
-0.035888671875
0.0
-0.02197265625
0.0
-0.0087890625
0.0
0.02197265625
0.0
0.0032958984375
0.0
-0.009521484375
0.0
0.0164794921875
0.0
-0.0040283203125
0.0
0.0032958984375
0.0
-0.0289306640625
0.0
-0.03076171875
0.0
-0.0457763671875
-0.036651611328125
-0.0263671875
-0.43988037109375
-0.006591796875
-0.531036376953125
0.0
-0.240264892578125
0.030029296875
-0.167755126953125
0.012451171875
-0.1175537109375
0.029296875
-0.332916259765625
0.0113525390625
-0.50836181640625
0.017578125
-0.278717041015625
0.0179443359375
-0.06005859375
0.0150146484375
-0.0615234375
0.0201416015625
-0.0538330078125
-0.0029296875
-0.00146484375
0.00439453125
0.0322265625
-0.0157470703125
0.07177734375
0.0069580078125
0.0728759765625
0.013916015625
0.028564453125
0.0113525390625
-0.052734375
0.0047607421875
-0.0216064453125
-0.0113525390625
0.073974609375
0.0
0.0443115234375
0.005126953125
0.075439453125
-0.0216064453125
0.09521484375
-0.0010986328125
0.063385009765625
-0.03076171875
0.036285400390625
-0.07763671875
0.010986328125
-0.0010986328125
0.0223388671875
0.005126953125
0.043212890625
0.0040283203125
0.0487060546875
0.0252685546875
0.0234375
0.0
-0.009521484375
0.035888671875
-0.0032958984375
0.0391845703125
0.0384521484375
0.018310546875
0.0655517578125
0.015380859375
0.0736083984375
-0.0113525390625
0.0516357421875
-0.0029296875
0.0322265625
-0.0098876953125
0.030029296875
-0.002197265625
0.0186767578125
0.000732421875
0.009521484375
0.006591796875
0.01318359375
0.01025390625
0.0113525390625
0.01171875
0.005126953125
0.0062255859375
0.0150146484375
-0.0062255859375
0.025299072265625
0.0142822265625
0.037384033203125
0.003662109375
0.024169921875
0.0032958984375
0.0128173828125
0.0091552734375
0.03515625
0.012451171875
0.0040283203125
-0.0205078125
-0.0128173828125
-0.0289306640625
0.00439453125
0.01025390625
0.01611328125
-0.0098876953125
0.0340576171875
-0.006591796875
0.0208740234375
-0.0128173828125
-0.0047607421875
-0.000732421875
-0.009521484375
0.0054931640625
-0.01611328125
0.0047607421875
0.0142822265625
-0.0113525390625
0.0703125
-0.0498046875
0.040283203125
-0.01171875
-0.00732421875
0.0047607421875
0.0010986328125
0.0025634765625
0.0084228515625
-0.005859375
0.0084228515625
-0.0076904296875
-0.0047607421875
0.0062255859375
0.0029296875
0.00146484375
0.003662109375
0.009521484375
-0.00439453125
0.0029296875
0.0032958984375
0.0128173828125
0.0032958984375
0.0047607421875
0.0054931640625
0.0054931640625
-0.0040283203125
0.00732421875
-0.0003662109375
0.0421142578125
0.0333251953125
-0.0040283203125
0.0069580078125
-0.0640869140625
-0.017578125
-0.0076904296875
0.00439453125
-0.0069580078125
0.016845703125
-0.00439453125
0.0340576171875
-0.01318359375
0.0018310546875
0.003662109375
-0.03369140625
0.01611328125
-0.0296630859375
0.0142822265625
-0.0054931640625
0.01904296875
0.01611328125
-0.00439453125
0.0054931640625
0.008056640625
-0.0157470703125
-0.0018310546875
-0.0230712890625
-0.005126953125
-0.012451171875
-0.0120849609375
-0.0084228515625
-0.018310546875
-0.013916015625
-0.0146484375
-0.005126953125
-0.03076171875
-0.00439453125
-0.0150146484375
0.003662109375
-0.0380859375
-0.063720703125
0.0201416015625
-0.10107421875
0.031494140625
-0.049072265625
-0.015380859375
-0.058624267578125
-0.01171875
-0.034820556640625
-0.0347900390625
-0.01171875
0.0380859375
0.0054931640625
-0.035888671875
0.0435791015625
-0.078369140625
0.096343994140625
-0.021636962890625
0.255645751953125
0.008056640625
0.391510009765625
0.121612548828125
0.288238525390625
0.1065673828125
0.232940673828125
0.0303955078125
0.35198974609375
0.0120849609375
0.198516845703125
-0.0076904296875
0.0
-0.0421142578125
0.0
-0.0025634765625
0.0
0.0025634765625
0.0
0.0076904296875
0.0
0.0245361328125
0.0
0.006591796875
0.0
0.013916015625
0.0
-0.0047607421875
0.0
0.0201416015625
0.0
-0.00146484375
0.0
-0.00732421875
0.0
-0.0142822265625
0.0
-0.03369140625
-0.093048095703125
-0.0146484375
-0.203277587890625
-0.01171875
-0.19775390625
0.0333251953125
-0.209869384765625
0.027099609375
-0.312042236328125
0.0069580078125
-0.63214111328125
-0.0670166015625
-0.57391357421875
-0.0721435546875
-0.195953369140625
-0.0018310546875
-0.037017822265625
0.005859375
0.0054931640625
0.0142822265625
-0.03662109375
-0.01318359375
-0.0040283203125
-0.0062255859375
0.030029296875
0.002197265625
-0.0684814453125
0.0205078125
-0.08203125
0.021240234375
0.025634765625
0.0106201171875
0.02197265625
0.01904296875
-0.0369873046875
-0.01025390625
-0.0252685546875
-0.0010986328125
0.0311279296875
-0.0128173828125
0.044677734375
0.005859375
0.0421142578125
0.022705078125
0.02783203125
0.0076904296875
0.0223388671875
0.0087890625
0.047607421875
0.0047607421875
0.066314697265625
0.0179443359375
0.042510986328125
-0.003662109375
0.0260009765625
0.0003662109375
0.04248046875
0.032958984375
0.06884765625
-0.0439453125
0.035888671875
-0.0714111328125
0.02490234375
0.0003662109375
0.0296630859375
0.018310546875
0.03955078125
0.0018310546875
0.0457763671875
0.006591796875
0.0018310546875
0.01318359375
-0.0018310546875
0.022705078125
0.005859375
0.0245361328125
0.0267333984375
0.017578125
0.0574951171875
0.0128173828125
0.0435791015625
-0.0025634765625
0.016845703125
0.0106201171875
0.00732421875
-0.005126953125
0.0076904296875
0.0032958984375
0.0164794921875
0.00732421875
0.023101806640625
-0.000732421875
0.025299072265625
0.00732421875
0.0234375
0.0113525390625
0.0032958984375
0.01904296875
0.0047607421875
0.008056640625
0.06591796875
-0.03076171875
0.0633544921875
-0.0472412109375
0.0146484375
-0.0047607421875
0.013916015625
-0.006591796875
0.0062255859375
0.047607421875
0.005859375
-0.005126953125
-0.0018310546875
-0.0673828125
-0.013916015625
0.005859375
-0.0106201171875
0.0010986328125
-0.0032958984375
0.018310546875
0.002197265625
0.0054931640625
-0.0252685546875
0.0142822265625
-0.05126953125
0.0369873046875
-0.02783203125
0.0223388671875
-0.0194091796875
0.0487060546875
-0.0150146484375
0.03369140625
-0.00146484375
0.0120849609375
0.0098876953125
-0.0157470703125
0.03662109375
-0.0450439453125
0.018310546875
-0.02490234375
0.0120849609375
-0.0216064453125
0.017578125
-0.0201416015625
0.0047607421875
0.00146484375
-0.003662109375
0.0150146484375
-0.00439453125
-0.01025390625
-0.002197265625
-0.0032958984375
-0.0120849609375
0.005859375
-0.0146484375
0.00732421875
-0.013916015625
0.0
0.0032958984375
0.009521484375
0.025634765625
-0.0084228515625
-0.0084228515625
-0.06298828125
-0.03369140625
-0.0260009765625
-0.0201416015625
-0.0252685546875
-0.0234375
-0.02783203125
-0.0274658203125
-0.017578125
-0.020904541015625
-0.0238037109375
-0.075469970703125
0.02783203125
-0.09228515625
0.0362548828125
-0.019775390625
0.003662109375
0.005859375
-0.0216064453125
-0.0010986328125
-0.013916015625
-0.02490234375
-0.0157470703125
0.0003662109375
-0.016845703125
0.025634765625
-0.012451171875
0.0018310546875
-0.0216064453125
0.184600830078125
-0.009521484375
0.43841552734375
-0.006591796875
0.461822509765625
0.085693359375
0.297393798828125
0.08203125
0.168487548828125
0.0194091796875
0.1387939453125
0.00439453125
0.130767822265625
-0.0098876953125
0.106597900390625
0.00439453125
0.0333251953125
-0.002197265625
0.0
0.018310546875
0.0
-0.01025390625
0.0
-0.022705078125
0.0
-0.0205078125
0.0
-0.0157470703125
-0.082794189453125
-0.0018310546875
-0.186798095703125
-0.0040283203125
-0.1728515625
-0.0289306640625
-0.156768798828125
-0.0582275390625
-0.51165771484375
0.00439453125
-0.68267822265625
0.0172119140625
-0.331085205078125
0.012451171875
-0.1435546875
0.0216064453125
-0.0648193359375
0.0087890625
0.008056640625
0.0076904296875
0.0098876953125
-0.000732421875
-0.016845703125
0.04541015625
-0.043975830078125
0.0362548828125
0.0911865234375
-0.0406494140625
0.111724853515625
-0.028564453125
0.0494384765625
-0.0146484375
0.060791015625
-0.0322265625
0.0289306640625
-0.009521484375
0.0142822265625
0.0069580078125
0.0142822265625
-0.0054931640625
0.0340576171875
0.0150146484375
0.0267333984375
0.0216064453125
0.02490234375
0.0120849609375
0.022705078125
0.00146484375
0.021240234375
-0.0054931640625
0.0205078125
0.013916015625
0.0260009765625
0.003662109375
0.0289306640625
0.0106201171875
0.016876220703125
0.002197265625
0.016510009765625
0.0029296875
0.0032958984375
0.0032958984375
0.0076904296875
-0.00146484375
0.0128173828125
0.00732421875
0.005126953125
-0.0029296875
0.005126953125
0.0032958984375
0.0087890625
-0.0018310546875
0.0128173828125
0.0113525390625
0.003662109375
0.0018310546875
0.00439453125
-0.0029296875
0.0040283203125
0.0157470703125
0.0040283203125
0.0172119140625
0.0076904296875
0.0194091796875
0.0076904296875
0.0018310546875
0.0120849609375
0.006591796875
0.00146484375
-0.0025634765625
-0.04541015625
0.040283203125
-0.057159423828125
0.11572265625
0.0186767578125
-0.005126953125
0.019805908203125
-0.0728759765625
-0.0150146484375
-0.0076904296875
0.005126953125
0.0025634765625
0.032958984375
-0.00439453125
0.04541015625
-0.006591796875
0.009521484375
-0.0157470703125
-0.0029296875
-0.0113525390625
0.0032958984375
-0.000732421875
-0.005126953125
0.0146484375
-0.002197265625
0.0289306640625
0.000732421875
0.00146484375
-0.0076904296875
-0.0091552734375
0.0010986328125
-0.0296630859375
0.009521484375
-0.0179443359375
0.009521484375
-0.0150146484375
0.024169921875
-0.021240234375
0.0274658203125
-0.0018310546875
0.041748046875
-0.0311279296875
0.037353515625
-0.0399169921875
0.0186767578125
-0.03662109375
0.010986328125
-0.0113525390625
-0.0172119140625
-0.0029296875
-0.0142822265625
-0.0113525390625
-0.0069580078125
-0.0186767578125
-0.0047607421875
0.0263671875
0.0032958984375
-0.0230712890625
-0.0604248046875
-0.059326171875
-0.076171875
0.022705078125
0.0186767578125
-0.0135498046875
0.0157470703125
-0.015380859375
-0.090484619140625
-0.0113525390625
0.0780029296875
-0.008056640625
0.612762451171875
0.0194091796875
0.65447998046875
0.0677490234375
0.258575439453125
0.088623046875
0.090850830078125
0.016845703125
0.0234375
0.0106201171875
0.0
-0.0113525390625
0.0003662109375
-0.01611328125
0.0
0.013916015625
-0.0003662109375
0.0113525390625
0.0
0.022705078125
0.0
0.015380859375
0.0
0.0340576171875
0.0
0.005126953125
0.0
0.0003662109375
0.0
0.0025634765625
0.0
0.00439453125
0.0
0.010986328125
0.0
0.00146484375
0.0
0.0692138671875
0.0
0.0194091796875
0.0
-0.01025390625
0.0
-0.0087890625
0.0
-0.0234375
0.0
-0.0216064453125
0.0
-0.0391845703125
0.0
-0.01171875
0.0
-0.0032958984375
0.0
0.00732421875
-0.149444580078125
-0.0205078125
-0.274688720703125
-0.0142822265625
-0.256744384765625
-0.0076904296875
-0.171051025390625
-0.0172119140625
-0.1219482421875
-0.01025390625
-0.1336669921875
-0.0208740234375
-0.098175048828125
0.0029296875
-0.152008056640625
0.0135498046875
-0.13623046875
0.0223388671875
-0.0853271484375
0.0062255859375
-0.032958984375
-0.0040283203125
-0.283477783203125
0.0084228515625
-0.317169189453125
0.0150146484375
-0.0428466796875
0.0296630859375
-0.0303955078125
-0.00146484375
0.0142822265625
0.044677734375
0.04541015625
-0.050537109375
0.04541015625
-0.0926513671875
-0.0091552734375
0.0010986328125
-0.41607666015625
-0.0062255859375
-0.39263916015625
0.01318359375
0.0
-0.0018310546875
0.0
0.005859375
0.0
-0.003662109375
0.0
0.0029296875
0.0
0.005126953125
0.0
-0.0062255859375
0.0
0.006591796875
0.0
-0.0025634765625
0.0
-0.002197265625
0.0
-0.0150146484375
0.0
-0.0069580078125
0.0
0.008056640625
0.0
0.0223388671875
0.0
0.0135498046875
0.029296875
-0.00732421875
0.076202392578125
-0.003662109375
0.014678955078125
-0.0347900390625
-0.02197265625
-0.0245361328125
0.03515625
-0.018310546875
0.03662109375
0.0655517578125
0.06005859375
-0.005859375
0.0750732421875
-0.0780029296875
0.034423828125
0.0157470703125
0.0450439453125
-0.0054931640625
0.076171875
0.005859375
0.08203125
-0.015380859375
0.0494384765625
-0.01171875
0.00732421875
0.006591796875
0.015380859375
0.009521484375
0.042510986328125
0.0091552734375
0.060455322265625
0.0032958984375
0.027099609375
0.012451171875
-0.0142822265625
-0.0062255859375
-0.0164794921875
0.0062255859375
-0.0135498046875
0.0146484375
0.041748046875
-0.0069580078125
0.02783203125
-0.0047607421875
0.000732421875
0.0179443359375
0.027099609375
0.0120849609375
0.0142822265625
-0.00146484375
0.0318603515625
-0.00146484375
0.0146484375
0.0084228515625
-0.0003662109375
0.029296875
0.016845703125
0.000732421875
0.0399169921875
-0.006591796875
0.0303955078125
0.0435791015625
0.01171875
-0.0172119140625
0.015380859375
-0.052734375
-0.0047607421875
0.0025634765625
0.0032958984375
0.016845703125
0.029296875
0.0032958984375
0.057861328125
-0.0164794921875
0.0252685546875
-0.0150146484375
-0.00732421875
0.0054931640625
0.0135498046875
0.0120849609375
0.037353515625
-0.000732421875
0.0443115234375
0.0087890625
0.0172119140625
0.0
0.0062255859375
0.000732421875
0.0040283203125
-0.0128173828125
0.015045166015625
-0.021240234375
0.011749267578125
-0.0142822265625
0.0003662109375
-0.0120849609375
-0.005523681640625
0.003662109375
-0.012115478515625
-0.0223388671875
0.013946533203125
-0.0252685546875
0.019439697265625
-0.0377197265625
0.0069580078125
-0.0311279296875
-0.043609619140625
0.013916015625
-0.022369384765625
0.0069580078125
0.127105712890625
0.013916015625
0.47430419921875
-0.0208740234375
0.62152099609375
-0.00732421875
0.42047119140625
0.0531005859375
0.172515869140625
0.0633544921875
0.0
0.0443115234375
0.0
-0.02783203125
0.0
-0.0347900390625
0.0
0.0325927734375
0.0
0.0677490234375
0.0
0.027099609375
0.0
0.0281982421875
0.0
0.0391845703125
0.0
-0.0208740234375
0.0
-0.0223388671875
0.0
0.0699462890625
0.0
0.0750732421875
0.0
0.0164794921875
0.0
0.046905517578125
0.0003662109375
0.034088134765625
0.0
0.0457763671875
-0.0003662109375
0.02783203125
0.0
0.00146484375
0.0
0.0186767578125
0.0
-0.0087890625
0.0
0.006591796875
0.0
0.00439453125
0.0
-0.0087890625
0.0
-0.061553955078125
0.0
-0.055694580078125
0.0
-0.0439453125
0.0
-0.071044921875
0.0
-0.0406494140625
0.0
-0.05859375
0.0
-0.02783203125
-0.53839111328125
0.0076904296875
-0.770233154296875
0.0098876953125
-0.46038818359375
0.005126953125
-0.310943603515625
0.00146484375
-0.1534423828125
0.005859375
-0.069580078125
-0.0205078125
-0.041778564453125
-0.0040283203125
-0.104766845703125
-0.012451171875
-0.040283203125
0.000732421875
-0.0413818359375
0.01318359375
-0.06591796875
0.0113525390625
-0.0435791015625
-0.00146484375
-0.068115234375
-0.0172119140625
-0.1094970703125
0.0032958984375
-0.117950439453125
-0.0087890625
-0.049468994140625
0.0018310546875
-0.01318359375
-0.000732421875
0.036651611328125
0.0098876953125
0.0
-0.0303955078125
-0.036651611328125
-0.041748046875
0.0
0.0069580078125
0.0
-0.0076904296875
0.0
0.005859375
0.0
-0.00146484375
0.0
-0.00146484375
0.0
-0.005126953125
0.0
0.0
0.0
0.010986328125
0.0
0.0054931640625
0.0
0.01611328125
0.0
0.00439453125
0.0
0.0062255859375
0.0
-0.015380859375
0.0
-0.0186767578125
0.0
0.0
0.0
0.008056640625
0.0
0.0084228515625
0.0
-0.0032958984375
0.0
0.0142822265625
0.0
0.005126953125
0.0
0.006591796875
0.0
0.0029296875
0.0
0.0245361328125
0.0
-0.0018310546875
0.0
-0.062255859375
0.0
-0.024169921875
0.0
-0.038818359375
0.0
-0.03076171875
0.0
0.0047607421875
0.0
0.015380859375
0.0
0.0113525390625
0.0
0.0113525390625
0.0
0.025634765625
0.0
0.015380859375
0.0
0.032958984375
0.0
0.002197265625
0.0
-0.0120849609375
0.0
-0.0029296875
0.0
0.0032958984375
0.0
0.0003662109375
0.00732421875
-0.012451171875
0.0263671875
0.0194091796875
0.045440673828125
0.000732421875
0.058624267578125
-0.0062255859375
0.05126953125
0.0010986328125
0.0618896484375
0.005859375
0.025634765625
-0.0069580078125
-0.0369873046875
-0.0135498046875
-0.015380859375
0.052734375
0.0516357421875
-0.0091552734375
0.0399169921875
-0.052734375
0.0655517578125
-0.0703125
0.1234130859375
-0.0780029296875
0.0439453125
0.012451171875
0.0355224609375
0.0322265625
0.0487060546875
0.0087890625
-0.00732421875
0.027099609375
-0.0062255859375
0.03955078125
0.025665283203125
-0.0018310546875
0.061553955078125
-0.0025634765625
0.052734375
-0.0098876953125
0.0238037109375
-0.0040283203125
0.01171875
-0.0076904296875
0.0047607421875
-0.022705078125
-0.013916015625
-0.0084228515625
-0.0472412109375
-0.0311279296875
-0.0450439453125
-0.0172119140625
-0.027099609375
-0.01904296875
-0.0084228515625
0.000732421875
0.0
0.0325927734375
0.2047119140625
0.0076904296875
0.57867431640625
-0.0146484375
0.53839111328125
-0.0296630859375
0.252685546875
-0.010986328125
0.42779541015625
0.027099609375
0.33880615234375
-0.068145751953125
0.0
-0.049072265625
0.0
0.072174072265625
0.0
0.0263671875
0.0
0.01025390625
0.0
0.025634765625
0.0
-0.0106201171875
0.0
-0.0142822265625
0.0
-0.0260009765625
0.0
0.0018310546875
0.0
0.0260009765625
0.0
0.010986328125
0.0
0.01904296875
0.0
0.018310546875
0.0
0.0238037109375
0.0
0.00146484375
0.0003662109375
0.0377197265625
0.0
0.052734375
-0.0003662109375
0.05859375
0.0
0.029296875
0.0
-0.0106201171875
0.0
-0.02490234375
0.0
-0.0501708984375
0.0
-0.0263671875
0.0
-0.0128173828125
0.0
0.05712890625
0.0
-0.0062255859375
0.0
-0.0362548828125
-0.165924072265625
0.0662841796875
-0.39923095703125
0.0311279296875
-0.45599365234375
0.0238037109375
-0.347198486328125
0.0164794921875
-0.21826171875
0.0091552734375
-0.1417236328125
-0.0032958984375
-0.019775390625
0.00439453125
-0.075836181640625
0.01904296875
-0.216827392578125
0.0025634765625
-0.224884033203125
0.0179443359375
-0.135528564453125
-0.0029296875
-0.04248046875
-0.015380859375
-0.06591796875
-0.019775390625
0.00146484375
-0.0150146484375
-0.0450439453125
0.005126953125
-0.0615234375
-0.02490234375
0.0146484375
-0.0322265625
0.0029296875
-0.0142822265625
0.0347900390625
0.012451171875
-0.210968017578125
0.005126953125
-0.225616455078125
-0.003662109375
0.0
-0.010986328125
0.0
0.0567626953125
0.0
-0.0106201171875
0.0
-0.0926513671875
0.003662109375
0.00439453125
0.0322265625
-0.00732421875
0.050567626953125
-0.002197265625
0.012115478515625
0.000732421875
-0.054229736328125
0.0025634765625
-0.044342041015625
0.0047607421875
0.0
-0.008056640625
0.0
-0.0076904296875
0.0
-0.000732421875
0.0
0.0311279296875
0.0
0.0054931640625
0.0
-0.012451171875
0.0
-0.046142578125
0.0
-0.050537109375
0.0
-0.013916015625
0.0
-0.0018310546875
0.0
0.0146484375
0.0
-0.018310546875
0.0
-0.00439453125
0.0
0.0040283203125
0.0
0.0032958984375
0.0
0.005126953125
0.0
-0.005859375
0.0
0.0699462890625
0.0
-0.0194091796875
0.0
-0.062255859375
0.0
0.01318359375
0.0
0.0040283203125
0.0
0.005126953125
0.0
0.0040283203125
0.0
0.0128173828125
0.0
-0.000732421875
0.0
0.0076904296875
0.0
0.0098876953125
0.0
0.017578125
0.025634765625
-0.00146484375
0.071807861328125
-0.01171875
0.047271728515625
-0.00439453125
0.041748046875
-0.002197265625
0.0574951171875
0.003662109375
0.03662109375
-0.000732421875
0.047607421875
0.019775390625
0.0333251953125
0.003662109375
0.032958984375
-0.002197265625
0.0303955078125
0.0087890625
0.041015625
0.01025390625
0.0443115234375
0.006591796875
0.03369140625
-0.0084228515625
0.0380859375
0.04248046875
-0.0260009765625
-0.0047607421875
-0.0758056640625
-0.044677734375
-0.0428466796875
0.0
0.028564453125
0.00146484375
0.038818359375
-0.00146484375
0.060791015625
-0.0029296875
0.067779541015625
0.0087890625
0.034820556640625
0.00439453125
0.0322265625
0.0311279296875
0.0509033203125
0.016845703125
0.0721435546875
0.0040283203125
0.0303955078125
0.0069580078125
0.005859375
-0.002197265625
-0.0091552734375
0.000732421875
-0.07177734375
-0.0091552734375
-0.084228515625
-0.0040283203125
-0.121612548828125
-0.025634765625
-0.193389892578125
-0.01611328125
-0.1541748046875
-0.0146484375
-0.032958984375
-0.0252685546875
0.0223388671875
-0.027099609375
0.0032958984375
0.0172119140625
0.027099609375
0.041015625
0.62188720703125
-0.0194091796875
0.762542724609375
-0.021240234375
0.262237548828125
-0.00439453125
0.467681884765625
-0.04541015625
0.50579833984375
-0.0677490234375
0.133697509765625
-0.016845703125
0.0
0.0128173828125
0.0
0.0216064453125
0.0
0.041748046875
0.0
0.0201416015625
0.0
0.0260009765625
0.0
0.02490234375
0.0003662109375
-0.0135498046875
0.0
-0.0303955078125
-0.0003662109375
0.00732421875
0.0
0.0435791015625
0.0
0.010986328125
0.0
0.01171875
0.0
0.0146484375
0.0
0.032958984375
0.0
0.0245361328125
0.0
0.005859375
0.0
0.0062255859375
0.0
-0.021240234375
0.0
-0.0194091796875
0.0
-0.046142578125
0.0
-0.040283203125
0.0
0.006591796875
0.0
0.0450439453125
0.0
0.0029296875
0.0
-0.0238037109375
-0.0164794921875
0.01904296875
-0.215362548828125
-0.00146484375
-0.48931884765625
0.015380859375
-0.45745849609375
-0.0040283203125
-0.201080322265625
-0.012451171875
-0.1431884765625
0.0087890625
-0.1080322265625
0.0062255859375
-0.056396484375
0.01611328125
-0.45599365234375
0.0084228515625
-0.41461181640625
0.01025390625
-0.0205078125
-0.0172119140625
0.03369140625
-0.0120849609375
0.01611328125
-0.008056640625
0.029296875
-0.01171875
0.05712890625
0.0098876953125
0.064483642578125
0.0087890625
0.049835205078125
0.012451171875
-0.026763916015625
-0.00146484375
-0.022369384765625
0.0076904296875
-0.0384521484375
0.0029296875
-0.0098876953125
-0.0003662109375
-0.104736328125
0.0
-0.19189453125
0.0582275390625
-0.08935546875
-0.0062255859375
-0.04248046875
-0.0743408203125
-0.038818359375
0.0157470703125
-0.060455322265625
-0.0054931640625
-0.041778564453125
0.0029296875
-0.0040283203125
0.003662109375
0.0
-0.0054931640625
0.0
0.012451171875
0.0
0.0069580078125
0.0
0.0179443359375
0.0
-0.0003662109375
0.0
-0.028564453125
0.0
-0.0391845703125
0.0
-0.015380859375
0.0
-0.006591796875
0.0
-0.010986328125
0.0
0.0010986328125
0.0
0.0040283203125
0.0
0.0172119140625
0.0
-0.0010986328125
0.0
0.0040283203125
0.0
0.009521484375
0.0
0.0029296875
0.0
0.006591796875
0.0
0.008056640625
0.0
0.02783203125
0.0
-0.0318603515625
0.0
-0.0333251953125
0.0
-0.0010986328125
0.0
-0.003662109375
0.0
0.006591796875
0.0
0.0047607421875
0.0
0.013916015625
0.0
0.017578125
0.0
0.0457763671875
0.0
0.0465087890625
0.0
0.037353515625
0.051666259765625
0.013916015625
0.128936767578125
-0.002197265625
0.1007080078125
-0.0025634765625
0.0589599609375
-0.01171875
0.056396484375
-0.0025634765625
0.0377197265625
-0.005126953125
0.041015625
0.0120849609375
0.0069580078125
0.00732421875
0.0040283203125
0.0029296875
0.0260009765625
0.0091552734375
-0.0721435546875
0.0084228515625
-0.0904541015625
0.01025390625
-0.0076904296875
-0.0062255859375
0.0025634765625
0.050537109375
0.0234375
-0.0098876953125
0.0179443359375
-0.052734375
-0.009521484375
0.0018310546875
0.028564453125
0.0
0.041748046875
0.0076904296875
0.0728759765625
-0.0010986328125
0.0809326171875
0.0164794921875
0.0238037109375
0.0098876953125
0.013580322265625
0.0179443359375
0.032623291015625
0.0087890625
0.0670166015625
-0.0128173828125
0.063720703125
-0.0186767578125
0.0238037109375
-0.0146484375
-0.021240234375
0.0157470703125
-0.0281982421875
-0.0003662109375
-0.00439453125
-0.0076904296875
-0.019775390625
-0.0289306640625
-0.0435791015625
-0.013916015625
-0.058624267578125
-0.0076904296875
-0.018310546875
-0.0333251953125
0.0098876953125
-0.024169921875
0.0091552734375
-0.032958984375
0.039215087890625
-0.0238037109375
-0.024932861328125
0.0369873046875
0.0087890625
0.0498046875
0.46771240234375
0.040283203125
0.72406005859375
-0.0238037109375
0.42266845703125
-0.0703125
0.362945556640625
-0.018310546875
0.302154541015625
-0.0076904296875
0.046173095703125
-0.0230712890625
0.0
-0.0076904296875
0.0
0.0047607421875
0.0
0.0399169921875
0.0
0.0457763671875
0.0
0.005859375
0.0
0.0062255859375
0.0
-0.0029296875
0.0
0.00439453125
0.0
-0.0062255859375
0.0
0.0040283203125
0.0
-0.0098876953125
0.0
0.0120849609375
0.0
0.02490234375
0.0
-0.0120849609375
0.0
-0.0025634765625
0.0
-0.02197265625
0.0
-0.0164794921875
0.0
-0.0322265625
0.0
-0.01171875
0.0
0.00146484375
0.0
0.022705078125
0.0
-0.0135498046875
0.0
-0.054931640625
0.0
0.008056640625
0.0
-0.0150146484375
0.0
-0.0010986328125
-0.163360595703125
0.00439453125
-0.238800048828125
0.0032958984375
-0.172149658203125
0.01318359375
-0.38165283203125
0.0010986328125
-0.62921142578125
0.0084228515625
-0.391143798828125
-0.000732421875
-0.21240234375
0.0076904296875
-0.279083251953125
-0.00732421875
-0.127471923828125
-0.0010986328125
-0.03662109375
-0.0087890625
0.0018310546875
-0.0384521484375
0.015380859375
-0.0120849609375
-0.0062255859375
-0.0025634765625
0.0
0.0076904296875
-0.000732421875
-0.0047607421875
-0.0919189453125
0.0032958984375
-0.189727783203125
0.006591796875
-0.095611572265625
-0.0234375
0.0
-0.030029296875
0.0
0.0406494140625
0.0
0.0040283203125
0.0
-0.054931640625
0.0
0.02197265625
0.0
0.0216064453125
0.0
0.01904296875
0.0
-0.0303955078125
0.0
-0.059326171875
0.0
-0.0076904296875
0.0
0.0
0.0
0.0146484375
0.0
0.0120849609375
0.0
0.0128173828125
0.0
0.00439453125
0.0
-0.00146484375
0.0
0.01318359375
0.0
0.00732421875
0.0
0.005126953125
0.0
-0.0010986328125
0.0
0.017578125
0.0
0.0069580078125
0.0
0.005126953125
0.0
0.0087890625
0.0
0.000732421875
0.0
0.0135498046875
0.0
0.000732421875
0.0
0.052734375
0.045074462890625
-0.0032958984375
0.053131103515625
-0.0509033203125
0.0150146484375
0.0
0.0421142578125
-0.00146484375
0.0428466796875
0.0069580078125
0.0640869140625
0.003662109375
0.0699462890625
0.0106201171875
0.035888671875
-0.0018310546875
0.0443115234375
0.0087890625
0.0439453125
0.006591796875
0.079833984375
0.006591796875
0.084625244140625
0.0091552734375
0.052398681640625
-0.0040283203125
0.0263671875
0.0010986328125
0.01171875
-0.0098876953125
0.01318359375
0.0010986328125
0.009521484375
-0.0128173828125
0.031494140625
0.005126953125
0.0260009765625
0.016845703125
0.01904296875
-0.000732421875
0.022705078125
0.0029296875
0.037353515625
-0.005126953125
0.01171875
0.0091552734375
0.0399169921875
-0.056396484375
0.1292724609375
-0.0999755859375
0.063720703125
0.0128173828125
0.0340576171875
-0.0128173828125
0.017578125
-0.059326171875
-0.006591796875
0.00732421875
0.008056640625
0.012451171875
0.0113525390625
0.0054931640625
0.036651611328125
0.017578125
0.011383056640625
0.0091552734375
0.0087890625
0.008056640625
0.0106201171875
0.0128173828125
0.0267333984375
0.0091552734375
0.046875
0.0201416015625
0.03955078125
0.005859375
0.032958984375
0.005126953125
0.0069580078125
-0.0106201171875
0.0062255859375
-0.005859375
-0.00146484375
-0.0047607421875
-0.0509033203125
-0.0120849609375
-0.0706787109375
0.0010986328125
-0.049072265625
0.002197265625
-0.060455322265625
0.0
-0.079864501953125
-0.0179443359375
-0.052734375
-0.00732421875
-0.0311279296875
-0.0135498046875
-0.006591796875
-0.013916015625
0.0205078125
-0.0216064453125
0.102935791015625
0.02490234375
0.106597900390625
0.0260009765625
0.2259521484375
-0.0267333984375
0.365509033203125
0.0084228515625
0.333648681640625
-0.0087890625
0.51055908203125
-0.0054931640625
0.32965087890625
-0.0047607421875
0.0
-0.003662109375
0.0
0.0084228515625
0.0
0.0025634765625
0.0
0.012451171875
0.0
-0.0040283203125
0.0
0.0029296875
0.0
0.008056640625
0.0
0.030029296875
0.0
0.0274658203125
0.0
0.010986328125
0.0
0.021240234375
0.0
0.017578125
0.0
-0.002197265625
0.0
-0.0263671875
0.0
0.0194091796875
0.0
0.015380859375
0.0
0.0084228515625
0.0
0.008056640625
0.0
-0.016845703125
0.0
0.05419921875
0.0
-0.025634765625
0.0
-0.0465087890625
0.0
0.01904296875
0.0
-0.005859375
0.0
-0.0025634765625
0.0
0.006591796875
0.0
0.02197265625
0.0
-0.00146484375
0.0
0.01318359375
-0.117218017578125
0.006591796875
-0.134063720703125
0.010986328125
-0.1146240234375
0.0069580078125
-0.123046875
-0.0047607421875
-0.111724853515625
0.0010986328125
-0.098175048828125
-0.00732421875
-0.0640869140625
0.0
-0.0809326171875
-0.0047607421875
-0.318267822265625
0.016845703125
-0.392242431640625
0.00732421875
-0.0758056640625
-0.002197265625
-0.096710205078125
0.0032958984375
-0.225616455078125
0.0032958984375
-0.172119140625
0.0113525390625
-0.07177734375
-0.0032958984375
0.0032958984375
0.0179443359375
0.01025390625
0.010986328125
0.008056640625
-0.02197265625
-0.0296630859375
-0.0234375
0.0032958984375
-0.0032958984375
0.01025390625
0.0003662109375
-0.0267333984375
-0.006591796875
-0.06298828125
-0.025634765625
-0.135162353515625
-0.022705078125
-0.120880126953125
0.01904296875
-0.1124267578125
0.0234375
-0.122314453125
0.030029296875
-0.142486572265625
0.019775390625
-0.084991455078125
-0.031494140625
0.0
-0.041748046875
0.0
-0.01904296875
0.0
-0.00146484375
0.0
-0.0135498046875
0.0
0.0003662109375
0.0
0.0164794921875
0.0
0.005859375
0.0
0.005859375
0.0
-0.0032958984375
0.0
0.0087890625
0.0
0.0003662109375
0.0
0.00439453125
0.0
0.01318359375
0.0
0.01318359375
0.0
-0.0201416015625
0.0
-0.0234375
0.0
0.009521484375
0.0
-0.00732421875
0.0
0.009521484375
0.0
0.0047607421875
0.0
-0.000732421875
0.0
0.00439453125
0.0
0.0047607421875
0.0
0.0150146484375
0.0
0.0029296875
0.0
0.00732421875
0.0
-0.0076904296875
0.0
-0.0032958984375
0.0
0.0
0.0
-0.0076904296875
0.0
0.0018310546875
0.0
0.0054931640625
0.0
0.0098876953125
0.0
-0.005126953125
0.0
0.005859375
0.0
0.0025634765625
0.0
0.0010986328125
0.0
0.0032958984375
0.0234375
0.013916015625
0.054595947265625
0.0113525390625
0.035919189453125
-0.0322265625
0.0179443359375
-0.0098876953125
0.02783203125
0.0003662109375
0.049072265625
-0.0003662109375
0.073974609375
0.0010986328125
0.08935546875
0.002197265625
0.0615234375
0.00732421875
0.0618896484375
0.000732421875
0.0838623046875
0.0113525390625
0.091583251953125
0.000732421875
0.110260009765625
0.0087890625
0.0765380859375
-0.0018310546875
0.0596923828125
-0.00732421875
0.028564453125
-0.0091552734375
0.010986328125
-0.01318359375
0.0
-0.0087890625
-0.0435791015625
-0.02197265625
-0.08203125
-0.0010986328125
-0.111328125
-0.01171875
-0.06591796875
-0.0157470703125
-0.030059814453125
-0.01904296875
0.0230712890625
-0.0201416015625
0.36041259765625
-0.024169921875
0.509429931640625
0.01904296875
0.52227783203125
0.043212890625
0.645355224609375
-0.0076904296875
0.314239501953125
-0.02197265625
0.0
-0.035888671875
0.0
-0.01025390625
0.0
-0.0029296875
0.0
-0.00439453125
0.0
0.0084228515625
0.0
0.0186767578125
0.0
0.0384521484375
0.0
0.015380859375
0.0
0.01611328125
0.0
0.0084228515625
0.0
-0.0091552734375
0.0
-0.01318359375
0.0
0.00146484375
0.0
0.03076171875
0.0
0.0150146484375
0.0
0.034423828125
0.0
0.0318603515625
0.0
0.0164794921875
0.0
0.0076904296875
0.0
0.0172119140625
0.0
0.0296630859375
0.0
0.006591796875
0.0
0.0355224609375
0.0
0.0596923828125
0.0
0.143951416015625
0.0
0.046173095703125
0.0
-0.0369873046875
0.0
0.0216064453125
0.0
0.0216064453125
0.0
0.037353515625
0.0
-0.0157470703125
0.0
-0.010986328125
0.0
-0.0274658203125
0.0
-0.029296875
0.0003662109375
-0.0457763671875
0.0
-0.073272705078125
-0.0003662109375
-0.032623291015625
0.0
-0.0289306640625
0.0
-0.0146484375
-0.043243408203125
-0.02197265625
-0.053863525390625
-0.0157470703125
-0.494415283203125
-0.0062255859375
-0.57464599609375
0.0018310546875
-0.304718017578125
0.008056640625
-0.18896484375
-0.006591796875
-0.120880126953125
0.005126953125
-0.46075439453125
0.00439453125
-0.315704345703125
0.0205078125
-0.107666015625
0.0
-0.046142578125
0.0010986328125
-0.046142578125
0.015380859375
-0.0791015625
-0.032958984375
-0.063385009765625
-0.0281982421875
-0.065216064453125
-0.0157470703125
-0.003662109375
-0.0421142578125
-0.030029296875
-0.0281982421875
-0.0003662109375
0.0172119140625
0.0
0.0029296875
0.0
-0.0032958984375
0.0
-0.0201416015625
0.0
-0.03369140625
0.0
0.00439453125
0.0
-0.00439453125
0.0
0.0003662109375
0.0
-0.013916015625
0.0
-0.0194091796875
0.0
-0.0142822265625
0.0
-0.0069580078125
0.0
0.019775390625
0.0
0.000732421875
0.0
0.000732421875
0.0
-0.002197265625
0.0
0.005859375
0.0
0.0003662109375
0.0
-0.009521484375
0.0
0.0556640625
0.0
-0.0150146484375
0.0
-0.0615234375
0.0
-0.005126953125
0.0
0.0018310546875
0.0
-0.005126953125
0.0
-0.00146484375
0.0
0.00439453125
0.0
-0.000732421875
0.0
0.0069580078125
0.0
-0.0025634765625
0.0
0.01025390625
0.0
-0.005859375
0.0
-0.003662109375
0.0
-0.0018310546875
0.0
-0.008056640625
0.0
0.0054931640625
0.0
-0.005859375
0.0
-0.002197265625
0.0
-0.000732421875
0.0
0.009521484375
0.0
-0.0267333984375
0.0
-0.03515625
0.0
-0.006591796875
0.0
-0.0040283203125
0.0
0.0091552734375
0.0
-0.000732421875
0.0
0.03515625
0.0
-0.0194091796875
0.0
-0.0384521484375
0.0
0.0091552734375
0.0
-0.0010986328125
0.0
0.010986328125
0.0
0.002197265625
0.0
0.010986328125
0.0087890625
0.00146484375
0.067047119140625
0.006591796875
0.041412353515625
0.0106201171875
0.0267333984375
0.0113525390625
-0.050201416015625
0.005859375
-0.093780517578125
-0.0164794921875
0.0
-0.008056640625
0.0
-0.0120849609375
0.0
-0.0029296875
0.0
-0.00146484375
0.0
0.0120849609375
0.0
0.01025390625
0.0
-0.0047607421875
0.0
0.00439453125
0.0
-0.0025634765625
0.0
0.005859375
0.0
-0.008056640625
0.0
0.01171875
0.0
0.02490234375
0.0
-0.019775390625
0.0
-0.0208740234375
0.0
0.00146484375
0.0
0.0087890625
0.0
-0.000732421875
0.0
0.0091552734375
0.0
-0.000732421875
0.0
-0.0032958984375
0.0
0.0
0.0
-0.0054931640625
0.0
0.0029296875
0.0
-0.012451171875
0.0
-0.0054931640625
0.0
-0.018310546875
0.0
-0.0186767578125
0.0
-0.01171875
0.0
-0.01318359375
0.0
-0.0069580078125
0.0
-0.0128173828125
0.304718017578125
-0.0087890625
0.58160400390625
-0.0252685546875
0.47247314453125
-0.0164794921875
0.48309326171875
0.03076171875
0.56256103515625
0.0443115234375
0.40618896484375
0.002197265625
0.159698486328125
-0.0029296875
0.028564453125
-0.0135498046875
0.0
-0.0494384765625
0.0
-0.01171875
0.0
-0.0010986328125
0.0
0.0084228515625
0.0
0.0120849609375
0.0
0.0179443359375
0.0
0.034423828125
0.0
0.022705078125
0.0
0.0263671875
0.0
-0.003662109375
0.0
-0.0054931640625
0.0
0.010986328125
0.0
0.0391845703125
0.0
0.0413818359375
0.0
0.006591796875
0.0
0.0172119140625
0.0
0.0296630859375
0.0
0.0684814453125
0.0
0.04541015625
0.0
0.030029296875
0.0
0.019775390625
0.0
0.000732421875
0.0
0.0128173828125
0.0
0.002197265625
0.0
0.012451171875
0.0
-0.0062255859375
0.0
-0.017578125
0.0
-0.0523681640625
0.0
-0.035888671875
0.0
-0.027099609375
0.0
-0.024169921875
-1.0
0.016845703125
-1.0
-0.0205078125
0.0
-0.0120849609375
0.0
0.0
0.0
0.012451171875
0.0
0.0150146484375
0.0
0.00732421875
0.0
-0.0179443359375
0.0
-0.019775390625
0.0
0.019775390625
0.0
-0.0186767578125
0.0
-0.0047607421875
0.0
0.0087890625
0.0
0.005859375
0.0
0.0032958984375
0.0
-0.0047607421875
0.0
0.01171875
0.0
-0.0069580078125
0.0
-0.005859375
0.0
-0.0032958984375
0.0
0.0260009765625
0.0
-0.02197265625
0.0
-0.0457763671875
0.0
0.002197265625
0.0
-0.0120849609375
0.0
0.005859375
0.0
-0.0029296875
0.0
0.0
0.0
-0.0076904296875
0.0
-0.003662109375
0.0
-0.008056640625
0.0
-0.019775390625
0.0
0.0091552734375
0.0
-0.003662109375
0.0
-0.000732421875
0.0
-0.00732421875
0.0
-0.003662109375
0.0
-0.00439453125
0.0
0.00439453125
0.0
0.012451171875
0.0
-0.0084228515625
0.0
0.008056640625
0.0
0.000732421875
0.0
0.008056640625
0.0
-0.0032958984375
0.051666259765625
-0.005126953125
0.01611328125
0.063720703125
0.0318603515625
-0.005859375
0.060821533203125
-0.050537109375
0.0201416015625
-0.00146484375
0.075439453125
0.0025634765625
0.0413818359375
-0.0032958984375
0.101806640625
-0.002197265625
0.0791015625
0.0
0.027099609375
0.0054931640625
0.0439453125
0.0135498046875
0.059722900390625
-0.002197265625
0.131866455078125
0.0040283203125
0.0911865234375
-0.015380859375
0.1292724609375
-0.060791015625
0.06298828125
-0.06591796875
0.024169921875
-0.0172119140625
0.02490234375
0.0010986328125
-0.00146484375
-0.008056640625
0.010986328125
0.01318359375
-0.0245361328125
0.0267333984375
0.0113525390625
0.032958984375
0.0032958984375
0.009521484375
0.0465087890625
0.00732421875
0.041748046875
0.0128173828125
0.032623291015625
0.0018310546875
0.0194091796875
0.00439453125
-0.0084228515625
0.046875
0.053863525390625
0.0
-0.006622314453125
-0.0633544921875
-0.0205078125
0.0040283203125
-0.0194091796875
0.0032958984375
0.0128173828125
0.0010986328125
-0.1146240234375
0.01318359375
-0.116485595703125
0.0029296875
0.0406494140625
0.0091552734375
0.000732421875
0.0
0.0380859375
0.01318359375
0.0369873046875
0.006591796875
0.058258056640625
-0.0003662109375
0.0333251953125
-0.006591796875
0.018310546875
-0.010986328125
0.019805908203125
0.0029296875
-0.043975830078125
-0.006591796875
-0.035552978515625
0.00146484375
-0.028564453125
-0.00146484375
0.005859375
0.0146484375
-0.00439453125
0.010986328125
0.00439453125
0.00439453125
0.017578125
0.008056640625
0.0172119140625
-0.005126953125
0.031494140625
0.0054931640625
-0.00146484375
-0.0029296875
0.031890869140625
0.0234375
0.020538330078125
-0.0040283203125
-0.029693603515625
-0.0399169921875
-0.045806884765625
-0.0164794921875
0.058624267578125
-0.0076904296875
0.098175048828125
-0.005126953125
0.032958984375
-0.0150146484375
0.0201416015625
-0.000732421875
-0.0062255859375
-0.01171875
0.0318603515625
-0.0091552734375
-0.000732421875
0.005126953125
-0.029296875
0.030029296875
-0.019775390625
0.02490234375
0.0413818359375
-0.0087890625
0.10546875
-0.0076904296875
0.059326171875
-0.0263671875
0.0977783203125
-0.0194091796875
0.132598876953125
-0.0216064453125
0.175445556640625
-0.01904296875
0.147216796875
0.0018310546875
0.148712158203125
0.0040283203125
0.165191650390625
0.0018310546875
0.1387939453125
-0.0098876953125
0.134033203125
0.0106201171875
0.076904296875
0.0062255859375
0.121246337890625
0.012451171875
0.089385986328125
0.00732421875
0.0
0.05419921875
0.0
0.0106201171875
0.0
-0.0479736328125
0.0
0.013916015625
0.0
-0.0201416015625
0.0
-0.0029296875
0.0
-0.000732421875
0.0
0.003662109375
0.0
0.0084228515625
0.0
-0.0087890625
-0.042877197265625
-0.008056640625
-0.151641845703125
-0.0289306640625
-0.2318115234375
-0.006591796875
-0.331085205078125
-0.006591796875
-0.271759033203125
0.00439453125
-0.260406494140625
0.0084228515625
-0.228546142578125
0.0106201171875
-0.268463134765625
0.0128173828125
-0.202911376953125
0.0069580078125
0.05859375
0.032958984375
0.02490234375
0.0106201171875
0.016845703125
0.0084228515625
-0.01904296875
0.0084228515625
0.0380859375
0.0157470703125
0.0421142578125
0.0087890625
0.011383056640625
-0.0062255859375
-0.0172119140625
0.0684814453125
-0.012115478515625
-0.009521484375
0.02783203125
-0.0450439453125
-0.0406494140625
0.01904296875
0.051300048828125
0.0106201171875
0.0263671875
0.00439453125
0.0897216796875
0.00146484375
0.078765869140625
0.00732421875
-0.0509033203125
-0.0018310546875
-0.035888671875
0.015380859375
-0.0523681640625
0.00146484375
-0.006591796875
0.008056640625
0.047607421875
0.0003662109375
0.0955810546875
-0.003662109375
-0.097076416015625
0.00146484375
-0.136993408203125
-0.0120849609375
-0.0303955078125
-0.0010986328125
-0.0303955078125
-0.0281982421875
0.03955078125
-0.021240234375
0.0076904296875
-0.00439453125
0.0054931640625
0.0032958984375
-0.0186767578125
0.0
0.032623291015625
0.0010986328125
0.082061767578125
0.00732421875
0.0875244140625
-0.0087890625
0.0853271484375
0.00439453125
-0.0018310546875
0.05419921875
0.0311279296875
-0.002197265625
-0.0450439453125
-0.062255859375
-0.05859375
0.0040283203125
-0.0322265625
0.005859375
-0.0146484375
-0.0025634765625
0.0413818359375
0.01025390625
0.000732421875
-0.000732421875
0.0032958984375
0.0091552734375
0.005126953125
0.00439453125
-0.0340576171875
0.0120849609375
-0.102203369140625
0.0120849609375
-0.0179443359375
0.00146484375
0.0032958984375
0.0120849609375
-0.039581298828125
-0.00439453125
-0.008056640625
-0.0040283203125
-0.0084228515625
-0.0062255859375
0.051300048828125
0.0003662109375
0.0263671875
-0.0025634765625
0.02197265625
0.013916015625
0.0098876953125
0.0128173828125
-0.00439453125
-0.006591796875
0.008819580078125
0.0084228515625
-0.0025634765625
-0.0040283203125
0.03076171875
0.00146484375
-0.01318359375
-0.00439453125
0.0098876953125
0.0106201171875
0.0113525390625
0.01904296875
-0.0069580078125
-0.0245361328125
-0.076568603515625
-0.0223388671875
-0.082794189453125
-0.0040283203125
0.0029296875
0.0025634765625
0.013916015625
-0.002197265625
0.074371337890625
0.0062255859375
0.008056640625
0.0003662109375
-0.0179443359375
-0.0003662109375
-0.0146484375
0.0025634765625
-0.0040283203125
-0.0098876953125
0.068511962890625
-0.002197265625
0.0421142578125
-0.015380859375
0.03662109375
-0.0076904296875
0.0494384765625
-0.0150146484375
0.0736083984375
-0.0146484375
0.02783203125
-0.0194091796875
0.0322265625
-0.02783203125
0.013916015625
0.0267333984375
0.0267333984375
0.03662109375
0.0999755859375
0.00439453125
0.0355224609375
-0.0194091796875
0.034423828125
-0.0076904296875
0.01611328125
-0.01611328125
0.162261962890625
-0.018310546875
0.159332275390625
-0.010986328125
0.0648193359375
0.03955078125
0.176544189453125
-0.0047607421875
0.223785400390625
-0.063720703125
0.2578125
0.0120849609375
0.173614501953125
0.0091552734375
0.044342041015625
0.017578125
0.0
0.0106201171875
0.0
0.0084228515625
0.0
0.0216064453125
0.0
0.003662109375
0.0
-0.003662109375
0.0
-0.0208740234375
0.0
0.0032958984375
0.0
0.0
0.0
0.00439453125
0.0
0.00732421875
0.0
-0.009521484375
0.0
-0.0032958984375
0.0
-0.0172119140625
0.0
0.0018310546875
-0.02197265625
-0.0157470703125
-0.083526611328125
-0.0091552734375
-0.269561767578125
0.000732421875
-0.272125244140625
-0.0029296875
-0.35491943359375
0.01318359375
-0.487457275390625
-0.00146484375
-0.337310791015625
0.0377197265625
-0.210601806640625
0.0029296875
-0.206573486328125
-0.024169921875
-0.220123291015625
0.005859375
0.013946533203125
0.0087890625
0.075439453125
0.0120849609375
0.518951416015625
0.0157470703125
0.9149169921875
0.0230712890625
0.657440185546875
-0.0018310546875
0.283477783203125
0.01025390625
0.0
0.0054931640625
0.0
0.0084228515625
0.0
0.0087890625
0.0
0.003662109375
-0.019775390625
0.0076904296875
-0.0208740234375
-0.0084228515625
-0.040679931640625
0.0025634765625
-0.076934814453125
-0.0120849609375
-0.0252685546875
0.0091552734375
-0.052734375
0.01611328125
-0.02197265625
0.0010986328125
-0.0369873046875
0.0025634765625
-0.0791015625
0.0
-0.087158203125
0.0106201171875
-0.1036376953125
-0.009521484375
-0.0084228515625
-0.00439453125
-0.0179443359375
0.06005859375
0.05859375
-0.01611328125
0.01025390625
-0.0743408203125
-0.031494140625
0.0054931640625
-0.040313720703125
0.0076904296875
-0.073638916015625
-0.00732421875
-0.453033447265625
-0.0186767578125
-0.551544189453125
-0.028564453125
-0.0413818359375
0.0029296875
0.07177734375
0.0084228515625
0.2252197265625
0.0076904296875
0.236602783203125
0.01318359375
0.092681884765625
0.0025634765625
0.0230712890625
0.00732421875
-0.0234375
-0.0076904296875
-0.173248291015625
0.0010986328125
-0.219757080078125
-0.0025634765625
0.0311279296875
0.00146484375
0.006591796875
-0.00146484375
-0.0362548828125
0.0018310546875
-0.005126953125
0.01611328125
-0.008056640625
-0.0032958984375
0.0205078125
0.0069580078125
0.0260009765625
0.000732421875
0.099609375
0.003662109375
-0.0150146484375
-0.0029296875
-0.0845947265625
-0.0040283203125
-0.08642578125
0.0531005859375
-0.0325927734375
-0.0113525390625
0.038818359375
-0.046875
-0.0098876953125
-0.00439453125
0.017578125
0.002197265625
-0.0435791015625
0.0010986328125
-0.079833984375
0.003662109375
-0.098175048828125
0.01025390625
-0.0369873046875
0.0032958984375
-0.005126953125
0.0106201171875
-0.041046142578125
0.002197265625
-0.457061767578125
0.0120849609375
-0.541656494140625
-0.000732421875
-0.0867919921875
0.0032958984375
-0.044708251953125
0.0032958984375
-0.0087890625
-0.005126953125
0.0
-0.00439453125
-0.036285400390625
-0.016845703125
0.0003662109375
0.003662109375
0.076202392578125
-0.005859375
0.179840087890625
-0.0098876953125
0.134765625
-0.0164794921875
0.1072998046875
-0.01025390625
0.106201171875
-0.0047607421875
0.153106689453125
-0.0172119140625
0.135894775390625
-0.01318359375
0.283477783203125
0.0380859375
0.52593994140625
-0.0186767578125
0.349395751953125
-0.052734375
0.273590087890625
0.038818359375
0.357452392578125
0.0010986328125
0.246856689453125
-0.016845703125
0.068511962890625
-0.0084228515625
0.0
-0.015380859375
0.0
-0.0010986328125
0.0
-0.0084228515625
0.0
0.00146484375
0.0
-0.0062255859375
0.0
-0.0018310546875
0.0
0.002197265625
0.0
-0.0062255859375
0.0
0.0113525390625
0.0
0.01025390625
0.0
0.0194091796875
0.0
0.0032958984375
0.0
0.0230712890625
0.0
0.0146484375
-0.38787841796875
-0.002197265625
-0.872039794921875
0.0098876953125
-0.61346435546875
0.00146484375
-0.31903076171875
0.0150146484375
-0.1724853515625
-0.0040283203125
-0.02490234375
-0.0003662109375
-0.173248291015625
0.0150146484375
-0.095947265625
-0.01318359375
-0.123077392578125
-0.0479736328125
-0.12890625
-0.0289306640625
-0.029296875
-0.0076904296875
-0.058624267578125
0.00439453125
0.0
0.0216064453125
0.0
-0.0069580078125
0.0
0.0062255859375
0.0
0.008056640625
0.0
0.003662109375
0.0
0.0142822265625
0.0
0.005126953125
0.0
0.0091552734375
0.0
-0.01025390625
0.0
0.0010986328125
0.0
-0.008056640625
0.0
-0.003662109375
0.0
0.0142822265625
0.0
0.005126953125
0.0
0.0054931640625
0.0
-0.00439453125
0.0
0.0106201171875
0.0325927734375
0.0
0.074737548828125
0.0047607421875
0.009552001953125
0.0091552734375
0.02490234375
0.0201416015625
0.0230712890625
-0.0172119140625
0.032958984375
-0.0498046875
0.0439453125
-0.0040283203125
-0.009521484375
-0.012451171875
0.038818359375
-0.000732421875
-0.008056640625
-0.0025634765625
0.02197265625
-0.00146484375
0.010986328125
0.0062255859375
0.017578125
0.0076904296875
0.052734375
0.019775390625
0.0853271484375
-0.0194091796875
0.143951416015625
-0.0289306640625
0.052764892578125
-0.0142822265625
0.0443115234375
0.0205078125
0.02783203125
0.0216064453125
0.066650390625
0.0069580078125
0.084228515625
0.0087890625
0.085693359375
0.000732421875
0.1146240234375
-0.012451171875
0.04833984375
-0.0281982421875
0.05126953125
0.006591796875
-0.01904296875
0.0054931640625
-0.0150146484375
0.0087890625
-0.0322265625
0.0098876953125
-0.0487060546875
-0.0025634765625
-0.0516357421875
0.064453125
-0.028564453125
-0.0106201171875
0.0252685546875
-0.060791015625
-0.03076171875
-0.00146484375
0.041015625
0.005126953125
0.03662109375
0.005126953125
0.079132080078125
0.0040283203125
0.059326171875
0.0098876953125
-0.019805908203125
0.0010986328125
-0.0106201171875
0.01171875
0.0087890625
0.0
0.147247314453125
0.006591796875
0.108062744140625
-0.005859375
-0.002197265625
-0.008056640625
-0.0479736328125
-0.0054931640625
0.0120849609375
-0.0164794921875
0.07470703125
-0.008056640625
0.06005859375
-0.028564453125
0.0732421875
-0.0157470703125
-0.00732421875
0.024169921875
0.0281982421875
0.03369140625
0.0706787109375
-0.00732421875
0.060455322265625
-0.01904296875
0.000732421875
-0.0062255859375
0.0325927734375
-0.01318359375
0.118682861328125
-0.00146484375
0.2120361328125
-0.00732421875
0.326690673828125
0.01904296875
0.180938720703125
0.0003662109375
0.206939697265625
-0.00732421875
0.178009033203125
0.0150146484375
0.0
0.0113525390625
0.0
0.0025634765625
0.0
-0.012451171875
0.0
0.028564453125
0.0
0.01904296875
0.0
0.0194091796875
0.0
0.0106201171875
0.0
0.00732421875
-0.035186767578125
0.017578125
0.0
0.0
0.035186767578125
0.00439453125
0.0
-0.008056640625
0.0
0.019775390625
0.0
0.000732421875
0.0
0.0106201171875
0.0
0.0194091796875
0.0
-0.0087890625
0.0
-0.01318359375
0.0
-0.046142578125
0.0
-0.0260009765625
0.0003662109375
-0.01318359375
0.0
0.0223388671875
-0.130767822265625
0.0655517578125
-0.102203369140625
-0.017578125
-0.74639892578125
-0.0560302734375
-1.0
-0.000732421875
-0.622650146484375
0.0062255859375
0.0
-0.0091552734375
0.0
0.008056640625
0.0
-0.00146484375
0.0
-0.008056640625
0.0
0.00439453125
0.0
0.0069580078125
0.0
0.0150146484375
0.0
0.0018310546875
0.053863525390625
0.0084228515625
0.137725830078125
-0.010986328125
0.485260009765625
-0.00439453125
1.0
-0.0040283203125
0.853729248046875
-0.0098876953125
-0.50872802734375
0.01171875
-0.52484130859375
-0.0025634765625
-0.272125244140625
0.0003662109375
-0.280914306640625
-0.0062255859375
-0.116851806640625
0.0128173828125
-0.0479736328125
0.008056640625
-0.0714111328125
-0.00146484375
-0.095947265625
-0.00439453125
-0.09521484375
0.05859375
-0.0706787109375
-0.010986328125
-0.063720703125
-0.09375
-0.008056640625
0.0040283203125
-0.0281982421875
-0.005859375
-0.0047607421875
0.0029296875
-0.074737548828125
0.0029296875
-0.117950439453125
0.0003662109375
-0.0391845703125
0.0091552734375
0.090850830078125
-0.0062255859375
-0.02490234375
0.00732421875
-0.33258056640625
0.000732421875
-0.204376220703125
0.0333251953125
0.0
0.0267333984375
0.0
-0.0377197265625
0.0
-0.0406494140625
0.32415771484375
-0.0120849609375
0.171417236328125
0.0040283203125
-0.258209228515625
-0.0146484375
-0.171417236328125
0.0018310546875
-0.065948486328125
0.00439453125
0.0
0.003662109375
0.0
0.0025634765625
0.0
0.0
0.0
0.0087890625
0.0
-0.002197265625
0.0
0.0032958984375
0.0
0.060791015625
0.0
-0.0106201171875
0.0
-0.0765380859375
0.0
0.0069580078125
0.0
0.00146484375
0.036651611328125
-0.0029296875
0.121612548828125
0.0150146484375
0.194091796875
0.00146484375
-0.0128173828125
0.010986328125
-0.1658935546875
0.00439453125
0.0457763671875
0.005126953125
0.0615234375
0.010986328125
0.056396484375
0.006591796875
0.0648193359375
0.0032958984375
0.0245361328125
-0.01171875
0.017578125
0.00146484375
-0.0208740234375
-0.0069580078125
0.040283203125
-0.006591796875
0.019775390625
-0.000732421875
0.05712890625
0.0113525390625
0.027099609375
0.0076904296875
0.0128173828125
-0.005859375
0.0406494140625
0.0062255859375
0.049102783203125
-0.00146484375
0.100738525390625
0.005859375
0.0260009765625
-0.00146484375
0.052734375
0.0201416015625
0.037353515625
0.0018310546875
0.00732421875
-0.0391845703125
0.003662109375
-0.0142822265625
0.0325927734375
-0.01025390625
0.125244140625
-0.005859375
0.0714111328125
-0.0120849609375
0.063751220703125
-0.0040283203125
0.068878173828125
-0.0128173828125
0.2120361328125
-0.0120849609375
0.25048828125
0.0164794921875
0.160064697265625
0.01611328125
0.083892822265625
0.00439453125
0.0263671875
-0.012451171875
0.1329345703125
-0.003662109375
0.12451171875
-0.0146484375
0.120880126953125
-0.005859375
0.049468994140625
-0.000732421875
0.1673583984375
-0.0091552734375
0.282745361328125
-0.0029296875
0.108062744140625
0.0025634765625
0.0201416015625
0.0186767578125
0.0
-0.0010986328125
0.0
0.0087890625
0.0
0.0025634765625
0.0
0.005126953125
0.0
0.0098876953125
0.0
-0.0076904296875
0.0
0.0098876953125
-1.0
-0.00146484375
-1.0
0.009521484375
-0.43438720703125
0.0076904296875
0.0
0.018310546875
0.0
0.0018310546875
0.0
-0.0069580078125
0.0
0.0062255859375
0.0
-0.0238037109375
0.0
-0.02197265625
0.0
-0.046875
0.0
-0.0245361328125
1.0
-0.01318359375
0.0
-0.0054931640625
-1.0
0.0029296875
0.34759521484375
-0.0032958984375
1.0
0.005859375
1.0
-0.0084228515625
0.0
0.02490234375
0.0
0.0208740234375
0.0
0.0150146484375
0.0
0.010986328125
0.0
0.015380859375
0.0
0.0260009765625
0.0
0.0076904296875
0.0
0.0179443359375
0.0
0.07177734375
0.0
0.0029296875
0.0
-0.0673828125
0.0
0.01025390625
0.0
0.0091552734375
0.0
0.0
0.0
0.013916015625
0.0
0.0003662109375
0.0
0.0128173828125
0.0
0.0076904296875
0.0
0.010986328125
0.0
-0.01025390625
0.0
-0.0076904296875
-0.154205322265625
0.0216064453125
-1.0
0.0
-1.0
0.002197265625
0.0
-0.01171875
0.0
-0.009521484375
0.0
-0.0069580078125
0.0
-0.0040283203125
0.0
-0.02783203125
0.0
-0.0322265625
0.0
0.0047607421875
0.0
-0.002197265625
0.0
0.006591796875
0.0
-0.005126953125
0.0
0.0439453125
0.0
-0.0040283203125
0.0
-0.0626220703125
0.0
0.0003662109375
0.0
-0.0040283203125
0.0
0.00439453125
0.0
-0.0010986328125
0.0
0.006591796875
0.0
0.002197265625
0.0
0.0032958984375
0.0
0.01171875
0.0
0.0025634765625
0.0
0.0098876953125
0.0
0.0
0.0
0.0018310546875
0.0
-0.0128173828125
0.0
-0.0029296875
0.0
0.0018310546875
0.0
-0.0128173828125
0.0
0.0069580078125
0.0
0.0098876953125
0.0
0.0098876953125
0.0
-0.0040283203125
0.0
0.0040283203125
0.0
0.002197265625
0.0
-0.0018310546875
0.0
-0.0032958984375
0.0
0.0589599609375
0.0
-0.0018310546875
0.0
-0.075439453125
0.0
0.01318359375
0.0
-0.0010986328125
0.0029296875
-0.0010986328125
0.036651611328125
0.003662109375
0.117218017578125
-0.000732421875
0.0721435546875
0.01025390625
0.0556640625
0.0032958984375
0.1087646484375
0.012451171875
-0.0516357421875
0.00439453125
-0.117919921875
0.013916015625
-0.124176025390625
0.01318359375
-0.099639892578125
0.0029296875
0.0
-0.0025634765625
0.0
-0.01171875
0.0
-0.006591796875
0.058624267578125
-0.010986328125
0.195587158203125
0.00732421875
0.156005859375
-0.00439453125
0.0787353515625
-0.0087890625
0.0498046875
-0.009521484375
0.106597900390625
-0.013916015625
0.128936767578125
-0.009521484375
0.07470703125
-0.0223388671875
0.090087890625
-0.005859375
0.0179443359375
0.016845703125
0.128936767578125
0.01318359375
0.178741455078125
-0.0172119140625
0.1629638671875
-0.0084228515625
0.1278076171875
-0.00439453125
0.0703125
-0.0128173828125
0.041748046875
0.000732421875
0.087921142578125
-0.01025390625
0.259674072265625
0.0069580078125
0.1966552734375
0.0025634765625
0.238433837890625
-0.0010986328125
0.311309814453125
-0.0003662109375
0.179473876953125
0.00146484375
0.057891845703125
0.0142822265625
0.0
-0.0040283203125
0.0
0.0047607421875
0.0
0.0029296875
0.0
0.0252685546875
0.0
0.0281982421875
0.0
0.041748046875
0.0
0.04248046875
0.0
0.0146484375
0.0
0.0142822265625
0.0
0.0
0.0
0.02490234375
0.0
0.00732421875
0.0
0.0179443359375
0.0
0.0076904296875
0.0
-0.024169921875
0.0
-0.019775390625
0.0
-0.0428466796875
0.0
-0.006591796875
0.0
0.00732421875
0.0
0.0135498046875
-1.0
0.0128173828125
-1.0
0.0047607421875
0.0
-0.0029296875
0.0
-0.017578125
0.0
-0.003662109375
0.805389404296875
-0.0135498046875
1.0
-0.00146484375
0.694061279296875
0.005126953125
0.060455322265625
0.068115234375
0.0
0.0428466796875
0.0
-0.07470703125
0.0
-0.056396484375
0.0
-0.01904296875
0.0
0.000732421875
-0.054595947265625
-0.0157470703125
-0.049835205078125
-0.0205078125
-0.08056640625
-0.019775390625
-0.046875
0.0025634765625
-0.0867919921875
0.024169921875
-0.0831298828125
0.01171875
-0.0106201171875
0.0157470703125
-0.0908203125
-0.0025634765625
-0.0802001953125
0.0076904296875
-0.150543212890625
-0.005126953125
-0.077301025390625
0.00146484375
-0.087890625
0.006591796875
-0.0823974609375
-0.0029296875
-0.0552978515625
0.0054931640625
-0.0904541015625
-0.0069580078125
-0.060089111328125
0.005126953125
-0.097808837890625
-0.0076904296875
-0.0146484375
0.0010986328125
-0.057861328125
-0.000732421875
-0.0179443359375
-0.0032958984375
-0.037353515625
0.0054931640625
-0.087890625
-0.000732421875
-0.1029052734375
0.0032958984375
-0.178741455078125
-0.005859375
-0.094512939453125
0.0150146484375
-0.116455078125
-0.00146484375
-0.053466796875
-0.013916015625
-0.031494140625
-0.0340576171875
-0.0970458984375
-0.030029296875
-0.201080322265625
0.0054931640625
-0.168121337890625
-0.0113525390625
-0.0545654296875
0.068115234375
-0.0516357421875
-0.01025390625
0.00732421875
-0.0670166015625
-0.0992431640625
0.0054931640625
-0.038818359375
-0.0029296875
-0.076568603515625
0.009521484375
-0.140655517578125
0.0003662109375
0.0
0.009521484375
0.0
-0.003662109375
0.0
0.000732421875
0.0
0.0018310546875
0.0
0.008056640625
0.0
0.0047607421875
0.0
-0.0113525390625
0.0
-0.0040283203125
0.0
-0.0135498046875
0.0
0.00146484375
0.0
-0.0120849609375
0.0
-0.005859375
0.0
0.005126953125
0.0
-0.00146484375
0.0
0.0018310546875
0.0
-0.00732421875
0.0
0.0040283203125
0.0
-0.00439453125
0.0
0.0025634765625
0.0
0.0
0.0
0.013916015625
0.0
-0.0128173828125
0.0
-0.0333251953125
0.0
0.0018310546875
0.0
-0.01171875
0.0
-0.000732421875
0.0
-0.006591796875
0.749725341796875
0.0347900390625
0.749725341796875
0.049072265625
