-0.745697021484375
0.748626708984375
-0.746063232421875
0.748626708984375
0.0
0.0
0.0
-0.0003662109375
-0.0003662109375
0.0
0.0003662109375
-1.0
0.0003662109375
-1.0
0.0
1.0
0.0
1.0
-0.0003662109375
0.39556884765625
0.0
0.0
0.0003662109375
0.0
0.0
0.0
0.0
0.0
-0.0003662109375
0.0
0.0
0.0
0.0003662109375
0.0
0.0
0.0
0.0
0.0
0.0
0.0
0.0
0.0
-0.0003662109375
0.0
0.0
0.0
0.0003662109375
0.0
0.0
-0.214996337890625
0.0
-0.000732421875
0.0
0.214996337890625
0.0
0.000732421875
0.0
0.0
-0.0003662109375
0.0
0.0
0.0
0.0003662109375
0.0
-0.0003662109375
0.0
0.0
-0.982666015625
0.0003662109375
-0.642425537109375
0.098907470703125
0.982666015625
0.842742919921875
0.58233642578125
-0.099273681640625
0.0
-0.842742919921875
0.060089111328125
0.0
0.0
0.0
0.0
0.0003662109375
0.0
0.0
0.0
0.0
0.0
0.0
0.0
-0.0003662109375
-1.0
0.0
-1.0
0.0003662109375
-0.00146484375
0.034088134765625
0.0
0.090850830078125
0.098175048828125
0.0772705078125
1.0
0.0289306640625
1.0
-0.0186767578125
0.0
-0.120880126953125
0.0
-0.078033447265625
0.0
0.0010986328125
0.0
-0.0146484375
-1.0
0.0
-1.0
-0.0003662109375
0.323760986328125
0.0
1.0
0.0003662109375
0.806854248046875
0.0087890625
0.153106689453125
0.104400634765625
0.0
0.215728759765625
0.0
0.1640625
0.0
0.052734375
0.0003662109375
0.0069580078125
0.0
-0.025634765625
-0.0003662109375
-0.0472412109375
0.0
0.00439453125
0.0
0.098541259765625
0.0
0.150177001953125
0.0
0.1907958984375
0.0
0.1549072265625
0.0003662109375
0.0281982421875
0.0003662109375
0.000732421875
0.0
0.038818359375
0.0
0.048370361328125
0.0
0.0164794921875
-0.0003662109375
0.00732421875
-0.0003662109375
0.018707275390625
0.0003662109375
0.009521484375
0.0003662109375
0.01904296875
0.0
0.0205078125
0.0
0.0150146484375
0.0
0.0142822265625
0.0
0.0128173828125
0.0
0.008056640625
-0.0003662109375
0.005126953125
-0.0003662109375
0.00439453125
0.0
-0.075103759765625
0.0
0.0120849609375
0.0
0.079132080078125
-0.064117431640625
-0.0106201171875
-0.095977783203125
0.0029296875
-0.0618896484375
0.01171875
-0.06884765625
0.0164794921875
-0.069580078125
0.0146484375
-0.06591796875
0.0325927734375
-0.0615234375
0.015380859375
-0.044677734375
-0.0245361328125
-0.0325927734375
-0.02197265625
-0.0230712890625
-0.002197265625
-0.0179443359375
0.0223388671875
-0.019775390625
0.0281982421875
-0.022003173828125
0.0172119140625
-0.021270751953125
0.0087890625
-0.0223388671875
0.0047607421875
-0.022705078125
0.0032958984375
-0.02197265625
0.0098876953125
-0.025634765625
0.0589599609375
-0.028564453125
0.180206298828125
-0.041015625
0.55999755859375
-0.0860595703125
0.091552734375
-0.223419189453125
-0.448272705078125
-0.41790771484375
-0.091552734375
-0.394805908203125
0.07470703125
-0.19921875
0.114990234375
-0.1138916015625
0.14208984375
-0.102203369140625
0.165924072265625
-0.063751220703125
0.297027587890625
-0.0205078125
0.277252197265625
-0.0025634765625
0.062652587890625
-0.0087890625
0.0
-0.006591796875
-0.0003662109375
0.0146484375
0.0
0.018310546875
0.0
0.0201416015625
0.0
0.0205078125
0.0
0.163360595703125
0.0
0.027130126953125
0.0
-0.1380615234375
0.0
0.0010986328125
0.0
0.0186767578125
0.0
0.0172119140625
0.0
0.0186767578125
0.0
0.0263671875
0.0
0.0281982421875
0.0
0.0208740234375
-0.027862548828125
0.0205078125
-0.039947509765625
0.029296875
0.018707275390625
0.0311279296875
0.0032958984375
0.0245361328125
-0.092681884765625
0.0234375
-0.091552734375
0.0194091796875
-0.0029296875
0.015380859375
0.0263671875
0.01318359375
0.0069580078125
0.01025390625
0.000732421875
0.0135498046875
-0.013916015625
0.0223388671875
-0.01904296875
0.028564453125
-0.0010986328125
0.0194091796875
0.03076171875
0.0076904296875
-0.01171875
0.006591796875
-0.0802001953125
0.01171875
-0.0428466796875
0.0201416015625
0.0069580078125
0.022705078125
0.0032958984375
0.012451171875
-0.0142822265625
-0.0003662109375
-0.01904296875
0.006591796875
-0.021240234375
0.0150146484375
-0.0289306640625
0.009521484375
-0.0318603515625
0.0069580078125
-0.031494140625
0.01025390625
-0.029296875
0.0142822265625
-0.03076171875
0.013214111328125
-0.041015625
0.018707275390625
-0.079132080078125
0.148681640625
-0.016143798828125
0.0146484375
0.0113525390625
-0.135498046875
-0.04248046875
-0.009521484375
-0.037353515625
0.0098876953125
-0.0311279296875
0.009521484375
-0.0230712890625
0.0098876953125
-0.03076171875
0.0120849609375
-0.0340576171875
0.0135498046875
-0.035888671875
0.01025390625
-0.0347900390625
0.01171875
-0.0333251953125
0.013916015625
-0.0234375
0.0106201171875
-0.010986328125
0.0076904296875
-0.0164794921875
0.0069580078125
-0.0194091796875
0.008056640625
-0.022705078125
0.0054931640625
-0.02197265625
0.0047607421875
-0.0223388671875
0.006591796875
-0.0216064453125
0.00732421875
-0.0172119140625
0.00732421875
-0.016845703125
0.0062255859375
-0.01318359375
0.0062255859375
-0.01318359375
0.005859375
-0.01025390625
0.005859375
-0.008453369140625
0.003662109375
-0.0003662109375
0.00439453125
0.014678955078125
0.0040283203125
0.0904541015625
0.0029296875
0.15673828125
0.002197265625
0.125244140625
0.0069580078125
0.124176025390625
0.0135498046875
0.107330322265625
0.00439453125
0.01318359375
0.0003662109375
0.0205078125
0.0029296875
-0.0025634765625
0.0040283203125
-0.0413818359375
0.0040283203125
-0.043609619140625
0.006591796875
-0.096343994140625
0.139892578125
0.010986328125
0.013916015625
0.05419921875
-0.1373291015625
-0.0538330078125
-0.016845703125
-0.0296630859375
0.0025634765625
0.0113525390625
0.0018310546875
-0.02783203125
-0.0010986328125
-0.050537109375
0.005126953125
-0.0106201171875
0.0087890625
0.0084228515625
0.0084228515625
-0.054931640625
0.009521484375
-0.0501708984375
0.0091552734375
-0.0062255859375
0.003662109375
0.00732421875
-0.0003662109375
0.01318359375
-0.0003662109375
0.00439453125
-0.00146484375
0.0018310546875
-0.0010986328125
-0.0047607421875
-0.0025634765625
-0.008056640625
-0.002197265625
-0.0146484375
-0.0018310546875
-0.0172119140625
-0.002197265625
-0.0201416015625
-0.0029296875
-0.0216064453125
-0.00146484375
-0.0201416015625
0.0
-0.0252685546875
-0.000732421875
-0.0230712890625
0.000732421875
-0.0267333984375
0.0
-0.0263671875
0.002197265625
-0.0281982421875
0.0
-0.0303955078125
-0.006591796875
-0.031158447265625
0.00439453125
-0.028961181640625
0.0098876953125
-0.0230712890625
0.0018310546875
-0.025634765625
-0.0010986328125
-0.027099609375
0.000732421875
-0.0311279296875
-0.0003662109375
-0.029296875
-0.0003662109375
-0.032958984375
-0.0003662109375
-0.099609375
0.101806640625
-0.017578125
0.05126953125
0.0260009765625
-0.10693359375
-0.0523681640625
-0.05419921875
-0.0377197265625
0.0003662109375
-0.038818359375
0.0029296875
-0.0391845703125
0.0010986328125
-0.03515625
0.0003662109375
-0.0325927734375
0.002197265625
-0.032257080078125
0.002197265625
-0.028594970703125
0.003662109375
-0.027099609375
0.005859375
-0.019775390625
0.0076904296875
-0.01025390625
0.0018310546875
-0.0029296875
-0.000732421875
-0.005859375
0.0
-0.0098876953125
-0.0010986328125
-0.0087890625
-0.00146484375
-0.0076904296875
-0.0018310546875
-0.006591796875
0.00146484375
-0.0084228515625
0.0018310546875
-0.00439453125
0.0
-0.0054931640625
-0.0025634765625
-0.003662109375
-0.002197265625
-0.0032958984375
0.0003662109375
-0.005126953125
0.0
-0.0010986328125
-0.0003662109375
-0.0029296875
-0.00146484375
-0.000732421875
-0.0003662109375
-0.002197265625
-0.0018310546875
-0.003662109375
-0.0047607421875
-0.000732421875
0.0018310546875
0.0040283203125
0.0069580078125
0.0025634765625
-0.000732421875
0.0032958984375
-0.00439453125
0.0054931640625
-0.0018310546875
0.0
-0.0025634765625
0.0029296875
-0.0025634765625
-0.0062255859375
-0.0025634765625
-0.0618896484375
0.155303955078125
0.0157470703125
0.01171875
0.06591796875
-0.166290283203125
-0.0010986328125
-0.021240234375
0.0018310546875
-0.0003662109375
0.0029296875
-0.000732421875
0.000732421875
-0.00146484375
0.0029296875
-0.000732421875
0.0010986328125
0.0
-0.00146484375
0.00146484375
-0.000732421875
0.0047607421875
0.0003662109375
0.0069580078125
0.0106201171875
0.0025634765625
0.019775390625
-0.0047607421875
0.021240234375
-0.0032958984375
0.01171875
-0.0025634765625
0.008056640625
-0.0029296875
0.0087890625
-0.002197265625
0.00732421875
-0.00146484375
0.0087890625
-0.000732421875
0.00732421875
-0.0029296875
0.010284423828125
0.0003662109375
0.009552001953125
0.00146484375
0.008056640625
-0.0003662109375
0.006591796875
0.0
0.006591796875
0.0
0.0084228515625
0.0003662109375
0.0032958984375
0.0003662109375
-0.0003662109375
0.0003662109375
-0.0029296875
-0.0032958984375
-0.0025634765625
0.0
-0.003662109375
0.0032958984375
-0.0003662109375
0.00146484375
-0.0003662109375
-0.0003662109375
0.0
-0.00439453125
0.002197265625
-0.0032958984375
-0.0029296875
-0.0025634765625
-0.002197265625
-0.003662109375
-0.035919189453125
0.0355224609375
0.021240234375
0.0618896484375
0.033355712890625
-0.0450439453125
-0.025634765625
-0.076904296875
-0.005859375
-0.008056640625
-0.006591796875
-0.000732421875
-0.004425048828125
-0.0010986328125
-0.005889892578125
-0.0025634765625
-0.0076904296875
0.0
-0.0098876953125
0.000732421875
-0.01025390625
0.002197265625
-0.0142822265625
0.006591796875
-0.013916015625
0.0076904296875
-0.0029296875
0.0040283203125
0.003662109375
-0.000732421875
0.00439453125
0.000732421875
-0.003662109375
-0.0003662109375
-0.005126953125
-0.00146484375
-0.00732421875
0.0
-0.0084228515625
0.000732421875
-0.0062255859375
0.0029296875
-0.0091552734375
0.0025634765625
-0.0069580078125
0.00146484375
-0.005859375
0.0
-0.00439453125
0.0
-0.005859375
-0.0003662109375
-0.00439453125
0.0003662109375
-0.002197265625
0.000732421875
-0.0010986328125
0.0003662109375
0.000732421875
0.0018310546875
-0.0032958984375
-0.0010986328125
-0.002197265625
0.0018310546875
0.0
0.0032958984375
0.0018310546875
0.00146484375
0.0025634765625
-0.0003662109375
0.0047607421875
-0.0029296875
0.003662109375
-0.0018310546875
0.0
-0.000732421875
0.0029296875
-0.0018310546875
-0.0391845703125
0.050537109375
0.0303955078125
0.0662841796875
0.0450439453125
-0.0589599609375
-0.0263671875
-0.075439453125
-0.00146484375
-0.003662109375
-0.0010986328125
0.0
0.0003662109375
0.0
0.0
-0.0010986328125
0.0003662109375
0.000732421875
-0.0032958984375
0.0
-0.00439453125
0.0018310546875
-0.005126953125
0.0047607421875
-0.0029296875
0.0054931640625
0.00732421875
0.003662109375
0.013916015625
-0.0018310546875
0.0128173828125
-0.002197265625
0.0054931640625
-0.0018310546875
0.0040283203125
-0.002197265625
0.0025634765625
-0.0029296875
0.0029296875
-0.000732421875
0.003662109375
0.002197265625
0.0032958984375
0.000732421875
0.0040283203125
0.0
0.0025634765625
-0.0010986328125
0.003662109375
0.0
0.002197265625
-0.0010986328125
0.0032958984375
-0.000732421875
0.002197265625
0.0
0.0025634765625
-0.0003662109375
0.00439453125
0.0003662109375
0.00146484375
0.0
-0.0010986328125
-0.0032958984375
0.0
0.00146484375
0.005859375
0.0069580078125
0.0018310546875
-0.0018310546875
0.0047607421875
-0.0040283203125
0.006591796875
-0.00146484375
0.002197265625
-0.0018310546875
0.0032958984375
-0.002197265625
-0.005859375
-0.0018310546875
-0.064453125
0.1552734375
0.01318359375
0.01171875
0.06884765625
-0.1651611328125
-0.0040283203125
-0.0223388671875
0.0003662109375
0.0003662109375
0.000732421875
-0.0003662109375
-0.000732421875
-0.00146484375
-0.000732421875
0.0003662109375
-0.003662109375
-0.0003662109375
-0.0047607421875
0.00146484375
-0.006591796875
0.0032958984375
-0.005126953125
0.0069580078125
0.000732421875
0.005859375
0.01025390625
0.000732421875
0.012451171875
-0.000732421875
0.005889892578125
-0.002197265625
0.005157470703125
-0.0025634765625
0.0025634765625
-0.002197265625
0.002197265625
0.0003662109375
0.002197265625
0.0010986328125
0.003662109375
0.0018310546875
0.005126953125
0.00146484375
0.0032958984375
-0.000732421875
0.0040283203125
0.0003662109375
0.0018310546875
-0.000732421875
0.0010986328125
0.0
0.000732421875
-0.0003662109375
0.0032958984375
-0.0010986328125
0.0040283203125
-0.0003662109375
0.0032958984375
-0.0018310546875
0.0018310546875
-0.005126953125
0.000732421875
0.0029296875
0.005859375
0.0069580078125
0.0032958984375
-0.002197265625
0.006591796875
-0.0029296875
0.0087890625
-0.0025634765625
0.00439453125
0.0
0.003662109375
0.0003662109375
0.0
-0.0040283203125
-0.069976806640625
0.1505126953125
0.01171875
0.0194091796875
0.075103759765625
-0.1585693359375
-0.0054931640625
-0.027099609375
0.0025634765625
-0.002197265625
0.0
-0.0018310546875
-0.0018310546875
-0.002197265625
-0.0003662109375
-0.0010986328125
-0.002197265625
-0.00146484375
-0.00439453125
0.000732421875
-0.00732421875
0.003662109375
-0.0054931640625
0.006591796875
-0.0018310546875
0.00439453125
0.0084228515625
0.0
0.0106201171875
-0.00146484375
0.00439453125
-0.00146484375
0.0029296875
-0.002197265625
-0.0029296875
-0.002197265625
-0.0018310546875
0.000732421875
-0.00146484375
0.0
-0.0003662109375
0.0
-0.0003662109375
0.0010986328125
-0.00146484375
0.00146484375
0.0
0.0003662109375
-0.00146484375
0.0003662109375
-0.00146484375
0.002197265625
-0.002197265625
0.0003662109375
-0.0003662109375
0.00146484375
-0.000732421875
0.00146484375
-0.000732421875
-0.0010986328125
-0.0032958984375
-0.0032958984375
-0.00146484375
0.00439453125
0.0029296875
0.0087890625
-0.0018310546875
-0.0003662109375
0.0025634765625
-0.0029296875
0.0032958984375
-0.0029296875
-0.000732421875
0.0
-0.0010986328125
0.0003662109375
-0.0179443359375
0.0128173828125
-0.0347900390625
0.123046875
0.0194091796875
-0.005859375
0.0355224609375
-0.131103515625
-0.0029296875
-0.017578125
0.0003662109375
0.0010986328125
-0.0018310546875
0.0018310546875
-0.00146484375
0.000732421875
-0.000732421875
0.0
-0.003662109375
0.0010986328125
-0.0054931640625
0.0040283203125
-0.00732421875
0.0047607421875
-0.00439453125
0.005859375
0.0
0.0032958984375
0.009521484375
-0.0003662109375
0.010986328125
-0.000732421875
0.0054931640625
0.0
0.003662109375
-0.00146484375
0.000732421875
-0.002197265625
0.00146484375
-0.0003662109375
0.0003662109375
0.000732421875
0.002197265625
0.00146484375
0.0018310546875
0.0003662109375
0.0010986328125
0.000732421875
0.0010986328125
0.0010986328125
-0.0003662109375
0.0003662109375
0.00146484375
0.0003662109375
0.000732421875
-0.000732421875
0.000732421875
0.000732421875
0.0003662109375
0.0003662109375
0.002197265625
-0.0010986328125
-0.0025634765625
-0.0018310546875
-0.0010986328125
0.0040283203125
0.005126953125
0.005859375
0.0
-0.0003662109375
0.003662109375
-0.0032958984375
0.0040283203125
-0.003662109375
0.0
-0.0003662109375
0.0
-0.000732421875
-0.0230712890625
0.02197265625
-0.0076904296875
0.0926513671875
0.02783203125
-0.0186767578125
0.0091552734375
-0.100341796875
-0.003662109375
-0.0135498046875
0.00146484375
0.0003662109375
0.00146484375
0.0003662109375
0.002197265625
-0.0003662109375
0.0
0.000732421875
-0.00146484375
0.00146484375
-0.003662109375
0.0018310546875
-0.008056640625
0.00439453125
-0.003662109375
0.0054931640625
0.003662109375
0.0
0.01318359375
-0.003662109375
0.01318359375
-0.0032958984375
0.0069580078125
-0.0018310546875
0.00439453125
-0.0025634765625
0.0032958984375
-0.0018310546875
0.0040283203125
-0.00146484375
0.0025634765625
0.0003662109375
0.003662109375
0.002197265625
0.0018310546875
-0.0003662109375
0.0018310546875
0.000732421875
0.00146484375
0.0010986328125
0.0003662109375
0.0010986328125
0.0010986328125
0.0003662109375
-0.0003662109375
0.0
0.000732421875
0.00146484375
0.0
0.0003662109375
0.0
-0.0018310546875
-0.002197265625
0.0018310546875
-0.0003662109375
0.0054931640625
0.002197265625
0.0010986328125
0.0010986328125
-0.002197265625
0.0032958984375
-0.0040283203125
0.0010986328125
-0.0032958984375
0.0003662109375
-0.0003662109375
0.0010986328125
-0.0018310546875
-0.0399169921875
0.05126953125
0.031494140625
0.057861328125
0.043212890625
-0.05419921875
-0.0322265625
-0.064453125
-0.005126953125
-0.00439453125
-0.00146484375
0.00146484375
-0.0029296875
0.0003662109375
-0.00146484375
0.002197265625
-0.0018310546875
0.0025634765625
-0.0047607421875
0.0032958984375
-0.0076904296875
0.0040283203125
-0.01025390625
0.0062255859375
-0.0069580078125
0.00732421875
0.0018310546875
0.00146484375
0.01171875
-0.0018310546875
0.0084228515625
-0.0003662109375
0.0025634765625
0.000732421875
0.0010986328125
-0.0010986328125
0.0
-0.0003662109375
-0.0010986328125
0.00146484375
-0.00146484375
0.0010986328125
0.0003662109375
0.00146484375
0.0
-0.000732421875
0.0010986328125
0.0
-0.000732421875
0.0018310546875
-0.002197265625
0.00146484375
-0.0018310546875
0.0003662109375
-0.0003662109375
-0.000732421875
0.0003662109375
0.0
-0.002197265625
0.0003662109375
-0.0003662109375
-0.0018310546875
-0.0029296875
0.0025634765625
0.0
0.0062255859375
0.0018310546875
0.0018310546875
0.00146484375
0.0
0.0032958984375
-0.002197265625
0.0003662109375
-0.002197265625
0.0
-0.0010986328125
0.0003662109375
-0.0025634765625
-0.04541015625
0.0611572265625
0.031494140625
0.0589599609375
0.0487060546875
-0.06591796875
-0.0322265625
-0.0670166015625
-0.0032958984375
-0.00439453125
0.0
-0.0003662109375
-0.002197265625
-0.0010986328125
-0.002197265625
0.000732421875
-0.002197265625
0.000732421875
-0.0047607421875
0.0029296875
-0.0084228515625
0.00439453125
-0.0091552734375
0.005859375
-0.0062255859375
0.005859375
0.0029296875
0.0003662109375
0.0128173828125
-0.0025634765625
0.0087890625
-0.0010986328125
0.0040283203125
0.0003662109375
0.0018310546875
-0.002197265625
0.002197265625
-0.000732421875
0.000732421875
0.0003662109375
0.0
0.0
0.002197265625
0.00146484375
0.000732421875
0.0003662109375
0.0018310546875
0.000732421875
0.0003662109375
0.0
0.000732421875
0.0003662109375
0.0010986328125
0.0003662109375
0.0003662109375
0.0
0.0
0.0
-0.0003662109375
-0.0003662109375
0.0010986328125
0.0003662109375
-0.0025634765625
-0.002197265625
0.0
0.00439453125
0.0032958984375
0.006591796875
0.0010986328125
0.0
0.0032958984375
-0.0025634765625
0.0032958984375
-0.0032958984375
0.000732421875
0.0
0.0010986328125
0.0
-0.01171875
0.0069580078125
-0.04833984375
0.1343994140625
0.019775390625
0.003662109375
0.04833984375
-0.1424560546875
-0.0040283203125
-0.01904296875
0.0029296875
-0.00146484375
0.0
-0.00146484375
-0.00146484375
-0.00146484375
-0.0018310546875
-0.0025634765625
0.0003662109375
0.0003662109375
-0.0029296875
0.000732421875
-0.0040283203125
0.0032958984375
-0.003662109375
0.005859375
0.000732421875
0.0029296875
0.01171875
-0.00146484375
0.0113525390625
-0.000732421875
0.006591796875
0.00146484375
0.0032958984375
-0.00146484375
0.0025634765625
-0.0010986328125
0.00146484375
-0.0010986328125
0.0003662109375
0.0
0.0003662109375
0.0010986328125
0.000732421875
0.0
0.0025634765625
0.0
0.0
0.0010986328125
0.0003662109375
0.0018310546875
-0.0003662109375
0.0
-0.0010986328125
0.0010986328125
0.0
0.000732421875
-0.000732421875
0.0003662109375
0.0
-0.0003662109375
-0.0025634765625
-0.0032958984375
-0.00146484375
0.0047607421875
-0.0003662109375
0.008056640625
0.0
0.0025634765625
0.0032958984375
-0.0029296875
0.002197265625
-0.0029296875
-0.0003662109375
0.0003662109375
-0.0010986328125
-0.0003662109375
-0.0201416015625
0.0164794921875
-0.030029296875
0.1153564453125
0.0230712890625
-0.00732421875
0.0289306640625
-0.1241455078125
-0.003662109375
-0.01611328125
-0.002197265625
-0.0003662109375
-0.003662109375
-0.0003662109375
-0.00146484375
0.0010986328125
-0.0029296875
0.0003662109375
-0.003662109375
0.0025634765625
-0.0069580078125
0.0029296875
-0.008056640625
0.0054931640625
-0.0076904296875
0.00732421875
-0.0018310546875
0.00439453125
0.0087890625
-0.000732421875
0.0098876953125
-0.00146484375
0.005859375
-0.0003662109375
0.000732421875
-0.002197265625
0.0
-0.0003662109375
-0.0010986328125
0.000732421875
-0.0010986328125
0.0018310546875
0.0010986328125
0.000732421875
0.0010986328125
-0.000732421875
0.000732421875
0.0003662109375
0.0
0.000732421875
0.000732421875
0.0018310546875
-0.000732421875
0.0
-0.000732421875
0.0
-0.0003662109375
0.0003662109375
0.0
0.0
-0.0003662109375
-0.000732421875
-0.003662109375
-0.003662109375
-0.0010986328125
0.00439453125
0.0018310546875
0.0084228515625
0.0003662109375
0.0
0.0029296875
-0.0047607421875
0.00439453125
-0.00146484375
-0.000732421875
-0.0003662109375
-0.0010986328125
-0.0018310546875
-0.008056640625
0.0010986328125
-0.065185546875
0.15380859375
0.0146484375
0.01171875
0.065185546875
-0.1622314453125
-0.005126953125
-0.0201416015625
-0.0010986328125
0.0003662109375
-0.00146484375
-0.0003662109375
-0.0018310546875
0.0
-0.0032958984375
0.000732421875
-0.0025634765625
0.002197265625
-0.006591796875
0.0032958984375
-0.008056640625
0.005126953125
-0.006591796875
0.0069580078125
0.0
0.0040283203125
0.01171875
-0.0040283203125
0.0128173828125
-0.0029296875
0.0062255859375
0.0003662109375
0.0025634765625
-0.0025634765625
0.0040283203125
-0.002197265625
0.0029296875
-0.0003662109375
0.002197265625
0.000732421875
0.0029296875
0.0
0.003662109375
-0.002197265625
0.0040283203125
-0.0025634765625
0.0029296875
-0.000732421875
0.005126953125
0.000732421875
0.00439453125
-0.0003662109375
0.0029296875
0.0003662109375
0.0032958984375
0.0003662109375
0.005859375
-0.00146484375
0.0040283203125
-0.0025634765625
-0.0010986328125
-0.00439453125
0.000732421875
0.0040283203125
0.003662109375
0.0087890625
0.002197265625
0.0018310546875
0.0029296875
-0.002197265625
0.003662109375
-0.0010986328125
-0.0010986328125
-0.000732421875
-0.0018310546875
-0.0010986328125
-0.008056640625
-0.0018310546875
-0.0648193359375
0.1409912109375
0.0120849609375
0.0142822265625
0.060791015625
-0.1527099609375
-0.00732421875
-0.0238037109375
-0.00146484375
-0.00146484375
-0.0025634765625
-0.0010986328125
-0.0032958984375
-0.00146484375
-0.0040283203125
0.0
-0.003662109375
0.0025634765625
-0.006591796875
0.0029296875
-0.0076904296875
0.0062255859375
-0.0069580078125
0.0076904296875
-0.0018310546875
0.0054931640625
0.006591796875
0.0003662109375
0.009521484375
-0.000732421875
0.005859375
0.000732421875
0.0018310546875
0.0
0.0003662109375
0.000732421875
-0.000732421875
0.0010986328125
-0.0010986328125
0.0018310546875
-0.0010986328125
0.0010986328125
0.0003662109375
0.0003662109375
0.0
-0.000732421875
-0.000732421875
-0.0003662109375
-0.000732421875
0.0010986328125
-0.00146484375
0.0010986328125
-0.00146484375
0.002197265625
-0.0025634765625
0.00146484375
-0.0003662109375
0.0010986328125
-0.0010986328125
-0.000732421875
-0.0032958984375
-0.0047607421875
-0.002197265625
0.00439453125
0.0
0.0091552734375
0.0
0.0010986328125
-0.0003662109375
-0.002197265625
0.0010986328125
-0.00146484375
-0.0018310546875
-0.00146484375
-0.002197265625
-0.0010986328125
-0.00146484375
-0.0032958984375
-0.079833984375
0.123779296875
0.0146484375
0.03515625
0.0772705078125
-0.1322021484375
-0.0146484375
-0.0413818359375
-0.000732421875
-0.0018310546875
-0.00146484375
0.0
-0.000732421875
-0.000732421875
-0.000732421875
0.000732421875
-0.0025634765625
0.0010986328125
-0.0062255859375
0.00146484375
-0.00732421875
0.0047607421875
-0.008056640625
0.005859375
-0.0025634765625
0.006591796875
0.00732421875
0.00146484375
0.01171875
-0.0018310546875
0.00732421875
0.0003662109375
0.0032958984375
-0.0003662109375
0.002197265625
-0.0018310546875
0.0
0.0
0.0
0.0018310546875
0.0
0.0018310546875
0.0010986328125
0.0025634765625
0.0025634765625
-0.0003662109375
0.0018310546875
0.0
0.0003662109375
0.0018310546875
-0.000732421875
0.00146484375
-0.00146484375
0.0003662109375
-0.000732421875
-0.000732421875
0.0018310546875
0.0010986328125
0.0
0.0003662109375
0.00146484375
-0.0032958984375
0.0018310546875
-0.0069580078125
0.0010986328125
0.002197265625
0.0047607421875
0.005859375
0.0054931640625
-0.00146484375
0.0087890625
-0.00439453125
0.0087890625
-0.0062255859375
0.006591796875
-0.00146484375
0.003662109375
-0.002197265625
-0.0076904296875
0.0018310546875
-0.038818359375
0.1307373046875
0.0245361328125
0.0040283203125
0.0556640625
-0.14208984375
0.0029296875
-0.0201416015625
-0.0003662109375
0.0010986328125
-0.00146484375
-0.0032958984375
0.0076904296875
-0.0040283203125
0.008056640625
0.0010986328125
0.00439453125
0.0025634765625
-0.000732421875
0.003662109375
-0.00732421875
0.0047607421875
-0.005859375
0.0069580078125
-0.003662109375
0.0047607421875
0.0010986328125
0.0
-0.000732421875
-0.000732421875
-0.0076904296875
0.0010986328125
-0.0076904296875
-0.0010986328125
-0.006591796875
-0.0025634765625
-0.0040283203125
-0.0032958984375
-0.00439453125
-0.0032958984375
-0.0040283203125
0.00146484375
-0.0029296875
-0.0003662109375
-0.00146484375
0.000732421875
-0.002197265625
0.0010986328125
-0.0029296875
0.0003662109375
-0.000732421875
0.0029296875
-0.0003662109375
0.002197265625
-0.0025634765625
0.002197265625
-0.003662109375
0.0010986328125
-0.0029296875
0.0
-0.0054931640625
-0.00146484375
-0.0025634765625
0.005859375
-0.0010986328125
0.009521484375
-0.0029296875
0.003662109375
0.000732421875
0.0
0.000732421875
-0.0018310546875
-0.0018310546875
0.0010986328125
-0.0047607421875
-0.0010986328125
-0.029296875
0.0234375
-0.0025634765625
0.0853271484375
0.0263671875
-0.0216064453125
-0.00146484375
-0.09228515625
-0.0054931640625
-0.0106201171875
-0.002197265625
0.0010986328125
-0.003662109375
0.0010986328125
-0.003662109375
0.000732421875
-0.0047607421875
0.0003662109375
-0.0054931640625
0.0025634765625
-0.0069580078125
0.003662109375
-0.0087890625
0.0062255859375
-0.0076904296875
0.008056640625
-0.0018310546875
0.0040283203125
0.009521484375
0.0003662109375
0.0087890625
-0.0010986328125
0.002197265625
-0.000732421875
0.0
-0.0010986328125
-0.0010986328125
-0.0003662109375
-0.002197265625
0.0010986328125
-0.0025634765625
0.002197265625
-0.0003662109375
0.0010986328125
-0.0003662109375
-0.0010986328125
-0.0003662109375
0.000732421875
-0.00146484375
-0.0003662109375
-0.00146484375
0.0
-0.0010986328125
0.0003662109375
-0.0010986328125
0.0
0.0
0.0
-0.0003662109375
-0.00146484375
0.0
-0.0010986328125
-0.0025634765625
-0.003662109375
-0.0003662109375
0.0040283203125
0.0032958984375
0.00732421875
0.0
0.0018310546875
0.0032958984375
-0.0018310546875
0.00439453125
-0.003662109375
0.000732421875
-0.0003662109375
-0.00146484375
0.0
-0.01904296875
0.0142822265625
-0.02783203125
0.116455078125
0.0230712890625
-0.00732421875
0.029296875
-0.1241455078125
-0.003662109375
-0.013916015625
0.000732421875
0.0003662109375
0.0
-0.0003662109375
0.0010986328125
0.00146484375
-0.0018310546875
0.00146484375
-0.0029296875
0.00146484375
-0.003662109375
0.00146484375
-0.0054931640625
0.00439453125
-0.0040283203125
0.0069580078125
0.0025634765625
0.0018310546875
0.012451171875
-0.002197265625
0.0113525390625
-0.0025634765625
0.006591796875
-0.0003662109375
0.00439453125
-0.002197265625
0.0047607421875
-0.0025634765625
0.003662109375
0.0003662109375
0.00146484375
0.0010986328125
0.0025634765625
0.00146484375
0.003662109375
-0.000732421875
0.0047607421875
-0.00146484375
0.0018310546875
0.0
0.002197265625
0.0
0.0025634765625
-0.000732421875
0.0018310546875
-0.0003662109375
0.0032958984375
-0.0010986328125
0.00146484375
0.000732421875
0.0010986328125
0.0003662109375
-0.002197265625
-0.003662109375
-0.002197265625
0.0040283203125
0.0018310546875
0.006591796875
0.0010986328125
-0.000732421875
0.002197265625
-0.0032958984375
0.0018310546875
-0.00146484375
-0.0003662109375
-0.0010986328125
0.0003662109375
-0.0029296875
-0.0076904296875
0.0
-0.053466796875
0.1373291015625
0.0164794921875
0.009521484375
0.0552978515625
-0.1490478515625
-0.0047607421875
-0.0223388671875
0.0003662109375
-0.002197265625
-0.0025634765625
-0.0010986328125
-0.0025634765625
-0.0003662109375
-0.0025634765625
-0.002197265625
-0.0029296875
0.00146484375
-0.006591796875
0.0032958984375
-0.0069580078125
0.005126953125
-0.0054931640625
0.0076904296875
-0.000732421875
0.00439453125
0.0084228515625
-0.0003662109375
0.0091552734375
-0.0010986328125
0.00439453125
-0.0003662109375
0.0
-0.0010986328125
-0.000732421875
0.0003662109375
-0.0010986328125
0.000732421875
-0.000732421875
0.0032958984375
0.0
0.0018310546875
0.0
-0.002197265625
0.00146484375
0.0003662109375
0.0
0.0
-0.0003662109375
0.00146484375
0.0
0.0
0.0
0.000732421875
0.0
0.0029296875
0.0003662109375
0.0010986328125
0.0010986328125
-0.000732421875
-0.002197265625
-0.0040283203125
-0.0018310546875
0.00439453125
0.00146484375
0.0084228515625
-0.00146484375
0.0025634765625
0.0
-0.0025634765625
0.002197265625
-0.002197265625
-0.0010986328125
0.0
-0.0010986328125
-0.0010986328125
-0.021240234375
0.019775390625
-0.0201416015625
0.109130859375
0.0245361328125
-0.013916015625
0.019775390625
-0.1182861328125
-0.002197265625
-0.0128173828125
0.0
0.0018310546875
-0.0029296875
0.002197265625
-0.0018310546875
0.0010986328125
-0.0025634765625
-0.0010986328125
-0.003662109375
0.0010986328125
-0.0054931640625
0.0025634765625
-0.0062255859375
0.006591796875
-0.005126953125
0.00732421875
0.00146484375
0.0025634765625
0.0106201171875
-0.0018310546875
0.009521484375
-0.0018310546875
0.003662109375
-0.0003662109375
0.002197265625
-0.0029296875
0.00439453125
-0.003662109375
0.0010986328125
-0.000732421875
0.0010986328125
0.00146484375
0.0047607421875
0.0003662109375
0.0029296875
-0.0010986328125
0.002197265625
-0.000732421875
0.003662109375
-0.0003662109375
0.0054931640625
-0.0003662109375
0.00439453125
0.000732421875
0.005126953125
0.0010986328125
0.005859375
0.0003662109375
0.0062255859375
0.0003662109375
0.0047607421875
-0.0029296875
0.0010986328125
0.0047607421875
0.0025634765625
0.00732421875
0.00146484375
-0.0010986328125
0.0029296875
-0.00146484375
0.0018310546875
-0.000732421875
-0.00146484375
0.0010986328125
-0.0029296875
0.0
-0.0025634765625
-0.0025634765625
-0.0552978515625
0.0750732421875
0.0201416015625
0.052001953125
0.0531005859375
-0.0831298828125
-0.0260009765625
-0.063720703125
-0.003662109375
-0.0062255859375
-0.0032958984375
-0.0025634765625
-0.0029296875
-0.00146484375
-0.002197265625
-0.0010986328125
-0.0040283203125
0.0
-0.0054931640625
0.002197265625
-0.0091552734375
0.0025634765625
-0.0091552734375
0.006591796875
-0.0062255859375
0.00732421875
0.0025634765625
0.002197265625
0.01025390625
-0.0018310546875
0.0069580078125
0.0
0.00146484375
0.000732421875
0.0
-0.0018310546875
0.0010986328125
-0.00146484375
0.0003662109375
-0.0010986328125
0.0
0.00146484375
0.0003662109375
0.00146484375
0.000732421875
0.0010986328125
-0.0003662109375
0.00146484375
-0.000732421875
0.0003662109375
-0.0003662109375
0.0
-0.0018310546875
0.000732421875
-0.00146484375
0.0018310546875
-0.0003662109375
0.000732421875
0.0
0.0
-0.003662109375
0.0003662109375
-0.002197265625
0.0054931640625
0.00146484375
0.0062255859375
-0.002197265625
0.0003662109375
-0.0003662109375
-0.002197265625
0.00146484375
-0.0018310546875
-0.0003662109375
0.0003662109375
-0.0018310546875
0.0
-0.027099609375
0.027099609375
-0.0010986328125
0.09228515625
0.0289306640625
-0.0263671875
0.000732421875
-0.101806640625
-0.0054931640625
-0.0113525390625
-0.000732421875
0.000732421875
-0.000732421875
0.0
-0.0025634765625
0.0003662109375
-0.0032958984375
0.0003662109375
-0.0040283203125
0.0
-0.006591796875
0.003662109375
-0.0091552734375
0.005859375
-0.006591796875
0.00732421875
0.000732421875
0.0054931640625
0.01025390625
0.0018310546875
0.01025390625
-0.00146484375
0.0047607421875
-0.0010986328125
0.0032958984375
-0.00146484375
0.0003662109375
-0.0010986328125
0.0
0.0010986328125
-0.0010986328125
0.0018310546875
-0.0010986328125
0.0025634765625
0.0018310546875
0.000732421875
0.00146484375
0.002197265625
0.000732421875
-0.0003662109375
0.000732421875
-0.0010986328125
-0.0003662109375
0.0010986328125
-0.0010986328125
0.0010986328125
0.000732421875
0.0018310546875
0.0003662109375
0.0
-0.000732421875
-0.00439453125
-0.000732421875
0.0040283203125
0.00146484375
0.0087890625
0.0018310546875
-0.0010986328125
0.0032958984375
-0.0029296875
0.003662109375
-0.0010986328125
0.00146484375
-0.0003662109375
0.002197265625
-0.0003662109375
0.0010986328125
0.0
-0.0596923828125
0.0966796875
0.0223388671875
0.041015625
0.0640869140625
-0.103271484375
-0.0179443359375
-0.05126953125
0.0003662109375
-0.0032958984375
0.0
0.0
-0.000732421875
-0.0018310546875
-0.000732421875
-0.0003662109375
-0.0010986328125
0.0
-0.0032958984375
0.0003662109375
-0.0069580078125
0.002197265625
-0.00732421875
0.0040283203125
-0.0040283203125
0.00439453125
0.0047607421875
0.0003662109375
0.0098876953125
-0.000732421875
0.005126953125
-0.0003662109375
0.0018310546875
-0.000732421875
0.0003662109375
-0.002197265625
0.0003662109375
-0.0029296875
0.0003662109375
-0.0025634765625
-0.0003662109375
-0.000732421875
0.000732421875
0.0
0.0003662109375
-0.00146484375
0.000732421875
-0.0003662109375
0.000732421875
-0.00146484375
0.000732421875
-0.0010986328125
-0.0003662109375
0.0
-0.0010986328125
-0.000732421875
0.0003662109375
-0.0010986328125
-0.0018310546875
-0.0054931640625
-0.0025634765625
0.0047607421875
0.0
0.0076904296875
0.000732421875
-0.0010986328125
0.0010986328125
-0.002197265625
0.0018310546875
-0.00146484375
0.0
0.0003662109375
-0.00146484375
0.0
-0.0003662109375
-0.0003662109375
-0.0670166015625
0.09521484375
0.01904296875
0.053466796875
0.06591796875
-0.1021728515625
-0.0216064453125
-0.060791015625
-0.0018310546875
-0.0025634765625
-0.0018310546875
0.0
-0.0010986328125
0.002197265625
-0.00146484375
0.00146484375
-0.002197265625
0.0010986328125
-0.0047607421875
0.0018310546875
-0.008056640625
0.005126953125
-0.0076904296875
0.0062255859375
-0.0047607421875
0.0062255859375
0.003662109375
0.0032958984375
0.0091552734375
0.0003662109375
0.006591796875
0.000732421875
0.00146484375
-0.000732421875
0.00146484375
-0.0010986328125
0.00146484375
-0.000732421875
0.0
0.0018310546875
-0.0003662109375
0.002197265625
-0.0010986328125
0.0018310546875
0.0
0.000732421875
-0.0003662109375
-0.000732421875
-0.0003662109375
0.000732421875
-0.0003662109375
0.000732421875
-0.000732421875
0.000732421875
-0.000732421875
0.0
-0.00146484375
0.00146484375
-0.0003662109375
-0.0010986328125
-0.002197265625
-0.003662109375
-0.0018310546875
0.0047607421875
0.00146484375
0.0062255859375
0.0003662109375
0.0010986328125
0.002197265625
-0.0018310546875
0.0029296875
-0.0018310546875
-0.0003662109375
-0.00146484375
-0.000732421875
-0.0018310546875
-0.0128173828125
0.0062255859375
-0.049072265625
0.139892578125
0.018310546875
0.005126953125
0.0494384765625
-0.1475830078125
-0.0029296875
-0.0186767578125
0.000732421875
-0.0003662109375
-0.00146484375
-0.0003662109375
-0.0010986328125
0.0003662109375
-0.0018310546875
0.0010986328125
-0.0018310546875
0.0010986328125
-0.00439453125
0.0010986328125
-0.005859375
0.0040283203125
-0.005126953125
0.0054931640625
0.00146484375
0.00439453125
0.0106201171875
-0.0010986328125
0.01171875
-0.0029296875
0.006591796875
-0.0003662109375
0.0025634765625
-0.0003662109375
0.0029296875
-0.0018310546875
0.0018310546875
-0.00146484375
0.000732421875
0.0010986328125
0.0010986328125
0.000732421875
0.0018310546875
0.0
0.0029296875
0.0003662109375
0.002197265625
0.000732421875
0.0010986328125
0.0010986328125
0.0018310546875
-0.000732421875
0.0018310546875
-0.0003662109375
0.000732421875
-0.0003662109375
0.0
-0.000732421875
-0.0025634765625
-0.0040283203125
-0.000732421875
0.0025634765625
0.0018310546875
0.0084228515625
-0.0003662109375
-0.0018310546875
0.0025634765625
-0.00439453125
0.002197265625
-0.00146484375
-0.000732421875
-0.000732421875
0.0
-0.0029296875
-0.0054931640625
-0.005126953125
-0.069580078125
0.1527099609375
0.01318359375
0.0157470703125
0.06884765625
-0.1629638671875
-0.009521484375
-0.024169921875
0.0
-0.000732421875
0.000732421875
-0.000732421875
-0.0010986328125
0.000732421875
-0.0029296875
0.0003662109375
-0.00439453125
0.0
-0.005126953125
0.0018310546875
-0.0076904296875
0.0047607421875
-0.006591796875
0.0084228515625
-0.00146484375
0.0047607421875
0.0069580078125
0.0
0.01025390625
-0.0010986328125
0.0054931640625
0.0
0.0010986328125
0.0003662109375
-0.000732421875
-0.00146484375
-0.00146484375
-0.0003662109375
-0.0029296875
0.0018310546875
-0.0018310546875
0.0032958984375
0.0003662109375
0.00146484375
0.0018310546875
0.0
0.0
-0.0003662109375
-0.0018310546875
0.0
-0.0010986328125
0.000732421875
-0.000732421875
0.0
0.0
0.0003662109375
0.0
-0.00146484375
-0.0029296875
-0.0040283203125
-0.0018310546875
0.003662109375
0.0025634765625
0.0087890625
0.0
-0.0003662109375
0.002197265625
-0.003662109375
0.005859375
-0.000732421875
0.000732421875
-0.0003662109375
0.0
-0.000732421875
-0.0003662109375
-0.006591796875
-0.085693359375
0.163726806640625
0.01025390625
0.0234375
0.08349609375
-0.171783447265625
-0.01171875
-0.0260009765625
-0.00146484375
0.0
-0.00146484375
0.0025634765625
-0.002197265625
0.000732421875
-0.00146484375
0.0003662109375
-0.0025634765625
0.0010986328125
-0.005859375
0.00146484375
-0.0084228515625
0.0040283203125
-0.008056640625
0.00732421875
-0.0029296875
0.0076904296875
0.0069580078125
0.0003662109375
0.0113525390625
-0.002197265625
0.0062255859375
-0.00146484375
0.0025634765625
-0.00146484375
0.000732421875
-0.002197265625
0.000732421875
-0.000732421875
0.0010986328125
0.0018310546875
0.002197265625
0.000732421875
0.0018310546875
0.002197265625
0.0
0.0010986328125
0.00146484375
0.0
0.00146484375
-0.00146484375
0.00146484375
-0.0010986328125
0.00146484375
0.0010986328125
0.0
0.000732421875
0.0003662109375
0.0003662109375
-0.00146484375
-0.003662109375
-0.0029296875
0.0054931640625
0.00146484375
0.0062255859375
0.0025634765625
-0.0010986328125
0.0
-0.00146484375
0.0018310546875
-0.00146484375
0.002197265625
0.0003662109375
0.0003662109375
-0.0003662109375
0.000732421875
-0.0010986328125
-0.0439453125
0.054931640625
0.030029296875
0.0604248046875
0.046142578125
-0.0596923828125
-0.0311279296875
-0.0662841796875
-0.0018310546875
-0.0040283203125
-0.0003662109375
0.0
-0.000732421875
0.0003662109375
-0.0003662109375
-0.0003662109375
-0.00146484375
0.0
-0.0032958984375
-0.000732421875
-0.005859375
0.00146484375
-0.0076904296875
0.0047607421875
-0.0062255859375
0.00732421875
0.0029296875
0.0054931640625
0.01171875
0.002197265625
0.01025390625
0.002197265625
0.003662109375
0.0010986328125
0.002197265625
-0.0010986328125
0.00146484375
-0.0029296875
0.0003662109375
-0.0003662109375
0.0003662109375
0.00146484375
0.0
0.000732421875
0.0003662109375
0.000732421875
-0.0003662109375
0.0
0.0
-0.000732421875
-0.0003662109375
-0.00146484375
0.0
-0.000732421875
-0.0003662109375
-0.0003662109375
-0.0025634765625
-0.0032958984375
-0.0032958984375
0.0032958984375
0.0
0.0062255859375
0.0
-0.0003662109375
-0.000732421875
-0.0025634765625
0.00146484375
-0.0029296875
-0.0003662109375
-0.0029296875
-0.000732421875
-0.0029296875
0.000732421875
-0.0029296875
-0.054931640625
0.0794677734375
0.0223388671875
0.0582275390625
0.056396484375
-0.08935546875
-0.0223388671875
-0.068115234375
-0.00146484375
-0.0032958984375
-0.0010986328125
-0.00146484375
-0.0003662109375
-0.0010986328125
-0.0010986328125
0.000732421875
-0.0029296875
0.0003662109375
-0.005126953125
0.0
-0.00732421875
0.0029296875
-0.009521484375
0.0062255859375
-0.00732421875
0.00732421875
0.0029296875
0.0025634765625
0.0087890625
0.0010986328125
0.00439453125
0.0003662109375
0.0018310546875
-0.0010986328125
0.00146484375
-0.0010986328125
-0.000732421875
-0.0018310546875
-0.0018310546875
0.000732421875
-0.002197265625
0.0018310546875
-0.0010986328125
0.00146484375
-0.0003662109375
0.000732421875
-0.000732421875
0.000732421875
-0.0010986328125
0.00146484375
-0.00146484375
0.0
-0.0010986328125
0.0
-0.000732421875
-0.0010986328125
-0.0029296875
-0.0010986328125
-0.00146484375
0.0032958984375
0.0018310546875
0.006591796875
-0.000732421875
0.0018310546875
0.0025634765625
-0.0040283203125
0.00439453125
-0.0025634765625
-0.0003662109375
-0.0010986328125
0.0
-0.0010986328125
-0.0208740234375
0.0157470703125
-0.0263671875
0.1153564453125
0.0245361328125
-0.0106201171875
0.0263671875
-0.123046875
-0.003662109375
-0.0128173828125
-0.00146484375
0.00146484375
0.000732421875
0.0010986328125
0.0003662109375
-0.0003662109375
-0.002197265625
0.000732421875
-0.00439453125
0.0010986328125
-0.006591796875
0.0040283203125
-0.0069580078125
0.006591796875
-0.005859375
0.0076904296875
0.0025634765625
0.005126953125
0.0120849609375
-0.002197265625
0.01171875
-0.0025634765625
0.0054931640625
-0.002197265625
0.0029296875
-0.0018310546875
0.0025634765625
-0.00146484375
0.0018310546875
0.0
0.0018310546875
0.0018310546875
0.002197265625
0.00146484375
0.002197265625
0.0010986328125
0.00146484375
-0.0010986328125
0.002197265625
0.0
0.002197265625
-0.0003662109375
0.0018310546875
0.0
0.00146484375
0.00146484375
0.00146484375
-0.00146484375
-0.0010986328125
-0.00439453125
-0.002197265625
0.0040283203125
0.0025634765625
0.0084228515625
0.000732421875
-0.0018310546875
0.0029296875
-0.0040283203125
0.00439453125
-0.002197265625
-0.0003662109375
-0.00146484375
0.0
-0.00146484375
-0.0018310546875
-0.005859375
-0.0809326171875
0.1505126953125
0.010986328125
0.024169921875
0.0794677734375
-0.1593017578125
-0.0113525390625
-0.03076171875
-0.0003662109375
-0.00146484375
-0.0003662109375
-0.0003662109375
-0.0010986328125
0.0
-0.00146484375
0.000732421875
-0.003662109375
0.000732421875
-0.005126953125
0.002197265625
-0.008056640625
0.003662109375
-0.0084228515625
0.006591796875
-0.0032958984375
0.0054931640625
0.00732421875
0.0003662109375
0.010986328125
-0.0018310546875
0.00439453125
-0.0003662109375
0.0018310546875
-0.000732421875
0.0
-0.002197265625
-0.0010986328125
-0.000732421875
-0.000732421875
0.0010986328125
0.0
0.002197265625
0.0
0.000732421875
0.0
-0.0003662109375
0.0003662109375
0.0
-0.0010986328125
0.0003662109375
-0.0010986328125
0.0003662109375
-0.0003662109375
-0.0003662109375
0.0
-0.0003662109375
0.0
-0.0010986328125
-0.0032958984375
-0.003662109375
-0.002197265625
0.003662109375
0.002197265625
0.0087890625
0.0
-0.0003662109375
0.00146484375
-0.00439453125
0.0032958984375
-0.0018310546875
-0.0010986328125
-0.000732421875
-0.000732421875
-0.0003662109375
0.0003662109375
-0.00146484375
-0.0721435546875
0.1102294921875
0.01904296875
0.0443115234375
0.0721435546875
-0.1171875
-0.019775390625
-0.052001953125
-0.0018310546875
-0.0029296875
0.0
0.0003662109375
0.0
0.0003662109375
-0.0018310546875
0.000732421875
-0.002197265625
0.000732421875
-0.00439453125
0.00146484375
-0.008056640625
0.0047607421875
-0.0091552734375
0.006591796875
-0.0047607421875
0.006591796875
0.0054931640625
0.0018310546875
0.0120849609375
-0.0018310546875
0.008056640625
-0.0010986328125
0.0029296875
-0.0003662109375
0.0018310546875
-0.002197265625
0.0010986328125
-0.002197265625
-0.000732421875
0.00146484375
-0.0003662109375
0.00146484375
0.0010986328125
0.0010986328125
0.0018310546875
0.0
0.0018310546875
0.00146484375
0.0
0.00146484375
0.0
0.0
-0.0003662109375
0.00146484375
0.0003662109375
0.0003662109375
0.00146484375
0.000732421875
0.000732421875
-0.0018310546875
-0.0018310546875
-0.0025634765625
-0.002197265625
0.0054931640625
0.00146484375
0.008056640625
0.0010986328125
0.0010986328125
0.003662109375
-0.0040283203125
0.0040283203125
-0.0025634765625
0.0003662109375
-0.00146484375
0.0003662109375
-0.00146484375
-0.0069580078125
-0.00146484375
-0.06591796875
0.1541748046875
0.0142822265625
0.0146484375
0.0662841796875
-0.161865234375
-0.006591796875
-0.0223388671875
-0.0003662109375
-0.0018310546875
-0.0003662109375
-0.0003662109375
0.0
-0.000732421875
-0.0010986328125
-0.0003662109375
-0.0032958984375
0.000732421875
-0.005859375
0.0018310546875
-0.0069580078125
0.003662109375
-0.00732421875
0.005859375
-0.0018310546875
0.0047607421875
0.008056640625
-0.000732421875
0.009521484375
-0.0010986328125
0.00439453125
0.0
0.002197265625
-0.000732421875
0.00146484375
-0.002197265625
0.0003662109375
-0.00146484375
0.0
0.00146484375
-0.000732421875
0.00146484375
0.000732421875
0.0010986328125
0.00146484375
-0.000732421875
0.0010986328125
-0.0003662109375
0.0003662109375
0.0
-0.0010986328125
0.0003662109375
-0.000732421875
0.000732421875
-0.0003662109375
-0.0003662109375
0.0
0.0003662109375
-0.0018310546875
-0.0029296875
-0.0032958984375
0.0029296875
0.0
0.0054931640625
0.0018310546875
0.00146484375
0.00146484375
-0.000732421875
0.0025634765625
-0.0040283203125
0.00146484375
-0.00146484375
-0.000732421875
-0.000732421875
-0.0010986328125
-0.0003662109375
-0.0311279296875
0.03369140625
0.0113525390625
0.0794677734375
0.0347900390625
-0.03515625
-0.01171875
-0.0882568359375
-0.00439453125
-0.0069580078125
-0.0010986328125
0.0
-0.000732421875
-0.0010986328125
-0.00146484375
-0.000732421875
-0.0032958984375
0.002197265625
-0.0040283203125
0.002197265625
-0.005859375
0.002197265625
-0.00732421875
0.005126953125
-0.00732421875
0.005859375
0.0018310546875
0.0029296875
0.0106201171875
-0.000732421875
0.0084228515625
-0.000732421875
0.0040283203125
-0.0010986328125
0.002197265625
-0.00146484375
0.0010986328125
-0.0018310546875
0.0
0.0
0.0
0.002197265625
0.0
0.00146484375
0.000732421875
0.000732421875
0.0003662109375
0.0003662109375
0.0003662109375
0.000732421875
0.000732421875
0.0003662109375
0.0
0.0018310546875
-0.000732421875
0.00146484375
-0.0003662109375
0.0
-0.0003662109375
0.0003662109375
-0.002197265625
-0.0047607421875
-0.002197265625
0.0062255859375
-0.0010986328125
0.009521484375
0.000732421875
-0.00146484375
0.0032958984375
-0.0025634765625
0.003662109375
-0.0018310546875
0.00146484375
-0.0003662109375
-0.0003662109375
-0.000732421875
0.0010986328125
-0.00146484375
-0.0531005859375
0.0673828125
0.0296630859375
0.0552978515625
0.054931640625
-0.0728759765625
-0.030029296875
-0.0618896484375
-0.0010986328125
-0.003662109375
-0.00146484375
-0.0003662109375
-0.0010986328125
0.0003662109375
-0.0003662109375
-0.0003662109375
-0.0010986328125
0.0
-0.0029296875
0.000732421875
-0.0054931640625
0.0029296875
-0.008056640625
0.00439453125
-0.005859375
0.0054931640625
0.00439453125
0.00146484375
0.010986328125
-0.0029296875
0.008056640625
-0.0003662109375
0.0029296875
-0.00146484375
0.0010986328125
-0.0018310546875
0.0010986328125
-0.0010986328125
-0.0003662109375
0.0003662109375
-0.0003662109375
0.000732421875
0.0025634765625
-0.0003662109375
0.002197265625
-0.0003662109375
0.0
-0.000732421875
0.0
0.0003662109375
0.0
0.0003662109375
0.0
0.000732421875
0.0
-0.0003662109375
0.0
-0.000732421875
-0.0018310546875
-0.000732421875
-0.00439453125
-0.002197265625
-0.0010986328125
0.0032958984375
0.00146484375
0.005859375
-0.00146484375
0.0025634765625
0.0010986328125
-0.0032958984375
0.002197265625
-0.003662109375
-0.000732421875
-0.00146484375
-0.000732421875
-0.0018310546875
-0.01904296875
0.0135498046875
-0.03369140625
0.1201171875
0.0216064453125
-0.006591796875
0.0322265625
-0.13037109375
-0.005126953125
-0.0157470703125
-0.00146484375
0.0003662109375
-0.000732421875
0.0
-0.0018310546875
0.0003662109375
-0.0032958984375
-0.0003662109375
-0.003662109375
0.0010986328125
-0.005126953125
0.002197265625
-0.0062255859375
0.005126953125
-0.0069580078125
0.0069580078125
0.0
0.00439453125
0.009521484375
-0.000732421875
0.0091552734375
-0.00146484375
0.0047607421875
-0.0003662109375
0.00146484375
-0.002197265625
0.0003662109375
-0.00146484375
-0.0003662109375
0.0
-0.0003662109375
0.0025634765625
0.0
0.00146484375
0.0010986328125
0.0003662109375
0.000732421875
0.00146484375
0.0
0.0003662109375
0.0010986328125
0.000732421875
0.0
0.0
-0.0003662109375
0.0010986328125
0.0
0.000732421875
0.0
-0.0003662109375
-0.00146484375
-0.0029296875
-0.0029296875
0.005126953125
0.0
0.00732421875
0.002197265625
-0.00146484375
0.002197265625
0.0
0.002197265625
-0.0010986328125
0.00146484375
-0.0010986328125
0.0
-0.0010986328125
0.0
-0.0010986328125
-0.0391845703125
0.04541015625
0.030029296875
0.05859375
0.0435791015625
-0.0487060546875
-0.0318603515625
-0.065185546875
-0.0029296875
-0.0025634765625
0.0018310546875
-0.000732421875
-0.0025634765625
-0.000732421875
-0.0029296875
-0.0003662109375
-0.0029296875
-0.0003662109375
-0.00439453125
0.0010986328125
-0.0054931640625
0.0018310546875
-0.005126953125
0.00439453125
-0.0047607421875
0.0062255859375
0.00439453125
0.0032958984375
0.0120849609375
-0.0010986328125
0.0087890625
-0.0010986328125
0.00439453125
-0.0010986328125
0.0029296875
-0.0029296875
0.002197265625
-0.0025634765625
-0.00146484375
-0.0003662109375
0.0
0.002197265625
0.00146484375
0.0010986328125
0.0003662109375
0.000732421875
0.00146484375
0.0
0.0010986328125
-0.0003662109375
0.0
0.000732421875
-0.000732421875
0.0
-0.0010986328125
0.0003662109375
0.0
-0.0010986328125
0.0003662109375
-0.0010986328125
-0.000732421875
-0.005126953125
-0.0025634765625
0.0029296875
0.0
0.0084228515625
0.0
-0.000732421875
0.0018310546875
-0.0032958984375
0.0040283203125
-0.0018310546875
0.0010986328125
0.0003662109375
0.0
-0.0010986328125
-0.0003662109375
-0.0025634765625
-0.0780029296875
0.123046875
0.0142822265625
0.03515625
0.0780029296875
-0.1314697265625
-0.015380859375
-0.0439453125
-0.000732421875
-0.0010986328125
-0.000732421875
0.0003662109375
-0.00146484375
0.0
-0.0025634765625
0.0
-0.0040283203125
0.000732421875
-0.0047607421875
0.00146484375
-0.0069580078125
0.0032958984375
-0.008056640625
0.006591796875
-0.00439453125
0.005859375
0.0054931640625
0.002197265625
0.0098876953125
-0.000732421875
0.0062255859375
-0.0010986328125
0.0032958984375
-0.002197265625
0.000732421875
-0.0018310546875
-0.0003662109375
0.0
-0.0010986328125
0.0010986328125
-0.0010986328125
0.0018310546875
0.0003662109375
0.0010986328125
0.0010986328125
0.0010986328125
0.0003662109375
-0.0003662109375
0.0
0.0003662109375
0.0
0.0003662109375
-0.0003662109375
0.0
0.0
0.0010986328125
-0.0003662109375
0.0
-0.0003662109375
-0.000732421875
-0.0032958984375
-0.00439453125
-0.002197265625
0.0040283203125
0.002197265625
0.0091552734375
-0.000732421875
-0.0003662109375
0.002197265625
-0.0040283203125
0.0029296875
-0.00146484375
0.0
0.000732421875
0.0003662109375
-0.0010986328125
0.0
-0.0040283203125
-0.0853271484375
0.1490478515625
0.01171875
0.027099609375
0.084228515625
-0.1556396484375
-0.0135498046875
-0.03076171875
-0.0003662109375
0.000732421875
0.0003662109375
0.0003662109375
-0.0010986328125
0.0
-0.002197265625
0.000732421875
-0.0025634765625
0.0018310546875
-0.005859375
0.0018310546875
-0.0069580078125
0.0032958984375
-0.00732421875
0.006591796875
-0.0040283203125
0.0047607421875
0.0091552734375
-0.0003662109375
0.01171875
-0.002197265625
0.0062255859375
-0.000732421875
0.0029296875
-0.0010986328125
0.0
-0.0018310546875
0.0010986328125
-0.000732421875
0.0010986328125
0.0010986328125
0.0
0.0018310546875
0.0010986328125
0.000732421875
0.0029296875
0.0
0.0018310546875
-0.0003662109375
0.000732421875
0.0010986328125
0.0003662109375
0.000732421875
0.0003662109375
0.0
0.0010986328125
0.0
0.0003662109375
0.0
0.0003662109375
0.000732421875
-0.00146484375
-0.00439453125
-0.000732421875
0.0032958984375
0.0029296875
0.0084228515625
0.0003662109375
-0.0003662109375
0.002197265625
-0.0029296875
0.0040283203125
-0.0018310546875
0.000732421875
-0.00146484375
0.0
-0.002197265625
0.0
-0.005126953125
-0.08203125
0.142822265625
0.012451171875
0.0281982421875
0.08203125
-0.15234375
-0.01318359375
-0.0333251953125
0.0
-0.00146484375
-0.000732421875
-0.00146484375
-0.002197265625
0.00146484375
-0.00146484375
0.0
-0.0025634765625
0.0
-0.005859375
0.00146484375
-0.008056640625
0.0040283203125
-0.0087890625
0.006591796875
-0.0054931640625
0.0047607421875
0.005859375
0.000732421875
0.01025390625
-0.0018310546875
0.0062255859375
0.0
0.0032958984375
-0.0010986328125
0.00146484375
-0.002197265625
0.0
-0.0010986328125
-0.0018310546875
0.00146484375
-0.0010986328125
0.002197265625
-0.0018310546875
0.000732421875
0.0
0.000732421875
0.0003662109375
0.0
-0.002197265625
0.000732421875
-0.000732421875
0.0003662109375
0.0003662109375
0.0
-0.0003662109375
0.0003662109375
-0.0010986328125
0.000732421875
0.000732421875
-0.0003662109375
-0.0025634765625
-0.0047607421875
-0.0032958984375
0.0040283203125
0.0018310546875
0.008056640625
-0.0003662109375
0.0
0.0010986328125
-0.003662109375
0.0025634765625
-0.002197265625
0.0
0.0
0.0003662109375
-0.0018310546875
0.000732421875
-0.0029296875
-0.0831298828125
0.1373291015625
0.0135498046875
0.0311279296875
0.082763671875
-0.14501953125
-0.0157470703125
-0.0369873046875
-0.00146484375
-0.000732421875
0.0
0.0
-0.0003662109375
0.000732421875
-0.0018310546875
0.0003662109375
-0.0032958984375
0.0010986328125
-0.005859375
0.0010986328125
-0.0087890625
0.005126953125
-0.01025390625
0.0084228515625
-0.005126953125
0.005859375
0.006591796875
0.0018310546875
0.010986328125
-0.0003662109375
0.0069580078125
-0.000732421875
0.003662109375
-0.0029296875
0.0018310546875
-0.0025634765625
0.000732421875
-0.0010986328125
0.0
0.0010986328125
0.000732421875
0.002197265625
0.000732421875
0.002197265625
0.000732421875
0.0018310546875
0.0018310546875
0.0
0.0018310546875
0.0
0.0003662109375
0.0
0.000732421875
0.0
0.0003662109375
0.0
0.000732421875
0.0003662109375
0.00146484375
0.0
-0.0003662109375
-0.0032958984375
-0.0018310546875
0.00439453125
-0.0003662109375
0.0062255859375
0.0018310546875
0.0
0.0025634765625
-0.00146484375
0.0032958984375
-0.0025634765625
0.0010986328125
-0.0010986328125
-0.0003662109375
-0.0010986328125
0.0
-0.000732421875
-0.0413818359375
0.04833984375
0.03076171875
0.057861328125
0.0443115234375
-0.053466796875
-0.0303955078125
-0.0670166015625
-0.0025634765625
-0.005859375
-0.0003662109375
-0.000732421875
-0.0003662109375
0.0
-0.0003662109375
-0.0003662109375
-0.0010986328125
0.0003662109375
-0.005126953125
0.0003662109375
-0.0069580078125
0.0018310546875
-0.0062255859375
0.0047607421875
-0.006591796875
0.006591796875
0.002197265625
0.0025634765625
0.0098876953125
-0.0010986328125
0.0084228515625
-0.0003662109375
0.00439453125
-0.0003662109375
0.002197265625
-0.00146484375
0.0
-0.0018310546875
-0.00146484375
0.000732421875
-0.000732421875
0.0018310546875
-0.000732421875
0.0018310546875
0.0
0.0
0.000732421875
-0.000732421875
0.000732421875
0.0003662109375
-0.000732421875
0.0003662109375
-0.0003662109375
0.0
0.0003662109375
-0.0010986328125
-0.0003662109375
0.0
0.0
0.0003662109375
0.0
-0.0029296875
-0.0032958984375
0.0040283203125
-0.0018310546875
0.0054931640625
0.0010986328125
0.0003662109375
0.0
0.0003662109375
0.0018310546875
-0.00146484375
0.0018310546875
-0.0029296875
0.0
-0.002197265625
-0.002197265625
-0.000732421875
-0.0377197265625
0.043212890625
0.022705078125
0.0721435546875
0.038818359375
-0.04833984375
-0.0230712890625
-0.08056640625
-0.0040283203125
-0.00439453125
-0.0010986328125
0.000732421875
-0.0010986328125
0.0
-0.000732421875
0.0003662109375
-0.0029296875
0.0010986328125
-0.005859375
0.0018310546875
-0.006591796875
0.0032958984375
-0.00732421875
0.005126953125
-0.006591796875
0.0084228515625
0.002197265625
0.003662109375
0.0120849609375
-0.0025634765625
0.0098876953125
-0.002197265625
0.0029296875
-0.0003662109375
0.00146484375
-0.000732421875
0.0018310546875
-0.002197265625
0.0010986328125
0.0003662109375
-0.000732421875
0.002197265625
0.0
0.0025634765625
0.002197265625
-0.000732421875
0.00146484375
-0.00146484375
0.0018310546875
0.0025634765625
0.00146484375
0.00146484375
0.0010986328125
0.0
0.0010986328125
-0.0010986328125
0.0003662109375
0.0
0.000732421875
-0.0003662109375
-0.000732421875
-0.0054931640625
-0.0018310546875
0.0040283203125
0.000732421875
0.0069580078125
0.00146484375
-0.002197265625
0.0018310546875
-0.0032958984375
0.002197265625
-0.0003662109375
0.0003662109375
0.000732421875
0.000732421875
-0.0010986328125
0.0
-0.0010986328125
-0.065185546875
0.095947265625
0.0208740234375
0.047607421875
0.0648193359375
-0.1029052734375
-0.021240234375
-0.054931640625
-0.000732421875
-0.0032958984375
0.0
-0.000732421875
-0.0010986328125
0.0003662109375
-0.0025634765625
0.0003662109375
-0.0010986328125
0.000732421875
-0.0025634765625
0.0003662109375
-0.005859375
0.0029296875
-0.00732421875
0.005859375
-0.0054931640625
0.0062255859375
0.0040283203125
0.00146484375
0.010986328125
-0.0003662109375
0.0069580078125
-0.0003662109375
0.00146484375
-0.000732421875
0.0010986328125
-0.0010986328125
0.0
-0.00146484375
-0.002197265625
0.000732421875
-0.00146484375
-0.0003662109375
0.000732421875
0.0
0.0
0.000732421875
-0.000732421875
0.0
0.0
-0.0003662109375
0.0
0.0003662109375
0.0
0.000732421875
-0.000732421875
-0.0003662109375
-0.000732421875
0.000732421875
-0.0018310546875
-0.00146484375
-0.00439453125
0.0
-0.0010986328125
0.0047607421875
0.0018310546875
0.00439453125
0.0
0.0010986328125
0.0025634765625
-0.0029296875
0.0029296875
-0.0032958984375
-0.00146484375
-0.0018310546875
-0.002197265625
-0.000732421875
-0.02490234375
0.021240234375
-0.017578125
0.1087646484375
0.0267333984375
-0.017578125
0.016845703125
-0.1171875
-0.0032958984375
-0.012451171875
-0.000732421875
-0.00146484375
-0.000732421875
-0.0003662109375
-0.00146484375
0.000732421875
-0.0029296875
0.0003662109375
-0.0040283203125
0.0003662109375
-0.006591796875
0.0029296875
-0.0084228515625
0.0069580078125
-0.00732421875
0.0069580078125
0.000732421875
0.00439453125
0.009521484375
0.0003662109375
0.0098876953125
-0.00146484375
0.005126953125
-0.0010986328125
0.00146484375
-0.0010986328125
0.00146484375
-0.0018310546875
0.0010986328125
-0.000732421875
-0.000732421875
0.0040283203125
-0.0003662109375
0.0032958984375
0.000732421875
0.0003662109375
0.000732421875
0.0
0.000732421875
0.000732421875
0.0003662109375
0.000732421875
0.000732421875
0.0
0.0003662109375
0.0003662109375
0.000732421875
0.000732421875
0.000732421875
0.000732421875
-0.0010986328125
-0.0047607421875
-0.002197265625
0.0047607421875
0.0010986328125
0.0069580078125
0.0029296875
-0.002197265625
0.002197265625
-0.000732421875
0.0032958984375
-0.0018310546875
0.00146484375
-0.00146484375
0.0
-0.00146484375
0.0010986328125
-0.0010986328125
-0.0435791015625
0.056396484375
0.030029296875
0.06005859375
0.046875
-0.0615234375
-0.0289306640625
-0.068115234375
-0.0010986328125
-0.003662109375
0.0
-0.0003662109375
0.0
-0.0003662109375
-0.00146484375
-0.0010986328125
-0.002197265625
0.0003662109375
-0.003662109375
0.000732421875
-0.005859375
0.0018310546875
-0.0062255859375
0.00439453125
-0.005859375
0.005859375
0.0025634765625
0.003662109375
0.01025390625
0.0
0.006591796875
0.0003662109375
0.0018310546875
-0.0010986328125
0.000732421875
-0.0018310546875
0.0
-0.0010986328125
0.0
0.0003662109375
0.0
0.000732421875
-0.0003662109375
0.0003662109375
0.000732421875
0.0
0.0003662109375
-0.00146484375
-0.0003662109375
0.0003662109375
-0.000732421875
0.0010986328125
-0.0003662109375
0.0010986328125
-0.0003662109375
0.0
-0.0010986328125
0.0
0.0
-0.0018310546875
-0.0029296875
-0.003662109375
-0.0010986328125
0.0047607421875
0.002197265625
0.006591796875
0.0
0.0010986328125
0.00146484375
-0.0029296875
0.0003662109375
-0.0025634765625
-0.00146484375
-0.0010986328125
-0.0003662109375
-0.00146484375
-0.01904296875
0.0128173828125
-0.0377197265625
0.1278076171875
0.021240234375
-0.005126953125
0.035888671875
-0.136962890625
-0.00439453125
-0.0164794921875
-0.0003662109375
-0.0010986328125
-0.00146484375
-0.0003662109375
-0.0025634765625
0.0010986328125
-0.003662109375
0.0003662109375
-0.0047607421875
0.0010986328125
-0.005859375
0.0010986328125
-0.008056640625
0.00439453125
-0.00732421875
0.00732421875
-0.000732421875
0.0054931640625
0.0091552734375
0.00146484375
0.0091552734375
-0.000732421875
0.0040283203125
0.0
0.00146484375
-0.00146484375
-0.0003662109375
-0.000732421875
-0.0003662109375
0.00146484375
0.0003662109375
0.00146484375
0.00146484375
0.0
0.0003662109375
0.000732421875
0.0010986328125
0.00146484375
0.0018310546875
0.0
0.000732421875
0.00146484375
0.0003662109375
0.00146484375
0.000732421875
0.0
0.00146484375
-0.0003662109375
0.0018310546875
-0.000732421875
-0.0003662109375
-0.00439453125
-0.002197265625
0.005126953125
0.00146484375
0.00732421875
0.00146484375
-0.002197265625
0.002197265625
-0.0010986328125
0.0032958984375
-0.0003662109375
0.0018310546875
-0.0003662109375
0.0018310546875
-0.0010986328125
0.0018310546875
-0.0018310546875
-0.050537109375
0.0673828125
0.0274658203125
0.056396484375
0.05419921875
-0.0743408203125
-0.027099609375
-0.0662841796875
-0.0010986328125
-0.0032958984375
0.000732421875
0.0
-0.000732421875
-0.000732421875
-0.00146484375
-0.0003662109375
-0.0018310546875
-0.000732421875
-0.0032958984375
0.0
-0.0069580078125
0.00146484375
-0.0069580078125
0.005126953125
-0.0040283203125
0.005126953125
0.0032958984375
0.0018310546875
0.01025390625
-0.000732421875
0.006591796875
0.0
0.002197265625
0.0003662109375
0.00146484375
-0.00146484375
0.00146484375
-0.002197265625
-0.0003662109375
-0.000732421875
-0.000732421875
0.00146484375
0.000732421875
0.0
0.00146484375
0.0
0.00146484375
-0.0003662109375
-0.000732421875
-0.0003662109375
-0.0003662109375
-0.0003662109375
0.0
-0.00146484375
-0.000732421875
0.0
0.0
0.0
-0.000732421875
-0.000732421875
-0.0032958984375
-0.003662109375
-0.002197265625
0.0029296875
0.0018310546875
0.0084228515625
-0.0010986328125
-0.0003662109375
0.0010986328125
-0.003662109375
0.0032958984375
-0.00146484375
0.0003662109375
-0.0003662109375
0.0
-0.0010986328125
-0.000732421875
-0.0047607421875
-0.08642578125
0.1512451171875
0.01025390625
0.0289306640625
0.0845947265625
-0.1600341796875
-0.01318359375
-0.0347900390625
-0.000732421875
-0.0003662109375
-0.000732421875
0.0
-0.0010986328125
0.0003662109375
-0.000732421875
-0.0003662109375
-0.003662109375
0.0003662109375
-0.005859375
0.0018310546875
-0.0076904296875
0.0032958984375
-0.0087890625
0.00732421875
-0.0054931640625
0.006591796875
0.005126953125
0.0029296875
0.0106201171875
0.0
0.005126953125
-0.0003662109375
0.0018310546875
-0.0010986328125
0.0010986328125
-0.002197265625
-0.000732421875
-0.0003662109375
-0.002197265625
0.0010986328125
-0.0003662109375
0.0025634765625
0.000732421875
0.0010986328125
0.0
0.0010986328125
0.0010986328125
0.0003662109375
-0.000732421875
0.0
-0.00146484375
0.0010986328125
0.000732421875
0.0003662109375
0.000732421875
0.00146484375
0.0
0.000732421875
0.0
0.0
-0.0029296875
-0.003662109375
-0.002197265625
0.003662109375
0.0029296875
0.00732421875
-0.0003662109375
-0.000732421875
0.002197265625
-0.00146484375
0.00439453125
-0.000732421875
0.0003662109375
0.0003662109375
-0.0003662109375
0.0003662109375
0.0
-0.005126953125
-0.081298828125
0.155670166015625
0.012451171875
0.0245361328125
0.084228515625
-0.164825439453125
-0.012451171875
-0.02783203125
0.0
-0.0003662109375
0.002197265625
-0.000732421875
-0.00146484375
0.0010986328125
-0.0025634765625
0.000732421875
-0.0018310546875
0.0003662109375
-0.0032958984375
0.0
-0.006591796875
0.0029296875
-0.006591796875
0.005859375
-0.0018310546875
0.0047607421875
0.008056640625
0.00146484375
0.01171875
-0.0018310546875
0.0054931640625
0.0
0.002197265625
-0.00146484375
0.0018310546875
-0.0040283203125
0.0010986328125
-0.00146484375
0.0
0.00146484375
0.0010986328125
0.00146484375
0.00146484375
0.0010986328125
0.00146484375
0.0010986328125
0.0010986328125
0.0
0.0003662109375
-0.00146484375
0.000732421875
-0.002197265625
-0.0003662109375
0.0
0.0
0.0
0.0
-0.000732421875
-0.00146484375
-0.0003662109375
-0.002197265625
-0.00146484375
0.0
0.0040283203125
0.00146484375
0.005126953125
-0.00146484375
0.00146484375
0.0018310546875
-0.00146484375
0.0029296875
-0.0029296875
-0.000732421875
-0.00146484375
-0.0003662109375
-0.0025634765625
-0.02197265625
0.01611328125
-0.024169921875
0.1124267578125
0.0234375
-0.01171875
0.02197265625
-0.12158203125
-0.0040283203125
-0.0146484375
-0.000732421875
0.0003662109375
-0.0018310546875
0.0003662109375
-0.002197265625
0.0003662109375
-0.003662109375
0.0003662109375
-0.005126953125
0.00146484375
-0.006591796875
0.002197265625
-0.008056640625
0.00439453125
-0.00732421875
0.0069580078125
-0.000732421875
0.005126953125
0.008056640625
0.002197265625
0.0084228515625
-0.0010986328125
0.003662109375
-0.0003662109375
0.002197265625
-0.0018310546875
0.0010986328125
-0.002197265625
-0.0010986328125
0.0003662109375
-0.0018310546875
0.002197265625
-0.0003662109375
0.0029296875
0.0010986328125
0.0003662109375
0.0010986328125
0.000732421875
0.000732421875
0.0003662109375
-0.000732421875
0.000732421875
-0.000732421875
0.0
-0.000732421875
-0.0003662109375
-0.0003662109375
0.0003662109375
0.0
0.0
-0.0003662109375
-0.0010986328125
-0.0025634765625
0.002197265625
0.000732421875
0.00439453125
0.0032958984375
0.000732421875
0.0
0.00146484375
0.003662109375
-0.002197265625
0.00146484375
-0.0029296875
-0.002197265625
0.0
0.0003662109375
-0.00146484375
-0.028564453125
0.0303955078125
0.006591796875
0.08349609375
0.031494140625
-0.030029296875
-0.0091552734375
-0.090087890625
-0.0040283203125
-0.0076904296875
0.00146484375
-0.0018310546875
-0.0003662109375
-0.0003662109375
-0.002197265625
0.0029296875
-0.0032958984375
0.0010986328125
-0.0029296875
0.0010986328125
-0.00439453125
0.0018310546875
-0.0076904296875
0.005126953125
-0.0069580078125
0.00732421875
0.0018310546875
0.003662109375
0.012451171875
-0.0018310546875
0.0106201171875
-0.0018310546875
0.005859375
0.0
0.003662109375
-0.0032958984375
0.0010986328125
-0.002197265625
0.0010986328125
-0.000732421875
0.0
0.000732421875
0.00146484375
0.00146484375
0.0010986328125
0.000732421875
0.0010986328125
0.000732421875
0.0018310546875
-0.0003662109375
0.0
0.0003662109375
0.0003662109375
-0.0003662109375
0.0
0.0003662109375
0.0
0.00146484375
0.0003662109375
0.0
0.0
-0.0018310546875
-0.0018310546875
0.00146484375
0.000732421875
0.00439453125
0.0025634765625
0.000732421875
0.000732421875
0.0003662109375
0.0018310546875
-0.002197265625
0.000732421875
-0.0032958984375
-0.0003662109375
-0.0010986328125
-0.0003662109375
-0.0018310546875
-0.0289306640625
0.0311279296875
0.012451171875
0.075439453125
0.0311279296875
-0.032958984375
-0.0135498046875
-0.08642578125
-0.0029296875
-0.01025390625
-0.0003662109375
-0.0010986328125
-0.0018310546875
0.0
-0.0018310546875
0.0010986328125
-0.0025634765625
0.000732421875
-0.0029296875
0.0010986328125
-0.0062255859375
0.0010986328125
-0.0087890625
0.005126953125
-0.0069580078125
0.0069580078125
-0.000732421875
0.0047607421875
0.0084228515625
-0.0003662109375
0.008056640625
-0.0018310546875
0.0032958984375
0.000732421875
0.00146484375
-0.002197265625
0.0
-0.002197265625
-0.00146484375
0.0003662109375
-0.0018310546875
0.00146484375
-0.000732421875
0.00146484375
0.0
0.0003662109375
0.000732421875
-0.0003662109375
0.0003662109375
-0.000732421875
0.0
0.0
-0.0003662109375
0.0003662109375
-0.000732421875
0.0018310546875
-0.0003662109375
0.0
0.002197265625
-0.0010986328125
0.0003662109375
-0.000732421875
-0.0047607421875
0.0
0.0
0.00439453125
0.0032958984375
0.0040283203125
-0.000732421875
0.0010986328125
0.00146484375
-0.0029296875
0.0025634765625
-0.0029296875
0.0
-0.0010986328125
0.0
0.0
-0.0205078125
0.0150146484375
-0.0230712890625
0.11279296875
0.0263671875
-0.008056640625
0.0252685546875
-0.1201171875
-0.003662109375
-0.01171875
-0.0003662109375
0.00146484375
0.000732421875
0.0
0.0003662109375
0.000732421875
-0.00146484375
0.00146484375
-0.002197265625
0.0018310546875
-0.005126953125
0.0029296875
-0.00732421875
0.0062255859375
-0.0054931640625
0.00732421875
0.00146484375
0.0047607421875
0.01025390625
0.0003662109375
0.0106201171875
-0.00146484375
0.0047607421875
-0.0003662109375
0.00146484375
-0.0003662109375
0.0010986328125
-0.0010986328125
0.000732421875
-0.00146484375
0.0
0.00146484375
0.0
0.0018310546875
0.0010986328125
0.000732421875
0.0010986328125
-0.0003662109375
0.0
0.0
0.000732421875
0.000732421875
-0.0003662109375
0.0
-0.000732421875
0.000732421875
-0.0003662109375
-0.000732421875
-0.0003662109375
-0.000732421875
-0.00146484375
-0.0047607421875
-0.0029296875
0.003662109375
0.0
0.00732421875
-0.0003662109375
-0.002197265625
0.000732421875
-0.0029296875
0.0018310546875
-0.002197265625
-0.000732421875
-0.000732421875
-0.0010986328125
-0.002197265625
-0.0010986328125
-0.002197265625
-0.0677490234375
0.0919189453125
0.019775390625
0.05419921875
0.0648193359375
-0.099609375
-0.0245361328125
-0.063720703125
-0.00439453125
-0.0018310546875
-0.003662109375
0.0
-0.0029296875
0.0
-0.0029296875
0.0
-0.0029296875
0.0
-0.005126953125
0.0010986328125
-0.008056640625
0.0025634765625
-0.008056640625
0.0062255859375
-0.006591796875
0.006591796875
0.0029296875
0.0029296875
0.010986328125
-0.000732421875
0.0069580078125
-0.00146484375
0.0029296875
-0.0018310546875
0.00146484375
-0.002197265625
0.0003662109375
-0.000732421875
-0.0010986328125
0.0003662109375
-0.0003662109375
0.002197265625
0.000732421875
0.00146484375
0.0010986328125
0.000732421875
0.0003662109375
0.0003662109375
-0.0003662109375
0.0
0.000732421875
0.0
0.0003662109375
-0.000732421875
0.0003662109375
0.000732421875
0.0003662109375
0.0
-0.0003662109375
-0.00146484375
-0.0029296875
-0.0018310546875
-0.0003662109375
0.003662109375
0.003662109375
0.0062255859375
0.0
0.002197265625
0.0025634765625
-0.0018310546875
0.0032958984375
-0.0029296875
-0.0010986328125
0.0
0.0
-0.000732421875
-0.0172119140625
0.0091552734375
-0.041748046875
0.1300048828125
0.0205078125
0.000732421875
0.0406494140625
-0.134765625
-0.0047607421875
-0.0164794921875
0.0
0.0
0.000732421875
0.0003662109375
0.0
0.0
-0.000732421875
0.0
-0.0018310546875
0.00146484375
-0.0040283203125
0.0025634765625
-0.0062255859375
0.0040283203125
-0.0054931640625
0.0069580078125
0.000732421875
0.0032958984375
0.0106201171875
-0.000732421875
0.01318359375
-0.0018310546875
0.0062255859375
-0.0010986328125
0.0025634765625
-0.0018310546875
0.0029296875
-0.0032958984375
0.002197265625
-0.0010986328125
0.000732421875
0.0010986328125
0.0010986328125
0.00146484375
0.0018310546875
-0.0003662109375
0.0010986328125
-0.0003662109375
0.000732421875
-0.0003662109375
0.0003662109375
0.0003662109375
0.0010986328125
0.0003662109375
0.0003662109375
-0.000732421875
-0.000732421875
0.0
0.0003662109375
-0.000732421875
-0.0010986328125
-0.0047607421875
-0.002197265625
0.0029296875
0.0018310546875
0.0084228515625
0.000732421875
0.0
0.0018310546875
-0.0032958984375
0.005126953125
-0.002197265625
0.0003662109375
-0.0010986328125
-0.0018310546875
-0.0010986328125
-0.0010986328125
-0.0029296875
-0.0794677734375
0.1278076171875
0.015380859375
0.0325927734375
0.078369140625
-0.1351318359375
-0.0157470703125
-0.03955078125
-0.000732421875
-0.0025634765625
-0.0010986328125
-0.0003662109375
-0.00146484375
-0.0003662109375
-0.0018310546875
0.0
-0.003662109375
0.0003662109375
-0.005859375
0.00146484375
-0.00732421875
0.0029296875
-0.008056640625
0.0062255859375
-0.00439453125
0.005859375
0.00439453125
0.0003662109375
0.009521484375
-0.000732421875
0.005859375
-0.000732421875
0.002197265625
-0.0018310546875
0.0010986328125
-0.0025634765625
-0.000732421875
-0.0003662109375
-0.00146484375
0.00146484375
-0.00146484375
0.0018310546875
-0.0003662109375
0.002197265625
-0.0003662109375
0.000732421875
-0.000732421875
0.0003662109375
0.0003662109375
-0.0003662109375
0.0
0.0003662109375
0.0003662109375
0.0003662109375
0.0003662109375
-0.0003662109375
-0.000732421875
0.0003662109375
-0.0025634765625
-0.0029296875
-0.0040283203125
0.0047607421875
-0.0003662109375
0.0062255859375
0.002197265625
-0.0003662109375
0.0003662109375
-0.0003662109375
0.002197265625
-0.0025634765625
0.0018310546875
-0.00146484375
-0.000732421875
-0.0003662109375
-0.0003662109375
-0.00146484375
-0.037353515625
0.0439453125
0.02490234375
0.0673828125
0.03955078125
-0.0498046875
-0.02490234375
-0.07470703125
-0.002197265625
-0.00439453125
-0.00146484375
0.0
-0.002197265625
0.000732421875
-0.00146484375
0.0
-0.002197265625
0.000732421875
-0.00439453125
0.0
-0.006591796875
0.0018310546875
-0.0076904296875
0.0047607421875
-0.006591796875
0.008056640625
0.0018310546875
0.0047607421875
0.01025390625
-0.000732421875
0.0084228515625
-0.0003662109375
0.0029296875
-0.000732421875
0.0018310546875
-0.0018310546875
0.0018310546875
-0.002197265625
0.0010986328125
0.0
0.0
0.0018310546875
0.0018310546875
0.002197265625
0.0025634765625
0.00146484375
0.0
0.0003662109375
0.0003662109375
0.0010986328125
0.0003662109375
0.000732421875
0.0
0.00146484375
-0.0003662109375
0.0
0.000732421875
0.0
0.0018310546875
0.0010986328125
0.0003662109375
-0.00146484375
-0.0018310546875
0.005859375
0.0
0.0047607421875
0.0029296875
0.0
0.0025634765625
-0.0010986328125
0.0029296875
-0.0029296875
0.0018310546875
-0.00146484375
0.0003662109375
-0.00146484375
0.0
0.0
-0.0362548828125
0.040283203125
0.027099609375
0.060791015625
0.0391845703125
-0.043212890625
-0.0267333984375
-0.06884765625
-0.0025634765625
-0.0069580078125
0.0003662109375
-0.00146484375
-0.000732421875
0.0
-0.0018310546875
-0.0003662109375
-0.002197265625
0.0
-0.003662109375
0.0003662109375
-0.005859375
0.0025634765625
-0.0069580078125
0.0047607421875
-0.0062255859375
0.005859375
0.0010986328125
0.0029296875
0.01025390625
-0.0010986328125
0.009521484375
-0.0018310546875
0.0040283203125
-0.00146484375
0.00146484375
-0.0018310546875
0.0003662109375
-0.0025634765625
-0.0003662109375
0.000732421875
-0.0003662109375
0.0010986328125
0.0
0.000732421875
0.0
0.0
0.0003662109375
0.0
0.0003662109375
0.0003662109375
-0.00146484375
0.0
-0.0010986328125
0.000732421875
-0.0003662109375
-0.000732421875
-0.00146484375
0.0
-0.00146484375
0.0003662109375
-0.002197265625
-0.00439453125
-0.0029296875
0.005126953125
-0.0010986328125
0.00732421875
0.0
-0.0018310546875
0.0003662109375
-0.0018310546875
0.00146484375
-0.00146484375
0.000732421875
-0.0010986328125
0.0
-0.00146484375
0.0003662109375
-0.002197265625
-0.0450439453125
0.0556640625
0.03076171875
0.0604248046875
0.0465087890625
-0.062255859375
-0.0325927734375
-0.0670166015625
-0.0029296875
-0.0025634765625
0.0
-0.0003662109375
-0.002197265625
-0.0003662109375
-0.0032958984375
0.0003662109375
-0.0025634765625
0.000732421875
-0.0047607421875
0.0003662109375
-0.0062255859375
0.00146484375
-0.0076904296875
0.0054931640625
-0.00732421875
0.0076904296875
0.0025634765625
0.0025634765625
0.012451171875
-0.0010986328125
0.0087890625
-0.0010986328125
0.002197265625
-0.0003662109375
0.0025634765625
-0.0029296875
0.003662109375
-0.003662109375
0.0003662109375
0.00146484375
-0.002197265625
0.002197265625
0.00146484375
0.0010986328125
0.002197265625
0.0010986328125
-0.00146484375
0.00146484375
-0.00146484375
0.0
0.0
0.0
0.00146484375
0.000732421875
0.00146484375
-0.000732421875
0.0
0.0003662109375
0.0
0.0010986328125
0.0
-0.000732421875
-0.00439453125
0.0029296875
-0.00146484375
0.00439453125
0.00439453125
0.000732421875
0.00146484375
0.00146484375
0.0029296875
-0.0003662109375
0.002197265625
-0.0025634765625
-0.0003662109375
-0.0003662109375
0.00146484375
-0.0003662109375
-0.0252685546875
0.0234375
-0.000732421875
0.0860595703125
0.0311279296875
-0.022705078125
0.0018310546875
-0.09375
-0.00439453125
-0.009521484375
-0.0003662109375
-0.0003662109375
0.0
-0.000732421875
-0.0003662109375
0.0003662109375
-0.0010986328125
0.0
-0.0032958984375
-0.000732421875
-0.0047607421875
0.0010986328125
-0.006591796875
0.0047607421875
-0.006591796875
0.0069580078125
0.0003662109375
0.0029296875
0.0098876953125
-0.000732421875
0.0098876953125
-0.0010986328125
0.003662109375
-0.0003662109375
0.0018310546875
-0.0018310546875
0.0010986328125
-0.0029296875
0.0003662109375
-0.0003662109375
-0.0003662109375
0.000732421875
0.0003662109375
0.0003662109375
0.000732421875
-0.0003662109375
-0.0003662109375
0.000732421875
0.000732421875
0.0
-0.0003662109375
-0.0003662109375
-0.0010986328125
-0.0003662109375
-0.0003662109375
-0.000732421875
-0.0003662109375
0.0003662109375
-0.000732421875
-0.0003662109375
-0.00146484375
-0.0025634765625
-0.003662109375
0.0029296875
-0.0010986328125
0.0054931640625
0.0018310546875
0.0
-0.0003662109375
-0.0010986328125
0.00146484375
-0.002197265625
0.0010986328125
-0.0018310546875
-0.0010986328125
-0.0010986328125
-0.0003662109375
-0.000732421875
-0.0318603515625
0.03515625
0.013916015625
0.0743408203125
0.03369140625
-0.037353515625
-0.01611328125
-0.082763671875
-0.005126953125
-0.0062255859375
-0.000732421875
0.0003662109375
-0.0003662109375
0.0
-0.000732421875
0.0
-0.0025634765625
0.0003662109375
-0.0054931640625
0.00146484375
-0.0062255859375
0.002197265625
-0.008056640625
0.00439453125
-0.0069580078125
0.0069580078125
0.000732421875
0.0040283203125
0.0098876953125
0.0
0.0091552734375
-0.000732421875
0.0029296875
0.0
0.0018310546875
-0.0025634765625
0.0010986328125
-0.0025634765625
-0.000732421875
0.0003662109375
-0.0010986328125
0.00146484375
0.000732421875
0.0025634765625
0.000732421875
0.00146484375
0.0
0.000732421875
0.000732421875
0.0003662109375
0.0018310546875
0.0010986328125
0.00146484375
0.0010986328125
-0.0018310546875
-0.0003662109375
-0.00146484375
0.0
0.0
0.0
-0.000732421875
-0.000732421875
-0.003662109375
-0.0018310546875
-0.00146484375
0.00439453125
0.003662109375
0.0062255859375
0.0
0.000732421875
0.0018310546875
-0.0029296875
0.002197265625
-0.002197265625
0.0
0.0003662109375
0.0
-0.00146484375
-0.0106201171875
0.00146484375
-0.0640869140625
0.152740478515625
0.0142822265625
0.0091552734375
0.0633544921875
-0.161163330078125
-0.0062255859375
-0.0194091796875
0.0
0.0003662109375
-0.000732421875
-0.000732421875
-0.000732421875
0.0
-0.0010986328125
0.0003662109375
-0.00439453125
0.0018310546875
-0.006591796875
0.002197265625
-0.0076904296875
0.0040283203125
-0.006591796875
0.0069580078125
-0.0018310546875
0.005859375
0.0084228515625
0.0010986328125
0.010986328125
-0.0025634765625
0.0047607421875
-0.000732421875
0.0029296875
-0.00146484375
0.0018310546875
-0.0018310546875
0.0
0.0003662109375
-0.0003662109375
0.0018310546875
0.00146484375
0.002197265625
0.0029296875
0.000732421875
0.00146484375
0.0003662109375
0.0003662109375
0.0
0.000732421875
0.0010986328125
0.0
0.0010986328125
0.0003662109375
-0.0003662109375
0.0
0.0
0.0
0.0003662109375
0.00146484375
-0.0010986328125
-0.0010986328125
-0.0032958984375
-0.000732421875
0.00439453125
0.002197265625
0.0062255859375
0.0
-0.000732421875
0.002197265625
-0.0029296875
0.0029296875
-0.002197265625
-0.0003662109375
0.0
-0.0003662109375
-0.000732421875
-0.006591796875
-0.002197265625
-0.0714111328125
0.158233642578125
0.0142822265625
0.015380859375
0.0721435546875
-0.167388916015625
-0.0076904296875
-0.0230712890625
-0.0003662109375
-0.000732421875
-0.0003662109375
-0.0010986328125
-0.0003662109375
-0.0003662109375
-0.0018310546875
0.0
-0.0032958984375
-0.0003662109375
-0.005126953125
-0.0003662109375
-0.0076904296875
0.0040283203125
-0.0069580078125
0.0062255859375
-0.0025634765625
0.00439453125
0.006591796875
0.00146484375
0.01025390625
-0.0010986328125
0.0054931640625
-0.0003662109375
0.002197265625
-0.002197265625
0.0010986328125
-0.0025634765625
-0.000732421875
0.0
-0.00146484375
0.00146484375
0.0003662109375
0.00146484375
0.000732421875
0.0010986328125
0.0010986328125
0.000732421875
0.000732421875
0.0
0.0
-0.0003662109375
0.0
-0.0003662109375
-0.0010986328125
0.000732421875
-0.0010986328125
-0.0003662109375
0.0
-0.0003662109375
-0.0003662109375
-0.0010986328125
-0.0040283203125
0.0
-0.0010986328125
0.00439453125
0.0025634765625
0.0032958984375
-0.0003662109375
0.000732421875
0.002197265625
-0.0032958984375
0.002197265625
-0.0029296875
-0.000732421875
-0.000732421875
-0.000732421875
-0.00146484375
-0.021240234375
0.01611328125
-0.0260009765625
0.1131591796875
0.024169921875
-0.0120849609375
0.0252685546875
-0.1219482421875
-0.0040283203125
-0.01171875
-0.000732421875
0.000732421875
-0.0010986328125
-0.000732421875
-0.00146484375
0.0003662109375
-0.003662109375
0.000732421875
-0.0040283203125
0.000732421875
-0.005126953125
0.00146484375
-0.0076904296875
0.0054931640625
-0.00732421875
0.0069580078125
-0.0003662109375
0.0040283203125
0.01025390625
-0.0003662109375
0.01025390625
-0.0010986328125
0.0040283203125
-0.0003662109375
0.00146484375
-0.002197265625
0.0018310546875
-0.00146484375
0.0018310546875
-0.0003662109375
0.0
0.0018310546875
0.0
0.002197265625
0.0
0.00146484375
0.0003662109375
0.0003662109375
0.0003662109375
-0.000732421875
0.0003662109375
0.0010986328125
0.0010986328125
0.0003662109375
0.000732421875
0.0003662109375
0.0003662109375
0.000732421875
0.0
0.000732421875
0.0010986328125
-0.0018310546875
-0.00146484375
-0.0029296875
-0.00146484375
0.005126953125
0.0032958984375
0.005859375
0.0003662109375
0.0010986328125
0.0025634765625
-0.0029296875
0.0040283203125
-0.0029296875
0.0003662109375
-0.000732421875
0.0
-0.0010986328125
-0.010986328125
0.002197265625
-0.0556640625
0.142822265625
0.0179443359375
0.0076904296875
0.05712890625
-0.151611328125
-0.0062255859375
-0.0179443359375
-0.000732421875
-0.0003662109375
-0.000732421875
-0.000732421875
-0.0003662109375
0.0
-0.00146484375
-0.0003662109375
-0.0032958984375
0.0
-0.0047607421875
0.000732421875
-0.0069580078125
0.00439453125
-0.00732421875
0.0062255859375
-0.0018310546875
0.003662109375
0.0076904296875
-0.0003662109375
0.01025390625
-0.002197265625
0.0054931640625
-0.000732421875
0.0018310546875
-0.00146484375
0.000732421875
-0.0018310546875
-0.0003662109375
-0.0003662109375
-0.00146484375
0.00146484375
0.0
0.000732421875
0.000732421875
0.0
0.0003662109375
0.0003662109375
0.0003662109375
0.0
0.0003662109375
0.0
-0.0003662109375
-0.000732421875
-0.0003662109375
0.0
0.0
0.0
-0.00146484375
0.0
-0.0032958984375
-0.00439453125
-0.0032958984375
0.0047607421875
0.0010986328125
0.0091552734375
0.000732421875
-0.00146484375
0.000732421875
-0.0029296875
0.002197265625
-0.0010986328125
0.0
0.0
-0.0003662109375
-0.0018310546875
-0.0010986328125
-0.000732421875
-0.0714111328125
0.101806640625
0.0201416015625
0.0465087890625
0.0706787109375
-0.1083984375
-0.021240234375
-0.054931640625
-0.0010986328125
-0.000732421875
-0.000732421875
-0.0003662109375
-0.0010986328125
0.0003662109375
-0.00146484375
0.0003662109375
-0.0032958984375
-0.0003662109375
-0.0047607421875
0.0018310546875
-0.00732421875
0.0040283203125
-0.0084228515625
0.006591796875
-0.0054931640625
0.005859375
0.00439453125
0.002197265625
0.01025390625
-0.0010986328125
0.0062255859375
-0.000732421875
0.0032958984375
-0.00146484375
0.0025634765625
-0.0025634765625
0.00146484375
-0.00146484375
-0.0018310546875
0.000732421875
0.0
0.0029296875
0.0018310546875
0.0018310546875
0.0003662109375
0.000732421875
0.0003662109375
0.0
0.0003662109375
0.0003662109375
0.0
0.0003662109375
-0.0003662109375
0.0
0.0003662109375
0.0003662109375
-0.0003662109375
0.0003662109375
-0.000732421875
-0.000732421875
-0.0025634765625
-0.0010986328125
0.0
0.003662109375
0.0029296875
0.0040283203125
0.0
0.0018310546875
0.0025634765625
-0.002197265625
0.0025634765625
-0.003662109375
-0.0003662109375
0.0
-0.000732421875
-0.000732421875
-0.0172119140625
0.009521484375
-0.0435791015625
0.13037109375
0.0208740234375
-0.0003662109375
0.0428466796875
-0.1365966796875
-0.005126953125
-0.0157470703125
0.000732421875
0.0003662109375
-0.0010986328125
0.00146484375
-0.0018310546875
0.0018310546875
-0.002197265625
0.0003662109375
-0.0032958984375
0.0
-0.003662109375
0.0
-0.0062255859375
0.00439453125
-0.005859375
0.0069580078125
0.0
0.003662109375
0.01025390625
-0.0003662109375
0.010986328125
-0.0025634765625
0.00439453125
-0.000732421875
0.0025634765625
-0.00146484375
0.002197265625
-0.0029296875
0.0010986328125
-0.0010986328125
-0.0003662109375
0.00146484375
0.000732421875
0.0025634765625
0.0010986328125
0.0010986328125
0.000732421875
0.0
0.0003662109375
-0.0010986328125
0.0003662109375
0.0
0.0003662109375
0.0
-0.0003662109375
0.0
0.0003662109375
0.0010986328125
-0.0003662109375
-0.000732421875
-0.0029296875
-0.0040283203125
-0.002197265625
0.0029296875
0.0018310546875
0.00732421875
0.0003662109375
-0.0003662109375
0.00146484375
-0.0025634765625
0.0025634765625
-0.0010986328125
-0.0003662109375
-0.0003662109375
0.0
-0.00146484375
-0.0003662109375
-0.0040283203125
-0.0823974609375
0.129638671875
0.013916015625
0.03076171875
0.081298828125
-0.1380615234375
-0.0157470703125
-0.0377197265625
-0.000732421875
-0.00146484375
0.0
-0.0010986328125
-0.00146484375
-0.0003662109375
-0.0018310546875
0.00146484375
-0.0032958984375
0.0003662109375
-0.0054931640625
0.000732421875
-0.0069580078125
0.0029296875
-0.0076904296875
0.005859375
-0.00439453125
0.0062255859375
0.0054931640625
0.0018310546875
0.0113525390625
-0.00146484375
0.005859375
-0.0010986328125
0.00146484375
-0.0003662109375
0.0018310546875
-0.0025634765625
0.0003662109375
-0.0018310546875
-0.00146484375
0.00146484375
-0.000732421875
0.002197265625
0.000732421875
0.000732421875
0.000732421875
0.0
0.000732421875
0.0003662109375
0.0003662109375
-0.000732421875
0.0003662109375
-0.000732421875
0.0003662109375
0.0
-0.0003662109375
0.0010986328125
-0.0003662109375
0.000732421875
-0.0025634765625
-0.0032958984375
-0.0025634765625
0.005859375
0.0010986328125
0.005859375
0.0010986328125
-0.0025634765625
0.0010986328125
-0.0010986328125
0.0032958984375
-0.0018310546875
0.0010986328125
-0.0003662109375
-0.000732421875
0.0
0.0003662109375
-0.00146484375
-0.044677734375
0.05126953125
0.0347900390625
0.0531005859375
0.046875
-0.05712890625
-0.035888671875
-0.0589599609375
-0.0029296875
-0.0018310546875
0.0
-0.0003662109375
0.0
-0.0003662109375
-0.0010986328125
0.0
-0.0025634765625
0.000732421875
-0.0040283203125
0.00146484375
-0.005126953125
0.0029296875
-0.0062255859375
0.0047607421875
-0.005126953125
0.0062255859375
0.0032958984375
0.002197265625
0.0113525390625
-0.0003662109375
0.0091552734375
-0.000732421875
0.0047607421875
-0.0018310546875
0.003662109375
-0.0025634765625
0.00146484375
-0.0032958984375
0.0003662109375
-0.0003662109375
0.0
0.00146484375
0.0003662109375
0.0018310546875
0.0018310546875
0.000732421875
0.000732421875
0.0
0.0
0.000732421875
0.0
0.0003662109375
0.0
0.0
-0.0003662109375
-0.0003662109375
-0.000732421875
0.0
-0.0010986328125
-0.0054931640625
-0.0025634765625
0.0040283203125
0.0010986328125
0.0087890625
0.000732421875
-0.0018310546875
0.000732421875
-0.0029296875
0.0025634765625
-0.002197265625
-0.0003662109375
0.0
-0.000732421875
-0.0010986328125
-0.0003662109375
-0.0010986328125
-0.0703125
0.0999755859375
0.0208740234375
0.046142578125
0.0703125
-0.10693359375
-0.0223388671875
-0.0556640625
-0.002197265625
-0.002197265625
-0.0010986328125
-0.0003662109375
-0.0003662109375
-0.000732421875
-0.00146484375
-0.0003662109375
-0.0025634765625
0.000732421875
-0.0040283203125
0.000732421875
-0.0069580078125
0.0018310546875
-0.0076904296875
0.0069580078125
-0.0054931640625
0.006591796875
0.0032958984375
0.0018310546875
0.0098876953125
-0.000732421875
0.00732421875
0.0
0.0029296875
-0.000732421875
0.0003662109375
-0.0018310546875
0.0003662109375
-0.0003662109375
-0.000732421875
0.000732421875
-0.00146484375
0.00146484375
-0.0003662109375
0.00146484375
0.000732421875
0.0010986328125
0.0010986328125
0.0
-0.000732421875
0.0003662109375
-0.000732421875
0.000732421875
-0.0003662109375
0.0
-0.0010986328125
0.0
-0.0010986328125
0.0003662109375
-0.00146484375
-0.00146484375
-0.0032958984375
0.00146484375
-0.000732421875
0.005126953125
0.002197265625
0.00146484375
0.0
0.0
0.002197265625
-0.002197265625
0.002197265625
-0.0032958984375
-0.000732421875
-0.000732421875
-0.0010986328125
-0.0003662109375
-0.0223388671875
0.016845703125
-0.024169921875
0.1116943359375
0.0245361328125
-0.0128173828125
0.0238037109375
-0.1201171875
-0.003662109375
-0.0128173828125
-0.0003662109375
0.0003662109375
0.0
-0.0003662109375
-0.0003662109375
0.0
-0.0029296875
0.0
-0.0054931640625
0.00146484375
-0.005859375
0.0025634765625
-0.00732421875
0.0047607421875
-0.008056640625
0.0076904296875
-0.000732421875
0.0047607421875
0.0098876953125
0.0
0.0091552734375
-0.0010986328125
0.00439453125
0.0
0.00439453125
-0.0018310546875
0.002197265625
-0.002197265625
0.0
-0.0010986328125
-0.00146484375
0.002197265625
0.0
0.0040283203125
0.002197265625
0.0018310546875
0.00146484375
0.00146484375
0.0010986328125
-0.0003662109375
0.0010986328125
0.0
0.0010986328125
0.0003662109375
0.0
0.0010986328125
0.0003662109375
0.00146484375
0.0003662109375
-0.0010986328125
0.0
-0.0010986328125
-0.00146484375
-0.0025634765625
-0.0010986328125
0.005126953125
0.0029296875
0.0069580078125
0.000732421875
0.0
0.0025634765625
-0.003662109375
0.0029296875
-0.003662109375
-0.000732421875
0.0
0.0003662109375
-0.00146484375
-0.0047607421875
-0.0032958984375
-0.072509765625
0.157501220703125
0.01318359375
0.0164794921875
0.0728759765625
-0.165191650390625
-0.0084228515625
-0.0223388671875
0.0
-0.0010986328125
0.0
-0.000732421875
-0.0003662109375
0.0003662109375
-0.0018310546875
-0.0003662109375
-0.0032958984375
0.000732421875
-0.00439453125
0.000732421875
-0.00732421875
0.0032958984375
-0.008056640625
0.006591796875
-0.003662109375
0.0047607421875
0.008056640625
0.0
0.0106201171875
-0.002197265625
0.0040283203125
-0.0003662109375
0.002197265625
-0.0018310546875
0.0018310546875
-0.0029296875
0.0003662109375
-0.0010986328125
-0.00146484375
0.00146484375
-0.0003662109375
0.00146484375
0.0
0.0
0.0003662109375
0.0
0.00146484375
-0.000732421875
-0.0003662109375
0.0003662109375
-0.00146484375
0.0
-0.0003662109375
-0.0003662109375
-0.0003662109375
0.0010986328125
-0.000732421875
0.0003662109375
0.0
-0.0010986328125
-0.0032958984375
-0.003662109375
-0.002197265625
0.0032958984375
0.0029296875
0.0069580078125
-0.000732421875
-0.000732421875
0.0010986328125
-0.0032958984375
0.0025634765625
-0.00146484375
-0.0003662109375
-0.000732421875
-0.000732421875
-0.000732421875
-0.0003662109375
-0.005859375
-0.0889892578125
0.161529541015625
0.0098876953125
0.0234375
0.088623046875
-0.170318603515625
-0.01171875
-0.0260009765625
-0.0018310546875
0.0
-0.00146484375
-0.000732421875
0.0
0.0
-0.0003662109375
-0.0010986328125
-0.0032958984375
0.0
-0.005859375
0.0018310546875
-0.0069580078125
0.0032958984375
-0.0069580078125
0.0062255859375
-0.003662109375
0.006591796875
0.0062255859375
0.0018310546875
0.010986328125
-0.002197265625
0.006591796875
-0.0003662109375
0.0025634765625
0.0
0.0010986328125
-0.0010986328125
0.000732421875
-0.000732421875
-0.000732421875
0.0025634765625
-0.000732421875
0.0018310546875
0.00146484375
0.000732421875
0.0018310546875
0.0018310546875
0.0
0.0003662109375
0.000732421875
0.0003662109375
0.00146484375
-0.0003662109375
0.0010986328125
0.0
0.000732421875
0.0003662109375
0.0003662109375
0.0
0.000732421875
0.0003662109375
-0.002197265625
-0.002197265625
-0.00146484375
0.0047607421875
0.002197265625
0.00732421875
0.00146484375
-0.0003662109375
0.0032958984375
-0.0040283203125
0.0029296875
-0.0010986328125
0.0003662109375
0.0018310546875
0.0003662109375
-0.0018310546875
0.00146484375
-0.00439453125
-0.076171875
0.123779296875
0.01611328125
0.0333251953125
0.0780029296875
-0.1314697265625
-0.0164794921875
-0.03955078125
-0.00146484375
-0.0018310546875
-0.0003662109375
-0.00146484375
0.0003662109375
-0.0010986328125
-0.000732421875
-0.0003662109375
-0.002197265625
-0.0003662109375
-0.003662109375
-0.0003662109375
-0.005126953125
0.0018310546875
-0.00439453125
0.005126953125
-0.0040283203125
0.0062255859375
0.003662109375
0.0025634765625
0.009521484375
-0.0003662109375
0.0062255859375
0.0
0.0040283203125
-0.00146484375
0.0018310546875
-0.0018310546875
0.000732421875
-0.00146484375
0.0
0.0003662109375
0.0
0.0010986328125
0.0
0.00146484375
0.0
0.000732421875
0.0003662109375
-0.00146484375
0.0003662109375
0.000732421875
0.0
0.000732421875
-0.0003662109375
0.0
-0.0003662109375
0.0
-0.0010986328125
0.0
-0.0010986328125
-0.00146484375
-0.0029296875
-0.0029296875
-0.0018310546875
0.00439453125
0.0010986328125
0.0062255859375
-0.000732421875
0.000732421875
0.00146484375
-0.0025634765625
0.0018310546875
-0.00146484375
-0.000732421875
-0.0010986328125
-0.0018310546875
-0.002197265625
-0.0076904296875
-0.0025634765625
-0.073974609375
0.161895751953125
0.0120849609375
0.0157470703125
0.0721435546875
-0.171051025390625
-0.0087890625
-0.0230712890625
-0.0018310546875
-0.000732421875
-0.00146484375
-0.0003662109375
-0.00146484375
0.0
-0.0029296875
0.0
-0.0047607421875
0.0003662109375
-0.006591796875
0.0010986328125
-0.0076904296875
0.003662109375
-0.0076904296875
0.006591796875
-0.00439453125
0.006591796875
0.0062255859375
0.0018310546875
0.009521484375
-0.000732421875
0.0047607421875
0.0003662109375
0.00146484375
-0.000732421875
0.0003662109375
-0.00146484375
0.0003662109375
-0.0010986328125
-0.00146484375
0.002197265625
-0.0010986328125
0.0025634765625
0.0003662109375
0.000732421875
0.0003662109375
0.000732421875
-0.0003662109375
0.000732421875
0.0
0.000732421875
-0.0003662109375
0.0
-0.0003662109375
0.000732421875
0.0010986328125
0.0003662109375
0.0003662109375
0.000732421875
-0.0010986328125
-0.00146484375
-0.0032958984375
-0.0003662109375
-0.0003662109375
0.005126953125
0.0029296875
0.0040283203125
0.0003662109375
0.0018310546875
0.0018310546875
-0.0018310546875
0.0025634765625
-0.002197265625
-0.0003662109375
0.0
-0.0003662109375
-0.0003662109375
-0.0146484375
0.0069580078125
-0.044677734375
0.1343994140625
0.0205078125
0.002197265625
0.0465087890625
-0.1417236328125
-0.003662109375
-0.01611328125
0.0
0.0003662109375
0.0
0.0010986328125
0.0
0.0003662109375
0.0
-0.000732421875
-0.002197265625
0.000732421875
-0.0054931640625
0.0018310546875
-0.006591796875
0.0047607421875
-0.0054931640625
0.006591796875
0.000732421875
0.005126953125
0.009521484375
0.0
0.01025390625
0.0
0.005126953125
0.0003662109375
0.0025634765625
-0.0029296875
0.0025634765625
-0.0032958984375
0.0010986328125
-0.002197265625
0.0003662109375
0.0018310546875
0.000732421875
0.00146484375
0.000732421875
0.0010986328125
0.00146484375
0.0
0.0
-0.0003662109375
0.000732421875
0.0003662109375
0.0003662109375
-0.00146484375
0.0
0.0
0.0010986328125
0.0003662109375
0.000732421875
-0.0003662109375
0.0
-0.0032958984375
-0.0032958984375
0.003662109375
-0.0003662109375
0.0054931640625
0.002197265625
0.0
0.0010986328125
0.0
0.0032958984375
-0.0029296875
0.0010986328125
-0.0010986328125
-0.00146484375
-0.00146484375
-0.000732421875
-0.00146484375
-0.0303955078125
0.032958984375
0.01025390625
0.0787353515625
0.0333251953125
-0.034423828125
-0.010986328125
-0.088623046875
-0.003662109375
-0.0084228515625
-0.0003662109375
-0.000732421875
-0.0018310546875
-0.0003662109375
-0.0018310546875
-0.000732421875
-0.0025634765625
0.0003662109375
-0.00439453125
0.0
-0.005126953125
-0.0003662109375
-0.0076904296875
0.0040283203125
-0.0087890625
0.0062255859375
-0.000732421875
0.0047607421875
0.0087890625
0.0003662109375
0.008056640625
-0.000732421875
0.0029296875
-0.000732421875
0.000732421875
-0.002197265625
-0.0003662109375
-0.00146484375
-0.0010986328125
0.0
-0.0010986328125
0.0018310546875
-0.000732421875
0.00146484375
0.0
0.0010986328125
0.0003662109375
0.0003662109375
0.0
0.0
0.0
0.0
-0.000732421875
0.000732421875
-0.000732421875
0.0010986328125
-0.0003662109375
-0.0003662109375
-0.000732421875
0.000732421875
-0.0003662109375
-0.0029296875
-0.0040283203125
0.0040283203125
-0.00146484375
0.005859375
0.0040283203125
-0.0010986328125
0.0018310546875
-0.0003662109375
0.00146484375
-0.0018310546875
0.0018310546875
-0.0010986328125
0.0
-0.0010986328125
-0.0003662109375
-0.0003662109375
-0.0325927734375
0.0362548828125
0.0164794921875
0.0736083984375
0.035888671875
-0.038818359375
-0.016845703125
-0.0816650390625
-0.0040283203125
-0.0032958984375
0.0
0.0010986328125
0.0010986328125
0.0
-0.0010986328125
0.0010986328125
-0.0018310546875
0.0003662109375
-0.002197265625
-0.00146484375
-0.00439453125
-0.0003662109375
-0.005126953125
0.0047607421875
-0.005126953125
0.00732421875
0.0010986328125
0.00439453125
0.01025390625
-0.0010986328125
0.009521484375
-0.000732421875
0.003662109375
0.0
0.0025634765625
-0.00146484375
0.0025634765625
-0.0018310546875
0.000732421875
-0.00146484375
0.000732421875
0.0003662109375
0.0003662109375
0.0018310546875
0.000732421875
0.0003662109375
0.00146484375
-0.000732421875
0.0003662109375
0.000732421875
0.0
0.000732421875
0.0003662109375
0.0
0.0003662109375
0.0
-0.0003662109375
0.00146484375
0.000732421875
0.0
-0.0010986328125
-0.0062255859375
-0.0029296875
0.005859375
0.0003662109375
0.0087890625
0.000732421875
-0.0018310546875
0.0025634765625
-0.0025634765625
0.0040283203125
-0.0010986328125
0.0010986328125
0.000732421875
-0.0010986328125
-0.0018310546875
0.0
-0.0018310546875
-0.0640869140625
0.090087890625
0.021240234375
0.053466796875
0.064453125
-0.0977783203125
-0.0238037109375
-0.0626220703125
-0.0010986328125
-0.0025634765625
0.0003662109375
-0.000732421875
-0.000732421875
0.0
-0.0018310546875
0.000732421875
-0.0032958984375
0.0003662109375
-0.0047607421875
-0.0010986328125
-0.005859375
0.0010986328125
-0.00732421875
0.0054931640625
-0.0069580078125
0.0069580078125
0.0018310546875
0.00439453125
0.009521484375
0.0
0.0062255859375
-0.0003662109375
0.00146484375
-0.0010986328125
0.000732421875
-0.002197265625
0.0003662109375
-0.002197265625
-0.00146484375
0.000732421875
-0.0010986328125
0.0018310546875
-0.0003662109375
0.0010986328125
-0.0003662109375
0.00146484375
0.0003662109375
-0.0003662109375
0.0
0.0
-0.000732421875
0.0
-0.0010986328125
0.0
-0.00146484375
0.0
-0.00146484375
0.000732421875
-0.000732421875
-0.0010986328125
-0.0029296875
0.0010986328125
0.0
0.005126953125
0.0025634765625
0.0025634765625
0.0
0.000732421875
0.00146484375
-0.0025634765625
0.00146484375
-0.0018310546875
0.0
-0.000732421875
-0.0010986328125
-0.00146484375
-0.0230712890625
0.018310546875
-0.0201416015625
0.1109619140625
0.0263671875
-0.0128173828125
0.019775390625
-0.1182861328125
-0.0047607421875
-0.01171875
0.0
0.0010986328125
0.0003662109375
-0.000732421875
0.0
0.0
-0.0025634765625
0.0010986328125
-0.0032958984375
0.000732421875
-0.0047607421875
0.0010986328125
-0.0069580078125
0.0054931640625
-0.0062255859375
0.00732421875
0.0003662109375
0.0054931640625
0.0106201171875
0.000732421875
0.01025390625
-0.00146484375
0.005126953125
0.0
0.0025634765625
-0.002197265625
0.0032958984375
-0.0032958984375
0.002197265625
-0.00146484375
0.0
0.00146484375
0.0018310546875
0.000732421875
0.00146484375
0.000732421875
0.0
0.000732421875
0.0
0.0003662109375
0.000732421875
0.0010986328125
0.0003662109375
-0.000732421875
0.0003662109375
-0.0003662109375
0.0010986328125
0.000732421875
0.000732421875
-0.0010986328125
-0.0018310546875
-0.005126953125
-0.00146484375
0.0040283203125
0.0018310546875
0.0084228515625
0.0010986328125
-0.0018310546875
0.0029296875
-0.0032958984375
0.0032958984375
-0.0018310546875
0.0
0.0
0.0
-0.000732421875
-0.0010986328125
-0.0025634765625
-0.0772705078125
0.123046875
0.0157470703125
0.0347900390625
0.0758056640625
-0.1300048828125
-0.016845703125
-0.043212890625
-0.000732421875
-0.0018310546875
0.0
-0.000732421875
-0.000732421875
-0.0010986328125
-0.0018310546875
-0.0003662109375
-0.00439453125
-0.0003662109375
-0.005859375
0.0
-0.00732421875
0.00146484375
-0.0084228515625
0.0054931640625
-0.005859375
0.005859375
0.003662109375
0.0029296875
0.01025390625
-0.00146484375
0.005859375
-0.000732421875
0.00146484375
0.0
0.0
-0.002197265625
0.0
-0.0010986328125
-0.00146484375
0.0003662109375
-0.0018310546875
0.0018310546875
0.000732421875
0.000732421875
0.0003662109375
0.000732421875
-0.0003662109375
0.0010986328125
0.0
-0.000732421875
0.0
-0.0003662109375
0.0
0.0
-0.0003662109375
-0.000732421875
-0.0003662109375
-0.000732421875
-0.0010986328125
0.0
-0.003662109375
-0.0029296875
-0.0018310546875
0.0032958984375
0.0029296875
0.008056640625
-0.00146484375
-0.000732421875
0.0010986328125
-0.003662109375
0.0040283203125
-0.002197265625
-0.0003662109375
-0.000732421875
-0.0003662109375
-0.000732421875
-0.0010986328125
-0.005859375
-0.0867919921875
0.166290283203125
0.01171875
0.02197265625
0.08642578125
-0.174346923828125
-0.01171875
-0.02490234375
-0.0003662109375
0.00146484375
-0.00146484375
0.000732421875
-0.0018310546875
0.0003662109375
-0.00146484375
0.000732421875
-0.0032958984375
0.0010986328125
-0.005126953125
0.0018310546875
-0.006591796875
0.0032958984375
-0.006591796875
0.008056640625
-0.003662109375
0.006591796875
0.0076904296875
0.0003662109375
0.012451171875
-0.00146484375
0.0069580078125
0.0003662109375
0.00439453125
-0.0010986328125
0.0018310546875
-0.0025634765625
0.00146484375
-0.000732421875
0.0010986328125
0.0003662109375
0.0
0.0018310546875
0.00146484375
0.0010986328125
0.0018310546875
0.0003662109375
0.0018310546875
0.0
0.0025634765625
0.0
0.00146484375
0.0018310546875
0.0003662109375
0.0010986328125
0.0003662109375
0.0
0.00146484375
-0.000732421875
0.00146484375
-0.0010986328125
-0.0018310546875
-0.0025634765625
-0.00146484375
0.003662109375
0.0018310546875
0.0076904296875
0.0
0.00146484375
0.0025634765625
-0.0029296875
0.0025634765625
-0.0032958984375
-0.0010986328125
-0.0010986328125
0.0
-0.00146484375
-0.0047607421875
-0.0032958984375
-0.07177734375
0.158599853515625
0.0128173828125
0.0186767578125
0.07177734375
-0.166656494140625
-0.0087890625
-0.02490234375
-0.0003662109375
-0.000732421875
-0.0003662109375
-0.00146484375
-0.00146484375
-0.0003662109375
-0.002197265625
0.0
-0.0029296875
-0.000732421875
-0.005126953125
0.0
-0.008056640625
0.0029296875
-0.00732421875
0.0062255859375
-0.0032958984375
0.005859375
0.0062255859375
0.0018310546875
0.0091552734375
-0.00146484375
0.0040283203125
-0.000732421875
0.0025634765625
-0.0018310546875
0.000732421875
-0.002197265625
-0.0010986328125
-0.0003662109375
-0.0018310546875
0.0010986328125
-0.0010986328125
0.0018310546875
-0.0003662109375
0.0003662109375
0.0
0.0003662109375
0.0
0.0
-0.0010986328125
0.0003662109375
-0.0010986328125
0.000732421875
-0.0010986328125
0.0
-0.0003662109375
-0.0003662109375
-0.0003662109375
-0.00146484375
-0.002197265625
-0.0040283203125
-0.0032958984375
0.00439453125
0.0
0.0076904296875
0.0018310546875
-0.0018310546875
0.00146484375
-0.0018310546875
0.00146484375
0.0
0.0
-0.0010986328125
0.0
-0.0018310546875
0.0
-0.002197265625
-0.0582275390625
0.0791015625
0.0252685546875
0.059326171875
0.05859375
-0.0845947265625
-0.0263671875
-0.0662841796875
-0.0018310546875
-0.0025634765625
-0.0003662109375
0.000732421875
-0.0018310546875
0.0003662109375
-0.002197265625
0.0
-0.0018310546875
-0.000732421875
-0.0047607421875
0.000732421875
-0.006591796875
0.0025634765625
-0.0076904296875
0.005859375
-0.005859375
0.0076904296875
0.003662109375
0.0029296875
0.009521484375
-0.000732421875
0.0062255859375
-0.0010986328125
0.0029296875
-0.000732421875
0.0018310546875
-0.002197265625
0.00146484375
-0.0010986328125
0.0
0.00146484375
-0.000732421875
0.0025634765625
0.0003662109375
0.002197265625
0.0
0.00146484375
0.000732421875
0.0010986328125
0.0010986328125
0.0003662109375
0.0003662109375
0.000732421875
0.0018310546875
0.000732421875
0.00146484375
0.0003662109375
0.0
0.0003662109375
0.0
-0.000732421875
-0.003662109375
-0.0029296875
-0.0029296875
0.0047607421875
0.003662109375
0.00732421875
0.0029296875
-0.000732421875
0.0029296875
-0.0029296875
0.0040283203125
0.0
0.00146484375
0.00146484375
0.0018310546875
-0.0018310546875
0.00146484375
-0.0029296875
-0.0732421875
0.107666015625
0.0201416015625
0.041015625
0.0732421875
-0.1131591796875
-0.0201416015625
-0.0479736328125
0.0
-0.00146484375
0.0
-0.0003662109375
0.0
-0.00146484375
0.0
0.0
-0.002197265625
0.0
-0.003662109375
-0.0003662109375
-0.003662109375
0.0010986328125
-0.0062255859375
0.005126953125
-0.0047607421875
0.0062255859375
0.00439453125
0.0025634765625
0.0106201171875
-0.0010986328125
0.0069580078125
-0.0010986328125
0.003662109375
-0.0010986328125
0.0025634765625
-0.0029296875
0.0003662109375
-0.000732421875
-0.0003662109375
0.0003662109375
0.0
0.0003662109375
0.000732421875
0.00146484375
-0.0003662109375
0.0003662109375
0.0
-0.0003662109375
0.000732421875
-0.0003662109375
-0.0003662109375
0.0003662109375
0.0
0.0
0.0
0.0003662109375
0.0
-0.0003662109375
-0.0010986328125
-0.0018310546875
-0.00439453125
-0.003662109375
-0.0025634765625
0.0032958984375
0.002197265625
0.0076904296875
-0.0003662109375
-0.0003662109375
0.000732421875
-0.0029296875
0.0025634765625
-0.00146484375
-0.0010986328125
-0.0010986328125
-0.0010986328125
-0.0018310546875
-0.00146484375
-0.005126953125
-0.0889892578125
0.157135009765625
0.0113525390625
0.0234375
0.087158203125
-0.165191650390625
-0.0128173828125
-0.0281982421875
-0.0010986328125
-0.000732421875
-0.0003662109375
-0.0010986328125
-0.00146484375
-0.000732421875
-0.0025634765625
-0.000732421875
-0.0029296875
-0.000732421875
-0.0047607421875
0.000732421875
-0.0069580078125
0.0025634765625
-0.008056640625
0.0076904296875
-0.00439453125
0.00732421875
0.005126953125
0.0029296875
0.009521484375
0.0
0.005859375
-0.002197265625
0.0029296875
-0.00146484375
0.0010986328125
-0.002197265625
0.0
-0.00146484375
0.0
0.0010986328125
0.0
0.0018310546875
0.0
0.0010986328125
0.0
0.000732421875
0.0003662109375
0.0003662109375
0.0010986328125
-0.0003662109375
0.0003662109375
0.00146484375
-0.000732421875
0.000732421875
0.0
0.000732421875
0.0
0.00146484375
-0.000732421875
0.0
-0.0029296875
-0.0040283203125
-0.0010986328125
0.0032958984375
0.0025634765625
0.0084228515625
0.0
-0.0003662109375
0.0025634765625
-0.0029296875
0.003662109375
-0.00146484375
0.0
0.0003662109375
0.0010986328125
-0.000732421875
0.0010986328125
-0.00146484375
-0.0750732421875
0.110595703125
0.019775390625
0.0384521484375
0.076171875
-0.1168212890625
-0.0194091796875
-0.046142578125
-0.000732421875
-0.0003662109375
-0.000732421875
0.00146484375
-0.000732421875
0.0
-0.0003662109375
0.0
-0.0018310546875
-0.000732421875
-0.0032958984375
0.0003662109375
-0.005859375
0.0029296875
-0.006591796875
0.0054931640625
-0.00439453125
0.0062255859375
0.00439453125
0.0025634765625
0.01171875
-0.0010986328125
0.00732421875
-0.0018310546875
0.003662109375
-0.002197265625
0.0018310546875
-0.0025634765625
0.0003662109375
-0.00146484375
-0.0003662109375
0.0003662109375
-0.0003662109375
0.002197265625
0.00146484375
0.0003662109375
0.0010986328125
0.0
0.000732421875
0.0010986328125
-0.000732421875
0.0003662109375
0.0
0.0
0.0010986328125
-0.0003662109375
0.0003662109375
0.0
0.0003662109375
-0.0003662109375
-0.000732421875
-0.000732421875
-0.0025634765625
-0.003662109375
-0.0018310546875
0.003662109375
0.000732421875
0.0084228515625
-0.0010986328125
-0.0010986328125
0.002197265625
-0.0040283203125
0.0032958984375
-0.0018310546875
-0.000732421875
-0.0003662109375
-0.000732421875
-0.00146484375
-0.0029296875
-0.005859375
-0.085693359375
0.168853759765625
0.0106201171875
0.0205078125
0.0845947265625
-0.177642822265625
-0.0098876953125
-0.0252685546875
-0.00146484375
0.0003662109375
-0.0010986328125
0.0
-0.0010986328125
-0.0003662109375
-0.002197265625
-0.0003662109375
-0.003662109375
0.0
-0.005126953125
0.0010986328125
-0.00732421875
0.0029296875
-0.0076904296875
0.0069580078125
-0.0040283203125
0.00732421875
0.005126953125
0.002197265625
0.01025390625
-0.00146484375
0.005859375
-0.0010986328125
0.00146484375
-0.00146484375
0.000732421875
-0.002197265625
0.000732421875
-0.000732421875
-0.000732421875
0.0010986328125
-0.000732421875
0.002197265625
0.0003662109375
0.00146484375
0.0
0.00146484375
0.0
0.0003662109375
0.0
0.0
0.0003662109375
0.0010986328125
0.0010986328125
0.0
0.0003662109375
0.0
0.0
0.0
-0.0003662109375
-0.0010986328125
-0.0029296875
-0.003662109375
-0.0018310546875
0.00439453125
0.0018310546875
0.008056640625
-0.000732421875
0.000732421875
0.0018310546875
-0.0032958984375
0.0029296875
-0.0025634765625
-0.000732421875
0.0
-0.000732421875
-0.000732421875
-0.0062255859375
-0.0025634765625
-0.0794677734375
0.167755126953125
0.0120849609375
0.01611328125
0.0791015625
-0.175811767578125
-0.008056640625
-0.02197265625
-0.0003662109375
-0.0003662109375
0.0003662109375
-0.0003662109375
-0.0010986328125
0.000732421875
-0.0010986328125
0.0
-0.003662109375
0.0010986328125
-0.006591796875
0.0010986328125
-0.0076904296875
0.0029296875
-0.00732421875
0.0069580078125
-0.0029296875
0.0062255859375
0.006591796875
0.002197265625
0.010986328125
-0.0018310546875
0.0047607421875
-0.0003662109375
0.0029296875
-0.00146484375
0.0025634765625
-0.002197265625
0.0
0.0
-0.00146484375
0.0003662109375
0.0
0.00146484375
0.00146484375
0.0010986328125
0.0003662109375
0.000732421875
0.000732421875
0.0
0.000732421875
-0.0003662109375
0.000732421875
0.000732421875
-0.000732421875
0.00146484375
0.0
0.0
0.0
-0.0010986328125
-0.0003662109375
0.000732421875
-0.0018310546875
-0.002197265625
-0.0010986328125
0.0040283203125
0.0025634765625
0.00732421875
0.0
-0.0003662109375
0.003662109375
-0.0029296875
0.0047607421875
-0.002197265625
0.0010986328125
-0.000732421875
0.0010986328125
-0.00146484375
-0.005126953125
-0.0029296875
-0.07470703125
0.160430908203125
0.013916015625
0.0172119140625
0.0758056640625
-0.168121337890625
-0.0084228515625
-0.0230712890625
-0.000732421875
-0.000732421875
-0.0003662109375
-0.000732421875
-0.0003662109375
0.0
-0.00146484375
0.0
-0.0025634765625
0.0
-0.0040283203125
0.0003662109375
-0.006591796875
0.002197265625
-0.0062255859375
0.0054931640625
-0.0032958984375
0.0054931640625
0.005859375
0.00146484375
0.010986328125
-0.002197265625
0.006591796875
-0.0010986328125
0.0032958984375
-0.002197265625
0.000732421875
-0.0025634765625
0.0003662109375
-0.000732421875
-0.000732421875
0.000732421875
-0.000732421875
0.0018310546875
0.0010986328125
0.000732421875
0.000732421875
0.0010986328125
-0.008056640625
0.0062255859375
-0.0084228515625
0.0054931640625
