0.0355224609375
0.0106201171875
0.040283203125
0.0120849609375
0.0040283203125
-0.0029296875
-0.005859375
0.005859375
-0.0128173828125
0.016845703125
-0.01171875
0.0062255859375
-0.0076904296875
-0.000732421875
-0.000732421875
-0.0029296875
0.0084228515625
-0.01171875
0.0076904296875
-0.012451171875
-0.0054931640625
-0.005126953125
-0.02197265625
0.008056640625
-0.018310546875
0.0098876953125
-0.0069580078125
0.005126953125
-0.005126953125
0.153472900390625
0.0186767578125
-0.038818359375
-0.005126953125
-0.149444580078125
-0.031494140625
0.044677734375
-0.0194091796875
0.01904296875
-0.005859375
0.0106201171875
0.046142578125
-0.0146484375
0.044677734375
-0.02197265625
0.003662109375
-0.01904296875
0.003662109375
-0.0186767578125
0.0164794921875
-0.0201416015625
0.0142822265625
-0.01611328125
0.005859375
-0.0032958984375
-0.0040283203125
0.01025390625
-0.01318359375
0.0157470703125
-0.010986328125
0.0098876953125
-0.0062255859375
-0.0010986328125
-0.0025634765625
-0.0084228515625
0.0018310546875
-0.0047607421875
0.0003662109375
-0.000732421875
-0.0047607421875
0.0032958984375
0.0238037109375
0.0003662109375
0.032958984375
-0.0750732421875
-0.022705078125
-0.0234375
-0.0340576171875
0.0736083984375
-0.0091552734375
0.031494140625
-0.0032958984375
0.003662109375
-0.00146484375
-0.0069580078125
-0.009521484375
-0.01171875
-0.00732421875
-0.0201416015625
0.0025634765625
-0.0106201171875
0.0054931640625
0.01904296875
0.006591796875
0.0289306640625
0.0018310546875
0.0087890625
-0.0003662109375
-0.015380859375
0.002197265625
-0.0267333984375
0.0040283203125
-0.031494140625
0.000732421875
-0.0018310546875
-0.0018310546875
0.03369140625
0.00439453125
0.01904296875
0.0029296875
-0.0029296875
-0.009521484375
-0.01318359375
-0.01318359375
-0.0194091796875
0.002197265625
-0.016845703125
0.002197265625
0.0135498046875
-0.0098876953125
0.03369140625
-0.0025634765625
0.0113525390625
0.0040283203125
-0.0091552734375
0.0032958984375
-0.0146484375
0.005859375
-0.0142822265625
0.0435791015625
0.0252685546875
0.002197265625
-0.03662109375
-0.0498046875
-0.0238037109375
-0.0106201171875
0.047607421875
0.0047607421875
-0.0003662109375
0.0040283203125
-0.005126953125
0.0062255859375
-0.0062255859375
0.002197265625
-0.0025634765625
-0.01025390625
0.0032958984375
-0.0069580078125
0.0098876953125
0.0054931640625
0.0040283203125
0.0091552734375
-0.008056640625
0.01171875
-0.0135498046875
0.00146484375
-0.0091552734375
-0.0032958984375
-0.00439453125
-0.00439453125
0.0040283203125
-0.00732421875
0.01171875
0.0047607421875
0.0
0.016845703125
-0.0146484375
0.0106201171875
-0.01171875
-0.0076904296875
0.0029296875
-0.006591796875
0.009521484375
0.0010986328125
0.0091552734375
0.003662109375
0.000732421875
0.005126953125
-0.0106201171875
0.012451171875
-0.0172119140625
0.0040283203125
-0.0076904296875
-0.0003662109375
0.1036376953125
0.0062255859375
-0.027099609375
-0.0054931640625
-0.0911865234375
0.005859375
0.0263671875
0.0230712890625
-0.0260009765625
0.01904296875
-0.0205078125
0.0054931640625
-0.00732421875
-0.0208740234375
0.0062255859375
-0.024169921875
0.0289306640625
-0.0010986328125
0.01904296875
0.0146484375
-0.0135498046875
0.0157470703125
-0.0150146484375
0.0087890625
-0.013916015625
0.0069580078125
-0.00732421875
-0.0113525390625
0.0
-0.0205078125
0.01318359375
-0.0047607421875
0.01904296875
0.002197265625
0.00146484375
0.00732421875
-0.01171875
0.0113525390625
-0.0091552734375
0.0
0.002197265625
-0.015380859375
0.012451171875
-0.01171875
0.0194091796875
0.0252685546875
0.0029296875
0.0421142578125
-0.0684814453125
-0.015380859375
-0.0223388671875
-0.0303955078125
0.0380859375
-0.0010986328125
0.0010986328125
-0.00732421875
0.01318359375
-0.0091552734375
0.0120849609375
-0.003662109375
-0.002197265625
-0.0091552734375
0.003662109375
-0.018310546875
0.0157470703125
-0.005126953125
0.0098876953125
0.0084228515625
0.00439453125
0.006591796875
-0.005126953125
0.01025390625
-0.01318359375
0.0
-0.0047607421875
-0.005859375
-0.0018310546875
-0.0029296875
0.0076904296875
-0.0003662109375
0.012451171875
0.00732421875
-0.0029296875
0.0032958984375
-0.00439453125
-0.0054931640625
0.0029296875
-0.008056640625
0.0091552734375
-0.0003662109375
0.0113525390625
0.00146484375
0.005859375
0.0054931640625
-0.0040283203125
0.0238037109375
-0.0179443359375
0.0318603515625
-0.0509033203125
-0.017578125
-0.006591796875
-0.04248046875
0.0618896484375
-0.009521484375
0.028564453125
0.0018310546875
-0.00732421875
0.000732421875
-0.005859375
-0.00439453125
0.0135498046875
-0.010986328125
0.02197265625
-0.015380859375
0.009521484375
0.005126953125
-0.021240234375
0.0216064453125
-0.031494140625
0.009521484375
-0.0087890625
-0.000732421875
0.009521484375
-0.0010986328125
0.0205078125
0.002197265625
0.012451171875
-0.0091552734375
-0.009521484375
-0.005859375
-0.0208740234375
0.005859375
-0.0128173828125
0.0
0.005126953125
-0.0029296875
0.0128173828125
0.00439453125
0.00732421875
0.0018310546875
0.002197265625
-0.0142822265625
0.0
-0.0106201171875
0.13037109375
0.017578125
-0.0380859375
0.002197265625
-0.134765625
-0.0106201171875
0.03662109375
0.0
0.018310546875
-0.01318359375
0.019775390625
-0.01318359375
0.0010986328125
-0.008056640625
-0.003662109375
-0.002197265625
-0.00439453125
0.008056640625
-0.01025390625
0.0084228515625
0.0003662109375
0.0
0.01611328125
0.0029296875
0.0087890625
0.008056640625
-0.005126953125
0.0076904296875
-0.0098876953125
-0.0003662109375
-0.01171875
-0.0084228515625
-0.0003662109375
-0.0062255859375
0.009521484375
-0.000732421875
0.003662109375
0.005859375
-0.0025634765625
0.0069580078125
-0.0032958984375
0.000732421875
-0.0054931640625
-0.0003662109375
-0.0054931640625
0.02490234375
0.041015625
-0.0069580078125
0.000732421875
-0.0380859375
-0.009521484375
-0.0047607421875
0.029296875
0.024169921875
-0.029296875
0.0355224609375
-0.046142578125
0.01611328125
-0.027099609375
0.03955078125
-0.0439453125
0.03515625
-0.03076171875
0.0142822265625
-0.0164794921875
0.0263671875
-0.035888671875
0.0
-0.0113525390625
-0.02783203125
0.0274658203125
-0.0274658203125
0.0472412109375
-0.02783203125
0.0428466796875
-0.0296630859375
0.0234375
-0.0146484375
0.01171875
0.03076171875
-0.0205078125
0.0062255859375
-0.012451171875
-0.041748046875
0.0369873046875
-0.0384521484375
0.03515625
-0.0245361328125
0.0047607421875
0.003662109375
-0.0087890625
0.0062255859375
0.0084228515625
-0.002197265625
0.01318359375
-0.0029296875
-0.003662109375
0.0186767578125
-0.0234375
0.03076171875
-0.028564453125
0.01904296875
-0.0164794921875
0.01025390625
0.0
0.006591796875
-0.003662109375
-0.0003662109375
-0.0018310546875
-0.01171875
0.0157470703125
-0.0146484375
0.0172119140625
-0.0040283203125
0.0
-0.0029296875
-0.00146484375
-0.0054931640625
-0.005126953125
-0.0113525390625
-0.00439453125
-0.018310546875
0.0091552734375
-0.010986328125
0.012451171875
-0.008056640625
0.0194091796875
-0.0234375
0.028564453125
-0.0487060546875
0.030029296875
-0.0487060546875
0.0208740234375
-0.0157470703125
0.013916015625
0.0439453125
-0.0194091796875
0.075439453125
-0.0333251953125
0.0439453125
-0.0703125
-0.00732421875
-0.0142822265625
-0.012451171875
0.052001953125
0.0091552734375
0.002197265625
0.0120849609375
-0.00732421875
0.003662109375
-0.002197265625
-0.018310546875
0.01904296875
-0.0186767578125
0.0230712890625
-0.009521484375
0.0069580078125
0.0047607421875
-0.0098876953125
0.0186767578125
-0.0172119140625
0.0054931640625
-0.01318359375
-0.01318359375
0.005126953125
-0.01025390625
0.01171875
-0.0018310546875
0.0029296875
0.0
-0.005859375
0.0062255859375
-0.0142822265625
0.00732421875
-0.003662109375
-0.00439453125
0.015380859375
-0.0113525390625
0.0179443359375
-0.0029296875
0.003662109375
-0.0018310546875
0.0003662109375
-0.0025634765625
-0.0032958984375
0.0040283203125
-0.003662109375
0.000732421875
-0.0003662109375
0.022705078125
0.002197265625
0.0018310546875
-0.015380859375
-0.0252685546875
0.0029296875
-0.00146484375
0.03076171875
-0.0069580078125
0.0252685546875
-0.0164794921875
0.025634765625
-0.0164794921875
0.0186767578125
-0.0069580078125
0.0032958984375
0.0040283203125
-0.005859375
0.0091552734375
-0.0113525390625
0.009521484375
-0.01904296875
-0.0010986328125
0.0018310546875
-0.00439453125
0.0146484375
0.005859375
0.005859375
0.01025390625
-0.0128173828125
0.0040283203125
-0.0150146484375
0.00146484375
-0.0076904296875
0.0025634765625
-0.00146484375
-0.0029296875
0.00439453125
-0.0084228515625
0.0113525390625
0.019775390625
0.0029296875
0.0413818359375
-0.07177734375
-0.0069580078125
-0.018310546875
-0.0263671875
0.05859375
-0.0040283203125
0.01025390625
-0.002197265625
0.000732421875
-0.000732421875
-0.0062255859375
-0.0018310546875
-0.0091552734375
-0.0069580078125
0.000732421875
-0.005859375
0.0076904296875
0.0054931640625
0.0003662109375
0.0120849609375
-0.0032958984375
0.0098876953125
-0.005126953125
-0.0010986328125
-0.01611328125
-0.0054931640625
-0.0076904296875
-0.0003662109375
-0.0003662109375
0.002197265625
-0.00146484375
0.0087890625
0.003662109375
0.006591796875
0.0069580078125
0.0
-0.00439453125
-0.0029296875
-0.0076904296875
-0.005126953125
0.0018310546875
0.0245361328125
0.022705078125
0.010986328125
-0.0362548828125
-0.0245361328125
-0.0201416015625
-0.01611328125
0.04248046875
-0.00732421875
0.005126953125
0.0010986328125
-0.0091552734375
-0.00439453125
-0.0205078125
-0.0091552734375
-0.0040283203125
-0.005126953125
0.012451171875
0.002197265625
0.00146484375
0.0040283203125
0.000732421875
0.00146484375
-0.0113525390625
0.006591796875
-0.0234375
0.0047607421875
0.0
-0.0054931640625
0.0157470703125
-0.0018310546875
0.0098876953125
0.005126953125
-0.00146484375
0.0025634765625
-0.0113525390625
-0.000732421875
-0.009521484375
-0.0040283203125
0.003662109375
-0.0029296875
0.015380859375
0.00146484375
0.0076904296875
0.00732421875
-0.0010986328125
0.005859375
-0.01171875
0.0
-0.0157470703125
-0.005859375
0.0087890625
-0.009521484375
0.0179443359375
0.002197265625
-0.0010986328125
0.006591796875
-0.0084228515625
-0.0018310546875
0.0040283203125
0.0
0.010986328125
0.00146484375
0.00732421875
-0.0010986328125
0.0054931640625
-0.0018310546875
0.016845703125
-0.005126953125
0.136993408203125
0.0303955078125
0.0040283203125
0.0325927734375
-0.157135009765625
-0.0172119140625
-0.0406494140625
-0.0208740234375
-0.000732421875
-0.005859375
-0.0062255859375
-0.0032958984375
-0.0142822265625
-0.0029296875
-0.0186767578125
-0.0010986328125
-0.0238037109375
-0.0003662109375
-0.00732421875
-0.006591796875
0.0325927734375
-0.0091552734375
0.054931640625
-0.0025634765625
0.0303955078125
0.002197265625
0.0029296875
0.0091552734375
-0.01171875
0.010986328125
-0.01318359375
0.0003662109375
-0.00146484375
-0.009521484375
0.008056640625
-0.0025634765625
0.0084228515625
0.0047607421875
-0.0032958984375
0.010986328125
-0.0179443359375
0.005859375
-0.01025390625
-0.0084228515625
0.0106201171875
-0.0069580078125
0.0084228515625
0.00146484375
-0.008056640625
0.0135498046875
-0.0113525390625
0.00732421875
-0.0076904296875
-0.0128173828125
0.0047607421875
-0.0216064453125
0.0260009765625
-0.0120849609375
0.0194091796875
0.0040283203125
0.008056640625
0.009521484375
0.010986328125
-0.000732421875
0.135894775390625
0.03076171875
0.027099609375
0.0362548828125
-0.151641845703125
-0.0234375
-0.0567626953125
-0.0201416015625
-0.0106201171875
0.00146484375
-0.00732421875
-0.0025634765625
-0.0146484375
-0.0032958984375
-0.0263671875
-0.0054931640625
-0.0311279296875
-0.0054931640625
-0.0040283203125
-0.00732421875
0.0355224609375
-0.005126953125
0.0472412109375
0.008056640625
0.01904296875
0.0106201171875
0.0054931640625
0.00439453125
0.0091552734375
0.008056640625
-0.0084228515625
-0.0010986328125
-0.02197265625
-0.02490234375
0.0040283203125
-0.0234375
0.0333251953125
-0.012451171875
0.02197265625
0.013916015625
0.110595703125
0.0384521484375
-0.05712890625
0.0032958984375
-0.1241455078125
-0.0150146484375
0.031494140625
-0.0047607421875
-0.0047607421875
0.0
0.0062255859375
0.00146484375
0.006591796875
-0.0047607421875
0.0062255859375
-0.01025390625
0.002197265625
0.0047607421875
-0.0128173828125
0.0194091796875
-0.022705078125
0.01318359375
-0.015380859375
0.005126953125
0.0032958984375
-0.0062255859375
0.01171875
-0.0025634765625
0.0025634765625
0.0010986328125
-0.0032958984375
0.0025634765625
-0.003662109375
0.0018310546875
-0.0025634765625
0.0003662109375
0.0047607421875
0.003662109375
0.003662109375
-0.005859375
-0.0025634765625
-0.0040283203125
-0.0076904296875
0.0032958984375
-0.013916015625
0.003662109375
-0.009521484375
-0.0018310546875
0.005126953125
-0.00732421875
0.0106201171875
0.0025634765625
0.0047607421875
0.005859375
0.0087890625
0.00146484375
0.000732421875
-0.008056640625
-0.0054931640625
0.0194091796875
0.065185546875
0.027099609375
-0.0516357421875
-0.021240234375
-0.05712890625
-0.0208740234375
0.06005859375
0.0018310546875
0.0010986328125
-0.0062255859375
-0.005859375
-0.0087890625
-0.00146484375
-0.0120849609375
0.019775390625
-0.01318359375
0.0179443359375
0.003662109375
-0.002197265625
0.015380859375
-0.0234375
0.016845703125
-0.03369140625
0.0087890625
-0.0201416015625
-0.0062255859375
0.00146484375
-0.0091552734375
0.01171875
-0.0025634765625
-0.0018310546875
0.0
-0.0091552734375
-0.0047607421875
-0.002197265625
-0.009521484375
0.0018310546875
-0.0018310546875
-0.0040283203125
0.0062255859375
-0.00439453125
0.008056640625
-0.00146484375
0.008056640625
-0.00146484375
-0.0087890625
0.003662109375
0.0040283203125
0.0823974609375
0.0128173828125
-0.0245361328125
-0.01318359375
-0.0721435546875
-0.0029296875
0.0318603515625
0.0054931640625
0.003662109375
-0.0040283203125
-0.00146484375
-0.0076904296875
0.00146484375
-0.01171875
0.01025390625
-0.010986328125
0.01171875
0.0047607421875
-0.0040283203125
0.0205078125
-0.01611328125
0.0135498046875
-0.00732421875
0.0
-0.005126953125
-0.005126953125
-0.0010986328125
-0.0113525390625
0.00732421875
-0.0084228515625
0.0084228515625
0.006591796875
0.013916015625
0.0146484375
0.009521484375
0.0018310546875
-0.008056640625
-0.0047607421875
0.0054931640625
-0.0084228515625
0.005859375
-0.0040283203125
-0.010986328125
0.0106201171875
-0.01171875
0.006591796875
-0.0087890625
0.0003662109375
0.0029296875
-0.003662109375
0.005859375
0.000732421875
0.01318359375
0.034423828125
-0.03662109375
0.0076904296875
-0.02197265625
-0.0369873046875
0.0443115234375
-0.0186767578125
0.022705078125
0.0025634765625
0.0025634765625
0.0032958984375
-0.0025634765625
-0.0069580078125
0.0
-0.0003662109375
-0.0003662109375
-0.0018310546875
0.0054931640625
-0.0040283203125
-0.00439453125
0.0098876953125
-0.01611328125
0.0142822265625
0.0010986328125
0.0069580078125
0.0032958984375
0.0150146484375
-0.0010986328125
0.0164794921875
0.00439453125
0.005126953125
0.0142822265625
0.0018310546875
0.03076171875
0.0047607421875
0.0274658203125
-0.00146484375
0.024169921875
0.050537109375
0.05419921875
0.0596923828125
-0.06005859375
-0.0076904296875
-0.069580078125
-0.0018310546875
0.0047607421875
-0.01025390625
-0.0322265625
-0.02783203125
-0.008056640625
0.00439453125
-0.0216064453125
-0.0205078125
0.01171875
-0.028564453125
0.0318603515625
-0.003662109375
0.009521484375
-0.0223388671875
0.04541015625
-0.0238037109375
0.0391845703125
-0.0194091796875
0.0230712890625
-0.0150146484375
0.025634765625
-0.02490234375
0.0062255859375
-0.0238037109375
-0.0010986328125
0.0040283203125
-0.025634765625
0.017578125
-0.0494384765625
-0.0032958984375
0.0142822265625
0.0135498046875
0.0494384765625
0.0142822265625
0.0289306640625
-0.0047607421875
0.027099609375
0.0098876953125
-0.000732421875
0.0128173828125
-0.0347900390625
0.0205078125
-0.0677490234375
0.0201416015625
-0.056396484375
0.01318359375
-0.0234375
0.0113525390625
-0.009521484375
0.003662109375
0.0054931640625
-0.003662109375
-0.0032958984375
0.0120849609375
-0.037353515625
0.0179443359375
-0.0765380859375
0.08349609375
-0.180938720703125
0.172149658203125
-0.253814697265625
0.138458251953125
-0.232574462890625
0.0062255859375
-0.0926513671875
-0.050537109375
0.006591796875
-0.0223388671875
-0.028228759765625
-0.050537109375
-0.0509033203125
-0.071807861328125
-0.041015625
-0.049102783203125
0.0179443359375
-0.02197265625
0.088287353515625
0.008056640625
0.094146728515625
0.010986328125
0.03369140625
-0.012451171875
0.010986328125
-0.006591796875
0.0230712890625
-0.0113525390625
0.063720703125
-0.0113525390625
0.1446533203125
0.010986328125
-0.029296875
-0.0157470703125
-0.10986328125
-0.046142578125
-0.006591796875
-0.0472412109375
-0.0146484375
-0.0479736328125
-0.017578125
-0.022705078125
-0.0047607421875
0.009521484375
0.03662109375
0.0032958984375
0.0322265625
-0.00439453125
0.0106201171875
0.009521484375
0.0040283203125
0.0205078125
0.034423828125
0.0032958984375
0.029296875
-0.0146484375
0.034423828125
0.000732421875
0.062255859375
0.0311279296875
0.0457763671875
0.03515625
0.00146484375
0.0164794921875
-0.025634765625
-0.00439453125
0.009521484375
-0.0267333984375
0.06884765625
-0.0062255859375
0.081329345703125
0.068115234375
0.063018798828125
0.147979736328125
0.1065673828125
0.217193603515625
-0.117218017578125
0.217926025390625
-0.228546142578125
0.240631103515625
-0.113525390625
0.309112548828125
-0.204742431640625
0.160797119140625
-0.366973876953125
0.0
-0.170654296875
0.0
0.1732177734375
0.0
0.205841064453125
-0.032989501953125
0.167388916015625
-0.179473876953125
0.151611328125
-0.27978515625
0.208770751953125
-0.68414306640625
0.62701416015625
-1.0
0.880096435546875
-0.623016357421875
0.37066650390625
-0.135894775390625
-0.0010986328125
-0.0003662109375
0.0
0.0003662109375
0.0
0.0
0.0
-0.0003662109375
0.0
0.0003662109375
0.0
0.00146484375
0.0
0.92919921875
0.0003662109375
1.0
-0.59405517578125
0.478668212890625
-1.0
-0.037353515625
-0.680511474609375
-0.355987548828125
-0.234039306640625
-0.276153564453125
0.140655517578125
-0.0289306640625
0.05126953125
-0.0369873046875
-0.060089111328125
-0.043212890625
0.121246337890625
0.0164794921875
0.186431884765625
0.025634765625
0.1497802734375
-0.0120849609375
0.0780029296875
-0.0150146484375
0.069580078125
-0.032958984375
0.103668212890625
-0.041015625
0.060821533203125
-0.03515625
0.116455078125
-0.075836181640625
0.2142333984375
-0.055694580078125
0.137359619140625
0.002197265625
0.079864501953125
0.054962158203125
-0.002197265625
0.088653564453125
-0.091949462890625
0.053466796875
-0.061553955078125
-0.021240234375
-0.0509033203125
-0.02783203125
-0.10693359375
0.0245361328125
-0.1131591796875
-0.034423828125
-0.138427734375
-0.085723876953125
-0.226715087890625
-0.043975830078125
-0.610565185546875
-0.037353515625
-0.46990966796875
0.015411376953125
0.0
0.015380859375
0.0
-0.046905517578125
0.0
-0.0457763671875
0.0003662109375
-0.0325927734375
1.0
-0.02783203125
1.0
-0.034423828125
0.0
-0.010986328125
0.0
-0.0303955078125
-0.0003662109375
-0.1527099609375
-0.0003662109375
-0.110595703125
0.0003662109375
0.06005859375
0.0003662109375
0.125244140625
0.0
0.1622314453125
0.0
0.144317626953125
0.0
0.126007080078125
0.0
0.1292724609375
0.0
0.12158203125
0.0
0.0897216796875
0.0
0.035888671875
0.0
-0.002197265625
0.0
0.01171875
0.0003662109375
0.018310546875
0.0003662109375
0.0201416015625
-0.0003662109375
0.0245361328125
0.0
-0.0186767578125
0.0003662109375
-0.0355224609375
-0.0003662109375
-0.0545654296875
0.0
-0.060791015625
0.0
-0.02197265625
-0.0003662109375
0.0135498046875
0.0
0.017578125
0.0
0.010986328125
0.0003662109375
0.0010986328125
0.0
0.006591796875
-0.149078369140625
0.000732421875
-0.37103271484375
-0.017578125
-0.337310791015625
-0.0985107421875
-0.0567626953125
-0.256744384765625
0.1614990234375
-0.42706298828125
0.287139892578125
-0.462921142578125
0.31427001953125
-0.0230712890625
-0.0853271484375
0.0758056640625
-0.292633056640625
0.0120849609375
-0.249420166015625
0.139892578125
-0.272857666015625
0.0413818359375
-0.154937744140625
0.086822509765625
-0.143951416015625
0.064483642578125
-0.310577392578125
-0.080963134765625
-0.401031494140625
-0.0384521484375
-0.1827392578125
0.061187744140625
0.0377197265625
0.0567626953125
0.0567626953125
0.0670166015625
0.0
0.05126953125
-0.04248046875
0.029296875
-0.0380859375
0.041015625
-0.0179443359375
0.0047607421875
0.098876953125
0.0384521484375
0.0289306640625
0.06884765625
-0.249420166015625
-0.01025390625
-0.225982666015625
-0.006591796875
-0.0640869140625
0.0487060546875
0.0596923828125
0.044677734375
0.147216796875
0.0260009765625
0.154205322265625
0.0318603515625
0.100006103515625
-0.0091552734375
0.0194091796875
-0.041015625
0.0025634765625
-0.0087890625
0.0084228515625
0.005859375
-0.0087890625
-0.0205078125
0.0054931640625
-0.024169921875
0.050537109375
-0.01171875
0.0772705078125
-0.052001953125
0.125244140625
-0.10400390625
0.161895751953125
-0.076904296875
0.155670166015625
-0.0699462890625
0.1732177734375
-0.154571533203125
0.235504150390625
-0.128936767578125
0.248321533203125
0.049072265625
0.1058349609375
0.315704345703125
-0.231842041015625
0.292266845703125
-0.48455810546875
0.068145751953125
-0.354522705078125
-0.019775390625
-0.1175537109375
-0.33953857421875
0.156402587890625
0.079864501953125
-0.151275634765625
0.248687744140625
-0.55596923828125
-0.909027099609375
-0.038818359375
-0.807220458984375
1.0
-0.032623291015625
1.0
-0.0003662109375
0.0157470703125
0.0003662109375
0.0003662109375
0.0
0.0
1.0
-1.0
1.0
-1.0
-0.002197265625
0.0
0.0
0.0
0.0
0.0
0.0
0.0
0.0
0.0
0.0
-0.0003662109375
0.0003662109375
-0.0003662109375
0.0
0.0003662109375
-0.0003662109375
0.0003662109375
0.0
0.0
0.0003662109375
0.0
0.0
0.0
-0.0003662109375
0.0
0.0003662109375
0.0
0.0003662109375
0.0
-0.0003662109375
1.0
-0.0003662109375
1.0
0.0
0.0223388671875
0.0
0.0003662109375
0.0003662109375
0.0003662109375
0.0003662109375
0.0
-0.0003662109375
0.0
-0.0003662109375
0.0
0.0003662109375
0.0
0.0
0.0
-0.0003662109375
-0.0003662109375
0.0
0.0
0.0003662109375
0.0003662109375
0.0
0.0
-0.0003662109375
0.0
0.0
0.0
0.0
0.0
0.0
0.0
0.0
0.0
0.0
0.0
0.0003662109375
0.0
0.0003662109375
0.0
0.0
0.0
-0.0003662109375
0.0
0.0
0.0
0.0
0.0
-0.0003662109375
0.0
0.0
0.0
0.0
0.0
0.0003662109375
0.0
0.0003662109375
0.0
0.0
0.0
0.0
0.0
-0.0003662109375
0.0
-0.0003662109375
0.0
0.0003662109375
0.0
0.0003662109375
0.0
-0.0003662109375
0.0
-0.101837158203125
0.0
-0.138824462890625
0.0
-0.0322265625
0.0
-0.032958984375
-0.0003662109375
-0.0816650390625
0.0
-0.0054931640625
0.0003662109375
0.0120849609375
-0.0003662109375
-0.0750732421875
-0.0003662109375
-0.046142578125
0.0
0.052001953125
0.0
0.1497802734375
0.0003662109375
0.038818359375
0.0003662109375
-0.0234375
0.0
0.112060546875
0.0
0.123443603515625
-0.0003662109375
0.049468994140625
-0.0010986328125
0.0
0.0
0.0
0.0010986328125
-0.0003662109375
0.0003662109375
0.0
0.0
0.0003662109375
0.0
0.0
0.0
0.0
0.0
0.0
0.0
-0.0003662109375
-0.0003662109375
0.0
0.0
0.0003662109375
0.0003662109375
0.0003662109375
0.0
-0.0003662109375
-0.0003662109375
-0.49993896484375
-0.018310546875
-0.862518310546875
-0.190093994140625
-0.51751708984375
-0.168853759765625
-0.248321533203125
-0.0076904296875
-0.346832275390625
-0.0157470703125
-0.36260986328125
-0.00146484375
-0.122711181640625
0.0135498046875
-0.01318359375
-0.010986328125
0.0
-0.044677734375
-0.0003662109375
-0.050537109375
0.0
-0.0538330078125
0.0003662109375
-0.040283203125
0.0
-0.013916015625
0.0
-0.023468017578125
0.0
-0.037384033203125
0.0
-0.0201416015625
0.02197265625
-0.0146484375
0.054229736328125
-0.017578125
0.069976806640625
0.0087890625
0.0640869140625
0.0274658203125
0.0340576171875
0.138824462890625
0.04833984375
-0.052001953125
0.0333251953125
-0.169586181640625
0.0234375
-0.0040283203125
0.038818359375
-0.0230712890625
0.0208740234375
-0.0172119140625
0.0333251953125
-0.02490234375
0.0289306640625
-0.02783203125
0.041748046875
-0.030029296875
0.046875
-0.028564453125
0.0399169921875
-0.02197265625
0.039215087890625
-0.0120849609375
0.030426025390625
-0.0062255859375
0.024169921875
-0.0263671875
0.0267333984375
-0.0289306640625
0.0208740234375
-0.022705078125
0.02490234375
-0.0238037109375
0.043212890625
-0.01611328125
0.022705078125
0.0032958984375
0.00732421875
-0.00146484375
0.0223388671875
-0.0260009765625
0.0303955078125
-0.027099609375
0.017578125
-0.0252685546875
0.0157470703125
-0.0142822265625
0.0146484375
0.006591796875
0.0029296875
0.0252685546875
0.0340576171875
-0.032257080078125
0.030029296875
-0.042877197265625
0.0069580078125
0.0010986328125
0.01611328125
-0.0164794921875
0.013916015625
-0.006591796875
0.0205078125
0.021270751953125
0.009521484375
0.0128173828125
0.009521484375
-0.016876220703125
0.0311279296875
-0.0281982421875
0.03662109375
-0.0234375
0.0179443359375
-0.01025390625
0.009521484375
0.009521484375
0.0128173828125
0.0230712890625
0.015411376953125
0.00439453125
0.024566650390625
-0.01904296875
0.025634765625
-0.0238037109375
0.0186767578125
-0.0172119140625
0.013916015625
0.01025390625
0.0128173828125
0.015380859375
0.003662109375
0.0076904296875
-0.0076904296875
0.139923095703125
0.0439453125
-0.0498046875
0.0362548828125
-0.166290283203125
-0.0029296875
0.0098876953125
-0.0010986328125
0.0120849609375
-0.0010986328125
0.02490234375
0.0032958984375
-0.002197265625
0.0003662109375
-0.0245361328125
0.0120849609375
-0.027099609375
0.012451171875
-0.018310546875
0.0142822265625
-0.0091552734375
0.0128173828125
0.01171875
0.005126953125
0.0194091796875
0.0032958984375
0.0003662109375
0.0084228515625
-0.008056640625
0.0150146484375
-0.01904296875
0.01025390625
-0.0179443359375
0.0003662109375
-0.005859375
0.021240234375
-0.0098876953125
0.0113525390625
0.0146484375
-0.00146484375
0.0157470703125
0.0135498046875
-0.008056640625
0.0150146484375
-0.0113525390625
0.010986328125
-0.0135498046875
0.0003662109375
-0.0032958984375
0.0142822265625
0.0157470703125
0.0340576171875
-0.0289306640625
-0.0025634765625
-0.0252685546875
-0.021240234375
0.0201416015625
-0.0120849609375
0.002197265625
0.0029296875
0.002197265625
0.0179443359375
0.0098876953125
-0.005126953125
0.005859375
-0.016845703125
-0.0047607421875
-0.013916015625
-0.013916015625
0.01025390625
-0.02197265625
0.0047607421875
-0.005859375
-0.0087890625
0.0281982421875
-0.005859375
0.030029296875
-0.01025390625
0.01025390625
0.0029296875
-0.005126953125
0.0062255859375
-0.0223388671875
-0.005859375
-0.0179443359375
-0.0091552734375
0.0076904296875
-0.0040283203125
0.008056640625
-0.005126953125
-0.00732421875
-0.0018310546875
-0.0091552734375
0.003662109375
-0.0087890625
0.002197265625
-0.0018310546875
-0.0018310546875
0.01025390625
-0.0098876953125
0.0087890625
0.0186767578125
-0.0465087890625
-0.0032958984375
-0.0223388671875
-0.0303955078125
0.022705078125
-0.0029296875
-0.0003662109375
-0.0128173828125
0.000732421875
0.000732421875
0.0010986328125
0.0032958984375
-0.0018310546875
-0.01611328125
-0.0029296875
-0.0062255859375
-0.0029296875
0.010986328125
-0.0076904296875
0.0040283203125
-0.0047607421875
-0.005126953125
-0.0062255859375
0.005126953125
0.0179443359375
-0.0003662109375
0.030029296875
-0.0135498046875
0.032958984375
0.0157470703125
-0.03515625
0.013916015625
-0.0406494140625
-0.005859375
0.0087890625
0.01025390625
-0.0164794921875
-0.0040283203125
0.0179443359375
-0.005859375
0.0406494140625
-0.0010986328125
0.01318359375
0.009521484375
-0.0128173828125
0.0172119140625
-0.02490234375
0.0106201171875
-0.0274658203125
0.0054931640625
-0.0003662109375
-0.003662109375
0.0303955078125
-0.0029296875
0.0267333984375
0.0047607421875
0.0076904296875
0.015380859375
-0.005859375
0.0205078125
-0.0194091796875
0.0113525390625
-0.003662109375
0.0069580078125
0.01171875
0.0087890625
0.0025634765625
0.02490234375
0.0018310546875
0.029296875
0.0047607421875
0.0531005859375
-0.0018310546875
0.067779541015625
0.005859375
0.027130126953125
0.01611328125
0.0054931640625
0.006591796875
-0.015045166015625
-0.005126953125
-0.023834228515625
-0.0150146484375
-0.0274658203125
-0.005126953125
-0.028564453125
0.0087890625
-0.012451171875
0.040283203125
0.015380859375
-0.0556640625
-0.01025390625
-0.085693359375
-0.01318359375
-0.0040283203125
0.028564453125
-0.009521484375
-0.0025634765625
0.0186767578125
-0.0069580078125
0.022705078125
0.0032958984375
0.0120849609375
0.028564453125
-0.0098876953125
0.065582275390625
-0.0201416015625
0.056427001953125
-0.005859375
0.0494384765625
0.013916015625
0.005859375
0.0362548828125
-0.0322265625
0.027099609375
-0.117218017578125
0.01611328125
-0.183868408203125
-0.0047607421875
-0.1453857421875
-0.0172119140625
-0.158966064453125
-0.003662109375
-0.210235595703125
0.0120849609375
-0.26513671875
0.0260009765625
-0.243927001953125
0.0186767578125
-0.139190673828125
0.0098876953125
-0.05419921875
0.024169921875
-0.01611328125
0.0303955078125
-0.0098876953125
0.021240234375
0.015380859375
0.013916015625
0.0421142578125
0.000732421875
0.057861328125
-0.015380859375
0.0545654296875
-0.0113525390625
0.0670166015625
-0.0245361328125
0.082061767578125
-0.035888671875
0.068878173828125
0.0721435546875
0.0787353515625
-0.0545654296875
0.098876953125
-0.1036376953125
0.1263427734375
0.05712890625
0.220123291015625
0.0128173828125
0.337677001953125
-0.01318359375
0.330352783203125
-0.01171875
0.194122314453125
0.00146484375
0.165924072265625
0.028564453125
0.302886962890625
0.0487060546875
0.0809326171875
0.03515625
-0.223785400390625
-0.0120849609375
-0.146881103515625
-0.0413818359375
-0.0263671875
-0.03369140625
-0.0029296875
0.0025634765625
-0.075439453125
0.0208740234375
-0.1051025390625
0.0047607421875
-0.03662109375
-0.0106201171875
-0.0325927734375
-0.0003662109375
-0.132568359375
0.013916015625
-0.176177978515625
0.018310546875
-0.176544189453125
0.0135498046875
-0.179443359375
-0.0040283203125
-0.130035400390625
-0.003662109375
-0.074005126953125
-0.0113525390625
-0.0633544921875
-0.0465087890625
-0.106201171875
-0.0791015625
-0.106201171875
-0.072509765625
-0.0889892578125
-0.0399169921875
-0.102935791015625
-0.0303955078125
-0.064849853515625
-0.0501708984375
-0.0146484375
-0.059326171875
-0.00439453125
-0.033721923828125
-0.005126953125
-0.0032958984375
-0.0223388671875
0.075103759765625
0.0025634765625
0.093017578125
0.0391845703125
-0.053466796875
-0.012451171875
-0.0487060546875
-0.022705078125
0.0230712890625
0.010986328125
-0.013916015625
0.0069580078125
-0.0047607421875
-0.0003662109375
-0.012451171875
-0.0106201171875
-0.085357666015625
-0.019775390625
-0.091949462890625
-0.009521484375
-0.0311279296875
-0.000732421875
0.0347900390625
-0.00146484375
0.0421142578125
0.005859375
0.0179443359375
0.005859375
0.046539306640625
0.006591796875
0.033721923828125
0.0205078125
-0.0098876953125
0.019775390625
0.0128173828125
0.019073486328125
0.079833984375
0.032989501953125
0.0758056640625
0.0369873046875
0.0428466796875
0.0296630859375
0.0684814453125
0.025634765625
0.09228515625
0.0238037109375
0.0472412109375
0.027099609375
0.0003662109375
0.034423828125
-0.0003662109375
0.0340576171875
0.0054931640625
0.028564453125
0.0150146484375
0.01904296875
0.0252685546875
0.015380859375
0.034423828125
0.0208740234375
0.0267333984375
0.022705078125
0.0069580078125
0.0018310546875
0.101837158203125
0.0340576171875
0.106231689453125
0.0791015625
-0.094512939453125
0.0252685546875
-0.119049072265625
0.0062255859375
-0.0413818359375
0.028564453125
-0.0223388671875
0.028564453125
-0.0069580078125
0.031524658203125
-0.0238037109375
0.017242431640625
-0.0267333984375
0.0142822265625
-0.0194091796875
0.0091552734375
0.008056640625
-0.0003662109375
0.03515625
0.0157470703125
0.0205078125
0.0230712890625
-0.0040283203125
0.0172119140625
-0.0054931640625
0.0172119140625
-0.0062255859375
0.008056640625
-0.0040283203125
0.00146484375
-0.0029296875
0.00439453125
-0.005126953125
0.0062255859375
0.0010986328125
0.0128173828125
0.0
0.015380859375
-0.0098876953125
0.01318359375
-0.0047607421875
0.0025634765625
0.005859375
0.0047607421875
-0.00732421875
0.0120849609375
-0.010986328125
0.0098876953125
-0.0076904296875
0.0113525390625
-0.0076904296875
0.01025390625
-0.002197265625
0.009521484375
-0.0032958984375
0.00146484375
0.000732421875
-0.000732421875
0.0164794921875
-0.0087890625
0.0728759765625
0.009521484375
0.112823486328125
0.041015625
-0.05859375
0.00732421875
-0.132232666015625
-0.005859375
-0.0406494140625
0.00732421875
-0.0194091796875
0.0018310546875
-0.0032958984375
0.003662109375
-0.0146484375
-0.002197265625
-0.0245361328125
-0.00439453125
-0.0146484375
-0.0010986328125
0.0084228515625
0.005859375
0.0208740234375
-0.0018310546875
0.030029296875
-0.005859375
0.0172119140625
0.0018310546875
0.0032958984375
0.00439453125
-0.0018310546875
0.0062255859375
-0.0098876953125
0.0025634765625
-0.0091552734375
-0.0062255859375
0.0018310546875
-0.002197265625
0.0047607421875
-0.0018310546875
-0.005859375
-0.0069580078125
-0.0010986328125
0.0047607421875
0.002197265625
0.0069580078125
-0.00732421875
0.002197265625
-0.017578125
0.0054931640625
-0.0157470703125
0.0032958984375
-0.010986328125
-0.0098876953125
0.0084228515625
-0.0069580078125
0.024169921875
0.00146484375
0.002197265625
0.00146484375
-0.013916015625
-0.00146484375
-0.0025634765625
0.003662109375
0.029296875
0.0289306640625
-0.0450439453125
-0.0047607421875
-0.041748046875
-0.0289306640625
0.03369140625
-0.0018310546875
0.0069580078125
0.0025634765625
-0.00732421875
0.0069580078125
-0.0106201171875
0.00146484375
-0.00439453125
-0.0091552734375
-0.0047607421875
-0.0120849609375
0.0142822265625
-0.003662109375
0.0142822265625
0.0076904296875
-0.009521484375
0.0032958984375
-0.0040283203125
-0.0018310546875
-0.0032958984375
0.0025634765625
-0.0120849609375
-0.00146484375
-0.0003662109375
-0.0029296875
0.01171875
-0.0010986328125
0.0062255859375
0.0003662109375
0.000732421875
0.0
0.0029296875
-0.002197265625
0.000732421875
-0.005859375
0.0
0.0018310546875
0.0135498046875
0.0311279296875
-0.047607421875
-0.0003662109375
-0.0274658203125
-0.0234375
0.037353515625
0.000732421875
0.005126953125
-0.0062255859375
0.0157470703125
-0.0032958984375
0.006591796875
-0.0029296875
-0.008056640625
-0.0087890625
-0.000732421875
-0.0069580078125
0.0069580078125
0.0040283203125
-0.002197265625
0.0135498046875
-0.003662109375
0.0025634765625
0.002197265625
0.0018310546875
-0.009521484375
0.0054931640625
-0.0047607421875
-0.00146484375
0.009521484375
0.0025634765625
0.0047607421875
0.0
0.0047607421875
-0.0087890625
0.0032958984375
-0.0003662109375
-0.0084228515625
0.0087890625
0.0003662109375
0.002197265625
0.002197265625
0.0
-0.0018310546875
0.005126953125
0.00439453125
-0.01171875
0.0062255859375
-0.0230712890625
0.148712158203125
0.025634765625
-0.024169921875
0.02197265625
-0.148345947265625
-0.0106201171875
0.0230712890625
0.0029296875
0.005126953125
-0.0029296875
0.0142822265625
-0.0029296875
0.0069580078125
-0.0040283203125
-0.0062255859375
-0.005126953125
-0.01171875
0.003662109375
-0.00732421875
0.0076904296875
0.0025634765625
0.005126953125
0.0113525390625
-0.0018310546875
0.0216064453125
-0.0040283203125
0.000732421875
0.005126953125
-0.024169921875
0.0010986328125
-0.0164794921875
-0.0032958984375
-0.0032958984375
-0.0018310546875
0.0084228515625
-0.003662109375
0.0098876953125
-0.0018310546875
0.0238037109375
0.0018310546875
0.0047607421875
0.006591796875
-0.029296875
0.0029296875
-0.0146484375
0.000732421875
-0.000732421875
-0.003662109375
0.0010986328125
0.00439453125
-0.0054931640625
0.0047607421875
-0.003662109375
-0.0069580078125
0.0069580078125
-0.000732421875
-0.00146484375
0.000732421875
-0.0091552734375
-0.002197265625
-0.0029296875
0.0018310546875
-0.0076904296875
0.0029296875
-0.008056640625
-0.005859375
0.01318359375
-0.017578125
0.1468505859375
0.0234375
-0.052734375
0.021240234375
-0.1534423828125
-0.0172119140625
0.03515625
-0.0010986328125
0.0010986328125
0.0091552734375
0.003662109375
0.000732421875
0.006591796875
-0.015380859375
-0.0087890625
-0.0150146484375
-0.01611328125
-0.0032958984375
-0.0087890625
0.0076904296875
0.0010986328125
0.0076904296875
0.0238037109375
-0.00439453125
0.028564453125
-0.0069580078125
-0.003662109375
0.0025634765625
-0.016845703125
0.0032958984375
-0.0128173828125
0.0032958984375
-0.00439453125
-0.0032958984375
0.021240234375
-0.01611328125
0.0146484375
-0.0062255859375
-0.0098876953125
0.0
-0.003662109375
-0.000732421875
-0.0040283203125
0.01318359375
-0.012451171875
-0.002197265625
0.0076904296875
-0.0267333984375
0.163726806640625
0.0146484375
-0.0234375
0.0164794921875
-0.146514892578125
-0.010986328125
0.0260009765625
0.00146484375
-0.0098876953125
-0.0018310546875
-0.0120849609375
-0.005859375
0.00439453125
-0.01611328125
0.0216064453125
-0.0087890625
0.0179443359375
0.0040283203125
-0.0010986328125
0.0069580078125
-0.0106201171875
0.018310546875
-0.0216064453125
0.018310546875
-0.016845703125
-0.002197265625
0.0223388671875
-0.01904296875
0.032958984375
-0.005859375
0.005859375
0.009521484375
-0.01318359375
0.0069580078125
-0.0146484375
0.010986328125
-0.0205078125
0.0098876953125
-0.005859375
-0.010986328125
0.017578125
-0.01318359375
0.0098876953125
-0.0010986328125
-0.0040283203125
0.0032958984375
-0.0128173828125
0.0146484375
-0.0076904296875
0.0047607421875
0.008056640625
-0.0076904296875
0.01171875
-0.0054931640625
0.0076904296875
-0.006591796875
-0.0054931640625
0.0087890625
-0.0230712890625
0.012451171875
-0.008056640625
-0.0018310546875
0.0296630859375
0.0230712890625
-0.0172119140625
-0.0003662109375
-0.0150146484375
-0.0333251953125
0.03955078125
-0.0003662109375
0.00439453125
0.0091552734375
-0.0069580078125
0.00146484375
0.0069580078125
-0.0069580078125
0.0113525390625
-0.0087890625
0.00146484375
-0.00146484375
-0.015380859375
0.0098876953125
-0.0230712890625
0.0150146484375
-0.003662109375
0.0040283203125
0.0186767578125
-0.013916015625
0.018310546875
-0.01025390625
0.0106201171875
0.0157470703125
-0.0146484375
0.01025390625
-0.018310546875
0.0003662109375
0.0
0.0
0.00732421875
-0.0106201171875
0.0084228515625
-0.0062255859375
-0.009521484375
0.0029296875
-0.0172119140625
0.0018310546875
-0.0032958984375
0.0
-0.000732421875
-0.0054931640625
-0.000732421875
-0.01611328125
0.123779296875
0.016845703125
-0.0325927734375
0.005859375
-0.1270751953125
-0.022705078125
0.031494140625
-0.006591796875
-0.0003662109375
-0.000732421875
-0.009521484375
0.000732421875
0.005126953125
-0.0069580078125
0.012451171875
-0.01025390625
0.0029296875
-0.005126953125
-0.0087890625
0.009521484375
-0.0157470703125
0.0084228515625
-0.0098876953125
0.000732421875
-0.0032958984375
0.0
0.008056640625
-0.0106201171875
0.0311279296875
-0.0076904296875
0.010986328125
0.005126953125
-0.017578125
0.0047607421875
-0.0098876953125
0.0040283203125
-0.0084228515625
0.0098876953125
-0.0010986328125
0.0029296875
0.00732421875
-0.0087890625
0.0098876953125
-0.008056640625
0.013916015625
0.0
0.000732421875
-0.0032958984375
-0.0084228515625
-0.00146484375
0.00439453125
0.00146484375
0.009521484375
-0.009521484375
0.013916015625
-0.002197265625
0.010986328125
0.005126953125
-0.0040283203125
0.0106201171875
-0.0091552734375
0.016845703125
-0.0084228515625
-0.01025390625
0.005859375
-0.0091552734375
0.103271484375
0.01611328125
-0.0333251953125
-0.0069580078125
-0.0889892578125
-0.01611328125
0.0311279296875
0.002197265625
-0.002197265625
0.0018310546875
0.0040283203125
-0.0032958984375
0.0025634765625
-0.006591796875
0.0157470703125
-0.0084228515625
0.0157470703125
0.00439453125
-0.0128173828125
0.0106201171875
-0.013916015625
0.0084228515625
-0.0003662109375
0.005126953125
-0.0040283203125
-0.00146484375
0.00146484375
-0.0040283203125
0.0032958984375
-0.000732421875
-0.002197265625
0.002197265625
-0.0003662109375
0.0018310546875
-0.0047607421875
0.0018310546875
0.0
0.0025634765625
0.0091552734375
0.0040283203125
-0.0032958984375
0.003662109375
-0.012451171875
-0.000732421875
-0.002197265625
-0.006591796875
0.0087890625
0.000732421875
0.005126953125
0.009521484375
0.012451171875
0.0274658203125
-0.0399169921875
-0.000732421875
-0.021240234375
-0.0234375
0.037353515625
-0.00732421875
0.0120849609375
-0.0076904296875
0.01611328125
0.0018310546875
0.0098876953125
-0.0029296875
-0.0076904296875
0.0
-0.013916015625
0.0010986328125
-0.010986328125
0.003662109375
-0.003662109375
0.0076904296875
0.0113525390625
0.0010986328125
0.0186767578125
-0.0010986328125
0.00146484375
-0.00146484375
-0.0040283203125
-0.0018310546875
0.0010986328125
0.0010986328125
-0.00732421875
0.00439453125
0.0003662109375
0.00439453125
0.0040283203125
0.0
-0.0201416015625
0.0172119140625
0.037353515625
0.015380859375
-0.01904296875
-0.0172119140625
-0.0457763671875
-0.0142822265625
0.0380859375
-0.002197265625
0.0087890625
0.0025634765625
-0.0054931640625
-0.000732421875
-0.01025390625
-0.00439453125
-0.0076904296875
-0.00146484375
-0.00439453125
-0.005126953125
-0.0025634765625
-0.00146484375
0.005859375
0.006591796875
0.003662109375
0.003662109375
-0.00439453125
0.005126953125
-0.0069580078125
0.005859375
-0.0091552734375
-0.005859375
-0.00439453125
-0.009521484375
0.0076904296875
-0.0010986328125
0.0047607421875
-0.0054931640625
-0.002197265625
0.0
-0.00146484375
0.005126953125
-0.00146484375
-0.0029296875
0.0025634765625
-0.0010986328125
0.000732421875
0.000732421875
-0.0062255859375
-0.0003662109375
-0.00732421875
-0.0032958984375
-0.0040283203125
-0.01611328125
0.160430908203125
0.021240234375
-0.0260009765625
0.0113525390625
-0.155303955078125
-0.02783203125
0.032958984375
0.0018310546875
-0.000732421875
0.0113525390625
0.0
-0.0025634765625
0.0018310546875
-0.012451171875
0.003662109375
-0.010986328125
-0.0032958984375
-0.0003662109375
-0.003662109375
0.0172119140625
-0.002197265625
0.0135498046875
0.000732421875
0.0098876953125
0.000732421875
-0.0010986328125
-0.00732421875
-0.013916015625
0.0010986328125
-0.0087890625
0.00146484375
0.0
-0.005126953125
0.005126953125
0.002197265625
0.0091552734375
0.0069580078125
0.0069580078125
-0.000732421875
-0.0032958984375
-0.00732421875
-0.0054931640625
0.002197265625
-0.00146484375
0.0087890625
0.0025634765625
0.002197265625
0.0062255859375
-0.00146484375
0.0054931640625
-0.0029296875
0.010986328125
0.009521484375
0.0186767578125
-0.056396484375
-0.018310546875
-0.019775390625
-0.02490234375
0.0604248046875
0.00146484375
0.01904296875
-0.005859375
0.0084228515625
-0.0084228515625
0.0018310546875
-0.0025634765625
-0.01025390625
-0.0032958984375
-0.0186767578125
-0.00146484375
0.0091552734375
0.0054931640625
0.016845703125
0.00439453125
-0.0032958984375
0.00732421875
-0.01025390625
0.002197265625
-0.009521484375
0.00146484375
-0.0032958984375
0.006591796875
0.006591796875
-0.00439453125
0.0150146484375
-0.0098876953125
0.0029296875
-0.0025634765625
-0.0091552734375
0.0032958984375
-0.01025390625
0.005126953125
-0.0047607421875
0.009521484375
0.0003662109375
0.008056640625
0.009521484375
-0.013916015625
0.02197265625
-0.01904296875
0.01025390625
0.0047607421875
-0.012451171875
0.0076904296875
-0.018310546875
0.0098876953125
-0.01025390625
0.01318359375
0.002197265625
-0.000732421875
0.0146484375
-0.0098876953125
0.0252685546875
0.019775390625
-0.0091552734375
0.010986328125
-0.030029296875
-0.019775390625
0.0128173828125
-0.00439453125
0.016845703125
0.0032958984375
-0.0040283203125
-0.0040283203125
0.01025390625
-0.003662109375
0.00732421875
-0.0018310546875
-0.006591796875
-0.0032958984375
-0.005126953125
0.0029296875
-0.01025390625
0.0025634765625
0.0
0.0
0.0179443359375
-0.00146484375
0.005859375
0.0047607421875
-0.0150146484375
0.0
-0.015380859375
-0.002197265625
-0.0135498046875
0.0003662109375
-0.002197265625
-0.005126953125
0.0252685546875
-0.000732421875
0.0208740234375
0.0087890625
-0.01025390625
0.005126953125
-0.018310546875
-0.005859375
-0.0098876953125
-0.0047607421875
-0.0047607421875
-0.0029296875
0.0029296875
-0.0047607421875
0.0106201171875
0.01171875
0.046142578125
0.012451171875
-0.0340576171875
-0.0157470703125
-0.047607421875
-0.01318359375
0.025634765625
-0.0003662109375
-0.0010986328125
0.0018310546875
0.005859375
0.0003662109375
0.0098876953125
-0.0146484375
0.010986328125
-0.010986328125
0.002197265625
0.0040283203125
-0.0025634765625
0.00439453125
0.005126953125
0.0003662109375
0.010986328125
-0.0032958984375
0.0252685546875
-0.0113525390625
0.0362548828125
-0.02197265625
0.0325927734375
-0.0238037109375
0.0322265625
-0.0413818359375
0.0567626953125
-0.08935546875
0.101837158203125
-0.127838134765625
0.150543212890625
-0.120513916015625
0.16552734375
-0.1197509765625
0.157867431640625
-0.1171875
0.144317626953125
-0.0648193359375
0.099609375
-0.0146484375
0.069580078125
0.0216064453125
0.06298828125
0.0487060546875
0.0230712890625
0.0673828125
-0.0186767578125
0.0889892578125
-0.00146484375
0.157470703125
-0.0106201171875
0.131500244140625
-0.088623046875
0.048370361328125
-0.066650390625
0.0391845703125
-0.0208740234375
0.041748046875
-0.0574951171875
0.0655517578125
-0.079498291015625
0.0673828125
-0.065948486328125
0.0531005859375
-0.0322265625
0.0552978515625
-0.0245361328125
0.091552734375
-0.0721435546875
0.141754150390625
-0.1234130859375
0.146514892578125
-0.10693359375
0.07470703125
-0.0831298828125
0.0223388671875
-0.094512939453125
0.052001953125
-0.112457275390625
0.0933837890625
-0.1746826171875
0.106964111328125
-0.333282470703125
0.043975830078125
-0.43695068359375
-0.035552978515625
-0.332550048828125
-0.019073486328125
-0.18310546875
0.042144775390625
-0.099273681640625
-0.0428466796875
-0.0087890625
-0.185699462890625
0.100372314453125
-0.239532470703125
0.262939453125
-0.214630126953125
0.421905517578125
-0.10693359375
0.36334228515625
0.0552978515625
0.174713134765625
0.128204345703125
0.151611328125
-0.03369140625
0.172515869140625
-0.205108642578125
0.267730712890625
-0.234039306640625
0.145751953125
-0.141754150390625
-0.024169921875
-0.1171875
0.0146484375
-0.134765625
-0.0648193359375
-0.0853271484375
-0.0966796875
-0.087890625
-0.1036376953125
-0.121612548828125
-0.074371337890625
-0.145050048828125
-0.022369384765625
-0.08203125
0.011383056640625
-0.008056640625
0.0069580078125
-0.0113525390625
-0.024932861328125
-0.0084228515625
-0.0303955078125
0.0296630859375
-0.0648193359375
0.0413818359375
-0.098876953125
0.03515625
-0.099609375
0.029296875
-0.1021728515625
0.0498046875
-0.142852783203125
0.0809326171875
-0.190826416015625
0.060821533203125
-0.15234375
0.035552978515625
-0.03955078125
0.03076171875
0.02490234375
0.027099609375
0.073974609375
0.021240234375
0.109130859375
-0.0150146484375
0.287506103515625
0.016845703125
0.065948486328125
0.0384521484375
-0.151611328125
0.0018310546875
0.0091552734375
0.018310546875
-0.039947509765625
0.0289306640625
-0.060821533203125
0.02197265625
-0.05859375
0.0157470703125
-0.03076171875
0.0252685546875
-0.013916015625
0.0303955078125
-0.003662109375
0.0179443359375
0.03076171875
0.009521484375
0.0377197265625
0.0157470703125
0.0234375
0.0146484375
0.024169921875
0.0076904296875
0.0234375
0.0128173828125
0.027130126953125
0.0113525390625
0.024566650390625
0.0010986328125
0.0146484375
0.00732421875
0.00146484375
0.0076904296875
-0.01025390625
-0.0238037109375
0.214599609375
0.0230712890625
-0.003662109375
0.043212890625
-0.193359375
-0.003662109375
0.0333251953125
0.0069580078125
0.0047607421875
0.0135498046875
0.0087890625
0.005126953125
0.02490234375
0.0
0.03369140625
-0.0003662109375
0.030029296875
0.0120849609375
0.0252685546875
0.021240234375
0.0234375
0.005859375
0.0377197265625
0.0054931640625
0.03955078125
0.005126953125
0.0362548828125
0.005859375
0.021240234375
0.0135498046875
-0.00146484375
0.0047607421875
0.002197265625
-0.0069580078125
0.0172119140625
0.0025634765625
0.0179443359375
0.008056640625
0.0223388671875
0.005889892578125
0.028564453125
0.009185791015625
0.0091552734375
0.0069580078125
-0.0054931640625
0.0054931640625
-0.0084228515625
0.005859375
-0.01318359375
0.0113525390625
0.0084228515625
0.03515625
-0.003662109375
0.0106201171875
-0.012451171875
-0.0179443359375
0.018310546875
-0.0025634765625
0.003662109375
0.00439453125
-0.0201416015625
0.0157470703125
-0.0194091796875
0.01171875
0.0062255859375
0.005126953125
0.0010986328125
0.008056640625
-0.018310546875
0.0128173828125
-0.0142822265625
0.0201416015625
-0.024169921875
0.0172119140625
-0.0146484375
0.0113525390625
0.012451171875
0.016845703125
0.005126953125
0.013916015625
-0.009521484375
0.006591796875
-0.009521484375
0.015380859375
-0.0120849609375
0.01611328125
-0.0069580078125
0.0091552734375
-0.0025634765625
0.0032958984375
-0.0146484375
-0.00732421875
0.172882080078125
0.0201416015625
0.003662109375
0.0146484375
-0.156036376953125
-0.009521484375
0.0223388671875
-0.0010986328125
-0.002197265625
0.0010986328125
0.0135498046875
0.0040283203125
0.0098876953125
0.0010986328125
-0.00146484375
-0.0003662109375
-0.0062255859375
-0.0003662109375
-0.0164794921875
0.0032958984375
-0.0029296875
0.009521484375
0.006591796875
0.00732421875
0.0084228515625
0.006591796875
0.0172119140625
-0.0010986328125
0.012451171875
-0.003662109375
-0.01025390625
0.0010986328125
-0.0106201171875
0.0025634765625
0.0
0.0054931640625
-0.0084228515625
-0.00439453125
0.0069580078125
-0.005859375
0.0054931640625
-0.002197265625
-0.0157470703125
-0.000732421875
-0.01171875
0.005859375
-0.0135498046875
0.0062255859375
-0.009521484375
-0.0029296875
0.0135498046875
-0.0054931640625
0.0084228515625
0.000732421875
-0.0113525390625
0.002197265625
-0.0091552734375
-0.00146484375
-0.0142822265625
0.00732421875
0.03515625
0.0263671875
-0.04248046875
-0.003662109375
-0.0556640625
-0.0238037109375
0.0428466796875
-0.00439453125
0.003662109375
-0.000732421875
-0.0054931640625
-0.005859375
0.00146484375
-0.0047607421875
-0.01025390625
-0.0029296875
-0.021240234375
-0.006591796875
-0.00146484375
0.0032958984375
0.0047607421875
0.0142822265625
-0.0098876953125
0.0062255859375
-0.0010986328125
-0.0025634765625
0.016845703125
-0.0047607421875
0.0098876953125
-0.005126953125
-0.0087890625
-0.0025634765625
-0.0029296875
0.0029296875
-0.0010986328125
0.00439453125
-0.0069580078125
0.0032958984375
-0.0025634765625
0.00146484375
0.0010986328125
-0.005859375
0.005126953125
-0.0062255859375
0.0
-0.0003662109375
-0.01611328125
0.0003662109375
0.15380859375
0.0179443359375
-0.02197265625
0.0087890625
-0.1607666015625
-0.013916015625
0.0303955078125
-0.005859375
0.00732421875
-0.0040283203125
0.0281982421875
-0.0025634765625
0.01904296875
-0.0084228515625
-0.0135498046875
-0.0062255859375
-0.028564453125
0.005126953125
-0.0252685546875
0.009521484375
-0.00732421875
0.0054931640625
0.00732421875
0.00732421875
0.0281982421875
0.005859375
0.025634765625
-0.0069580078125
0.0029296875
-0.0040283203125
-0.01904296875
0.000732421875
-0.02490234375
-0.0003662109375
-0.0062255859375
0.0047607421875
0.0069580078125
0.00146484375
0.0223388671875
0.0010986328125
0.01611328125
0.005126953125
-0.0018310546875
0.00146484375
-0.0128173828125
0.002197265625
-0.0201416015625
0.0003662109375
-0.00732421875
-0.003662109375
0.01611328125
0.000732421875
0.01904296875
-0.002197265625
0.01171875
-0.00732421875
0.0076904296875
-0.0003662109375
-0.005859375
0.0054931640625
-0.010986328125
-0.0010986328125
-0.0054931640625
-0.0186767578125
0.191925048828125
0.0150146484375
-0.016845703125
0.0157470703125
-0.182769775390625
-0.01171875
0.0135498046875
0.0018310546875
-0.0084228515625
0.0
0.0120849609375
-0.0010986328125
0.018310546875
-0.0025634765625
0.0040283203125
-0.009521484375
-0.01025390625
-0.01025390625
-0.0098876953125
0.0069580078125
-0.0172119140625
0.009521484375
-0.008056640625
0.0047607421875
0.0194091796875
0.0029296875
0.01318359375
-0.0018310546875
-0.0029296875
-0.0062255859375
-0.0069580078125
-0.0018310546875
-0.024169921875
0.005126953125
-0.0186767578125
-0.003662109375
0.0146484375
-0.0010986328125
0.0230712890625
0.00439453125
0.003662109375
-0.0029296875
0.0
-0.0135498046875
0.010986328125
-0.0047607421875
0.0084228515625
-0.0032958984375
0.01611328125
-0.029296875
0.0560302734375
-0.0809326171875
0.1146240234375
-0.0604248046875
0.066650390625
0.00732421875
-0.0216064453125
0.02783203125
-0.0531005859375
0.0234375
-0.063720703125
0.0201416015625
-0.046142578125
0.0494384765625
-0.084228515625
0.0003662109375
-0.07470703125
-0.072509765625
0.0333251953125
-0.164459228515625
0.154541015625
-0.230743408203125
0.159332275390625
-0.158203125
0.086090087890625
-0.05126953125
0.0538330078125
-0.002197265625
-0.0238037109375
-0.0087890625
-0.093414306640625
-0.0025634765625
-0.0098876953125
0.0135498046875
0.070343017578125
0.04248046875
0.010986328125
0.0421142578125
-0.01025390625
-0.087890625
0.09228515625
-0.156402587890625
0.10693359375
-0.048370361328125
-0.160797119140625
-0.274322509765625
-1.0
-0.279449462890625
0.243560791015625
1.0
1.0
0.0
0.39263916015625
-1.0
-0.000732421875
0.0
0.0
0.0
0.0
0.0
0.0
0.0
0.0
0.0
0.0
0.0
0.0
0.0
0.0
-0.0003662109375
0.0
-0.0003662109375
0.0
0.0
0.0
0.0003662109375
0.0
0.0
0.0
0.0
0.0
0.0003662109375
0.0
-0.0003662109375
0.0
0.0
0.0
0.0003662109375
0.0
0.0
0.0
0.0
0.0
0.0
0.0
0.0
0.0
0.0
0.0
-0.0003662109375
0.0
-0.0003662109375
0.0
0.0003662109375
0.0
0.0003662109375
0.0003662109375
0.0
0.0
0.0
-0.0003662109375
0.0
0.0
0.0
0.0
0.0
0.0
0.0
0.0
-0.0003662109375
0.0
0.0
0.0
0.0003662109375
0.0
-0.0003662109375
0.0
-0.0003662109375
0.0
0.0
0.0
0.0003662109375
0.0
0.0003662109375
0.0
0.0
0.0
0.0
0.0
0.0
0.0
0.0
0.0
-0.0003662109375
0.0
0.0
0.0
0.0
0.0
-0.0003662109375
0.0
0.0003662109375
0.0
0.0
0.0
0.0
0.0
0.0
0.0
0.0
0.0
0.0003662109375
0.0
0.0
0.0
0.0
0.0
-0.0003662109375
0.0
0.0
0.0
0.0003662109375
0.0
0.0
0.0
0.0
0.0
0.0
0.0
0.0
0.0
0.0
0.0
0.0
0.0
-0.0003662109375
0.0
0.0
0.0
0.0003662109375
0.0
-0.0003662109375
0.0
0.0
0.0
0.0
0.0
0.0
0.0
0.0003662109375
0.0
0.0
0.0
-0.0003662109375
0.0
0.0
0.0
0.0003662109375
0.0
0.0
0.0
0.0
0.0
0.0
0.0
0.0
0.0
0.0
0.0
-0.0003662109375
0.0
0.0
0.0
0.0
0.0
0.0
0.0
0.0
0.0
0.0230712890625
0.0
0.060821533203125
0.0
0.070343017578125
0.0
0.0684814453125
0.0
0.084228515625
0.0
0.0853271484375
0.0
0.0703125
0.0003662109375
0.0574951171875
0.0003662109375
0.05126953125
-0.0003662109375
0.045074462890625
0.0
0.049102783203125
0.0003662109375
0.066650390625
0.0
0.073974609375
0.0
0.062255859375
-0.0003662109375
0.03662109375
-0.0003662109375
0.03076171875
-0.0018310546875
0.034423828125
-0.037384033203125
0.041748046875
-0.065948486328125
0.0556640625
-0.052734375
0.054931640625
-0.0479736328125
0.043212890625
-0.0545654296875
0.043975830078125
-0.0479736328125
0.038116455078125
-0.05126953125
0.02490234375
-0.0611572265625
0.0205078125
-0.0611572265625
0.01318359375
-0.0633544921875
0.006591796875
-0.064483642578125
-0.010986328125
-0.080963134765625
-0.0380859375
-0.1036376953125
-0.038818359375
-0.10400390625
-0.023834228515625
-0.098876953125
0.0010986328125
-0.160064697265625
0.193756103515625
-0.246490478515625
0.377593994140625
-0.475372314453125
0.224884033203125
-0.360382080078125
0.301422119140625
-0.287506103515625
0.47247314453125
-0.36077880859375
0.201080322265625
-0.095611572265625
0.0003662109375
0.0
0.0
0.0
-0.0003662109375
0.0
-0.0003662109375
0.0
0.0
0.0
-0.003662109375
0.0
0.0003662109375
-0.0003662109375
0.0040283203125
0.0
-0.0003662109375
0.0003662109375
0.0003662109375
0.0
0.0003662109375
0.0
-0.0003662109375
0.0003662109375
-0.0003662109375
0.0
0.0
-0.0003662109375
0.0
0.0
0.0
0.0
0.0
0.0
0.0003662109375
0.0
0.0003662109375
0.0
0.0
0.0
-0.0003662109375
0.0
-0.0003662109375
0.0
0.0
0.0
0.0
0.0
0.0003662109375
-0.0003662109375
0.0
0.0
0.0
0.0
0.0003662109375
0.0
-0.0003662109375
0.0
-0.0003662109375
0.0
0.0
0.0
0.0003662109375
0.0
0.0
0.0003662109375
-0.0003662109375
-0.0003662109375
0.0003662109375
0.0
0.0
0.0
-0.0003662109375
-0.0003662109375
0.0
0.0003662109375
0.0003662109375
0.0003662109375
0.0003662109375
0.0
-0.0003662109375
0.0
-0.0003662109375
0.0
0.0003662109375
0.0
0.0
-0.0003662109375
-0.0003662109375
0.0
0.0
0.0003662109375
0.0
0.0003662109375
0.0
0.0
0.0
-0.0003662109375
0.0003662109375
0.0
0.0003662109375
-0.0003662109375
-0.0003662109375
0.0
-0.0003662109375
0.0003662109375
0.0
-0.0003662109375
0.0
0.0
0.0
0.0003662109375
0.0
0.0003662109375
0.0
0.0
0.0
-0.0003662109375
0.0003662109375
0.0
0.0
0.0
-0.0003662109375
0.0
0.0
0.0
0.0
0.0
0.0
0.0
0.0003662109375
-0.0003662109375
0.0
-0.0003662109375
0.0
0.0003662109375
0.0
0.0003662109375
0.0
0.0
0.0003662109375
0.0
0.0
0.0
0.0
0.0
-0.0003662109375
0.0
-0.0003662109375
0.0
0.0003662109375
0.0
0.0
0.0
-0.0003662109375
0.0
0.0
0.0
0.0
0.0
0.0003662109375
0.0
0.0
0.0
-0.0003662109375
0.0
0.0
0.0
0.0
0.0
0.0003662109375
0.0
0.0
0.0
-0.0003662109375
0.0
0.0
0.0
0.0
0.0
0.0003662109375
-0.0003662109375
0.0
0.0
-0.0003662109375
0.0003662109375
0.0003662109375
-0.0003662109375
0.0
0.0
-0.0003662109375
0.0003662109375
0.0003662109375
0.0
0.0003662109375
0.0003662109375
0.0
0.0
-0.0003662109375
-0.0003662109375
-0.0003662109375
0.0
0.0
0.0
0.0003662109375
0.0
0.0003662109375
0.0
0.0
0.0
-0.0003662109375
0.0
0.0
0.0
0.0003662109375
-0.0003662109375
-0.0003662109375
0.0
0.0
0.0
0.0
0.0
-0.0003662109375
0.0003662109375
0.0
0.0
0.0
0.0
0.0
0.0003662109375
0.0
0.0
0.0
-0.0003662109375
0.0003662109375
0.0
0.0
0.0
-0.0003662109375
0.0
0.0
-0.0003662109375
0.0
-0.0003662109375
-0.0003662109375
0.0003662109375
-0.034088134765625
0.0003662109375
-0.077301025390625
0.0
-0.0765380859375
-0.0003662109375
-0.065185546875
0.0
-0.0574951171875
0.0003662109375
-0.063720703125
0.0
-0.066650390625
0.0
-0.056396484375
0.0
-0.0531005859375
-0.0003662109375
-0.0472412109375
-0.0003662109375
-0.049835205078125
0.0
-0.045806884765625
0.0
-0.041015625
0.0
-0.0391845703125
0.0
-0.035888671875
0.0
-0.041015625
0.022705078125
-0.0303955078125
0.034454345703125
-0.0325927734375
0.041412353515625
-0.0457763671875
0.0552978515625
-0.0369873046875
0.1611328125
-0.0201416015625
0.0252685546875
-0.0281982421875
-0.0721435546875
-0.0369873046875
0.06005859375
-0.028564453125
0.04248046875
-0.031494140625
0.0604248046875
-0.0296630859375
0.0626220703125
-0.028228759765625
0.0318603515625
-0.021636962890625
0.0146484375
-0.0179443359375
0.0106201171875
-0.01611328125
0.027099609375
-0.016845703125
0.047271728515625
-0.017578125
0.036285400390625
-0.010986328125
0.0216064453125
-0.0142822265625
0.01904296875
-0.0018310546875
0.013916015625
-0.002197265625
0.0234375
-0.01318359375
0.0465087890625
-0.009521484375
0.0322265625
-0.0054931640625
0.002197265625
-0.00146484375
0.0084228515625
-0.006591796875
0.017578125
-0.005126953125
0.0106201171875
-0.0120849609375
0.0296630859375
-0.0186767578125
0.0399169921875
-0.0150146484375
0.015380859375
-0.031494140625
0.168121337890625
0.0084228515625
-0.0201416015625
0.0150146484375
-0.148712158203125
-0.0216064453125
0.04541015625
-0.0120849609375
0.025634765625
-0.01025390625
0.025634765625
-0.015380859375
0.0164794921875
-0.0164794921875
0.0084228515625
-0.016845703125
0.0087890625
-0.0142822265625
0.0091552734375
0.0032958984375
0.0003662109375
0.00146484375
0.0128173828125
-0.0025634765625
0.0146484375
-0.00439453125
0.0142822265625
-0.00146484375
0.022705078125
0.0018310546875
0.02197265625
0.0040283203125
0.003662109375
0.0
-0.01025390625
-0.0128173828125
-0.000732421875
-0.00732421875
0.009521484375
-0.0029296875
0.0194091796875
-0.0040283203125
0.019805908203125
-0.0113525390625
0.013580322265625
0.016845703125
-0.013946533203125
0.0
-0.023468017578125
-0.031494140625
0.010986328125
-0.015380859375
0.019439697265625
-0.0142822265625
0.023468017578125
-0.0084228515625
0.0281982421875
-0.0142822265625
0.0076904296875
-0.013916015625
-0.0047607421875
-0.0062255859375
-0.00732421875
-0.0018310546875
-0.0087890625
0.0047607421875
-0.0069580078125
-0.00146484375
0.0325927734375
-0.0098876953125
0.0377197265625
-0.0098876953125
0.003662109375
-0.0106201171875
-0.0091552734375
-0.012451171875
-0.0084228515625
-0.0087890625
0.008056640625
-0.0146484375
0.01611328125
-0.0325927734375
0.1171875
0.0003662109375
-0.015380859375
-0.0025634765625
-0.099609375
-0.019775390625
0.0230712890625
-0.005889892578125
0.0186767578125
-0.006988525390625
0.019775390625
0.0003662109375
0.003662109375
-0.0062255859375
-0.0047607421875
0.0018310546875
-0.0113525390625
0.008453369140625
-0.0062255859375
0.008819580078125
0.0029296875
0.01025390625
0.02197265625
0.0069580078125
0.0146484375
0.003662109375
-0.01318359375
0.0120849609375
-0.0113525390625
0.0150146484375
-0.0029296875
0.008056640625
0.0018310546875
0.0087890625
0.01318359375
-0.000732421875
0.003662109375
0.0018310546875
-0.012451171875
0.00439453125
-0.0010986328125
-0.0010986328125
0.0098876953125
-0.008056640625
0.022705078125
-0.013916015625
0.0245361328125
-0.00439453125
0.0087890625
-0.006591796875
0.006591796875
0.0003662109375
0.00439453125
0.0087890625
0.005859375
0.009521484375
-0.005859375
0.01171875
-0.000732421875
0.0113525390625
0.0076904296875
0.0087890625
0.00439453125
0.009521484375
-0.01025390625
0.0025634765625
0.0172119140625
0.0234375
-0.031494140625
0.01171875
-0.0362548828125
-0.0201416015625
0.052734375
0.0003662109375
0.0252685546875
0.0018310546875
-0.0029296875
0.003662109375
-0.0142822265625
0.005126953125
-0.01904296875
0.003662109375
-0.0230712890625
0.0076904296875
0.006591796875
0.0062255859375
0.0267333984375
0.005126953125
-0.0025634765625
0.0087890625
-0.0150146484375
0.0054931640625
-0.0230712890625
0.0062255859375
-0.0018310546875
0.012451171875
0.0087890625
0.0054931640625
0.0032958984375
0.0025634765625
0.003662109375
0.0091552734375
-0.017578125
0.0091552734375
-0.0179443359375
0.01025390625
-0.006591796875
-0.0029296875
0.00732421875
-0.000732421875
0.0120849609375
0.009521484375
0.0029296875
0.0010986328125
-0.0062255859375
0.003662109375
-0.01025390625
0.003662109375
-0.0029296875
-0.0010986328125
0.008056640625
-0.00439453125
0.005859375
-0.00146484375
-0.005126953125
0.000732421875
-0.0120849609375
0.0069580078125
-0.029296875
0.0003662109375
0.010986328125
-0.0150146484375
0.0574951171875
-0.0062255859375
0.1834716796875
0.013916015625
0.0205078125
-0.00146484375
-0.1585693359375
-0.005859375
-0.0699462890625
0.010986328125
-0.0556640625
0.0025634765625
0.0113525390625
-0.0029296875
0.0047607421875
-0.0029296875
-0.0380859375
-0.00146484375
-0.0494384765625
-0.0047607421875
-0.0164794921875
-0.0106201171875
0.0380859375
-0.003662109375
0.0692138671875
0.0010986328125
0.0487060546875
0.00146484375
-0.0029296875
0.005859375
-0.0142822265625
-0.0003662109375
-0.0054931640625
0.003662109375
-0.013916015625
0.0018310546875
0.0010986328125
-0.0010986328125
0.006591796875
-0.0003662109375
0.0018310546875
0.0010986328125
0.0054931640625
0.003662109375
0.0054931640625
0.000732421875
0.0025634765625
0.0062255859375
-0.01025390625
0.002197265625
-0.0054931640625
0.002197265625
0.00732421875
0.008056640625
0.000732421875
0.010986328125
-0.0040283203125
0.0113525390625
0.0025634765625
0.0194091796875
-0.00146484375
0.01318359375
0.00732421875
-0.0010986328125
0.010986328125
0.0157470703125
0.177978515625
0.03662109375
0.0479736328125
0.0164794921875
-0.1461181640625
0.0040283203125
-0.034423828125
-0.0047607421875
0.0098876953125
-0.0194091796875
0.0545654296875
-0.0087890625
0.0673828125
-0.006591796875
0.06005859375
-0.0135498046875
0.0252685546875
-0.02197265625
0.01904296875
-0.031494140625
0.050933837890625
-0.0245361328125
0.065582275390625
-0.00439453125
0.0732421875
-0.0032958984375
0.0443115234375
-0.0069580078125
-0.0084228515625
-0.0047607421875
-0.0135498046875
-0.006591796875
-0.0172119140625
-0.024169921875
-0.0087890625
-0.0303955078125
0.0128173828125
-0.0208740234375
0.0146484375
-0.0047607421875
-0.0025634765625
0.000732421875
-0.013916015625
0.0
-0.02197265625
0.0113525390625
-0.034423828125
0.01025390625
-0.0091552734375
0.002197265625
0.0106201171875
0.0047607421875
0.003662109375
0.00732421875
-0.008056640625
0.0032958984375
-0.013916015625
0.01025390625
-0.010986328125
0.0
0.0029296875
-0.0223388671875
0.0157470703125
-0.015380859375
0.1798095703125
0.0091552734375
0.0201416015625
-0.016845703125
-0.181640625
-0.027099609375
-0.075103759765625
-0.008056640625
-0.049468994140625
-0.0164794921875
-0.000732421875
0.0
-0.0120849609375
0.0091552734375
-0.041748046875
0.0062255859375
-0.0516357421875
0.013916015625
-0.0322265625
0.0106201171875
0.0047607421875
0.0029296875
0.0347900390625
-0.002197265625
0.032958984375
-0.00732421875
0.0047607421875
-0.0047607421875
-0.009521484375
-0.0087890625
-0.01171875
-0.005859375
-0.017578125
0.000732421875
-0.0150146484375
-0.0040283203125
-0.00439453125
-0.0205078125
0.0172119140625
-0.03369140625
0.031494140625
-0.038482666015625
0.030029296875
-0.042510986328125
0.027099609375
-0.043212890625
0.0355224609375
-0.044677734375
0.039947509765625
-0.038818359375
0.024200439453125
-0.04248046875
0.0201416015625
-0.0479736328125
0.0230712890625
-0.05126953125
0.172119140625
-0.0106201171875
0.0
-0.005859375
-0.1329345703125
-0.0413818359375
0.05126953125
-0.030029296875
0.0164794921875
-0.0303955078125
0.0047607421875
-0.0234375
0.0157470703125
-0.017578125
0.0164794921875
-0.01904296875
0.0135498046875
-0.0179443359375
0.008056640625
-0.0087890625
-0.0135498046875
0.00146484375
-0.024169921875
-0.008056640625
0.008056640625
-0.010986328125
0.030029296875
-0.0146484375
0.0238037109375
-0.01025390625
0.005859375
-0.003662109375
-0.0106201171875
-0.003662109375
-0.00439453125
0.0047607421875
0.01025390625
-0.003662109375
0.021240234375
-0.012481689453125
0.02197265625
-0.005889892578125
0.006591796875
0.0
0.0
-0.009521484375
0.0179443359375
-0.0230712890625
0.040283203125
-0.0380859375
0.038818359375
-0.0699462890625
0.046875
-0.1124267578125
0.087921142578125
-0.1768798828125
0.140289306640625
-0.154205322265625
0.2113037109375
-0.044342041015625
0.214263916015625
0.0003662109375
0.087921142578125
0.0
0.0003662109375
0.0
0.0
-0.0003662109375
0.0
0.0
0.0
0.0003662109375
0.0003662109375
0.0
0.0
-0.0003662109375
-0.0003662109375
0.0
0.0003662109375
0.0003662109375
0.0
0.0
-0.0003662109375
-0.0003662109375
0.0
0.0
0.0
0.0003662109375
0.0
0.0
0.0
0.0
0.0
0.0
0.0
0.0
0.0
-0.0003662109375
0.0
0.0
0.0
0.0003662109375
0.0
0.0
0.0
-0.0003662109375
0.0
0.0
0.0
0.0003662109375
0.0
0.0
0.0
0.0
0.0
-0.0003662109375
0.0
0.0
0.0
0.0
0.0
0.0
0.0
0.0003662109375
0.0
0.0
0.0
0.0
0.0
-0.0003662109375
0.0
-0.0003662109375
0.0
0.0
0.0
0.0003662109375
0.0
0.0003662109375
0.0
0.0
0.0
0.0
0.0
0.0
0.0
0.0
0.0
0.0
0.0
0.0
0.0
0.0
0.0
0.0
0.0
0.0
0.0
-0.0003662109375
0.0
0.0
0.0
0.0003662109375
0.0
0.0
0.0
0.0
0.0
-0.0003662109375
0.0
0.0
0.0
0.0003662109375
0.0
-0.0003662109375
0.0
-0.0003662109375
0.0
0.0003662109375
0.0
0.0
0.0
0.0
0.0
0.0003662109375
0.0
-0.0003662109375
0.0
0.0
0.0
0.0003662109375
0.0
0.0
0.0
0.0
0.0
0.0
0.0
-0.0003662109375
0.0
0.0
0.0003662109375
0.0003662109375
0.0
0.0
-0.0003662109375
-0.0003662109375
0.0
0.0
0.0
0.0003662109375
0.0
0.0
0.0
0.0
0.0
0.0
0.0
0.0
0.0
0.0
0.0
0.0
0.0
0.0
0.0
-0.0003662109375
0.0
-0.0003662109375
0.0
0.0
0.0
0.0003662109375
0.0
0.0003662109375
0.0
-0.0003662109375
0.0
-0.0003662109375
0.0
0.0003662109375
0.0
0.0003662109375
0.0
0.0
-0.0003662109375
0.0
0.0
0.0
0.0003662109375
0.0
0.0
-0.0003662109375
0.0
0.0
0.0
0.0
0.0
0.0
0.0
0.0003662109375
0.0
0.0
0.0
0.0
0.0
-0.0003662109375
0.0
0.0
0.0
0.0003662109375
0.0
0.0
0.0
0.0
0.0
-0.0003662109375
0.0
0.0
0.0
0.0003662109375
0.0
0.0
0.0
0.0
0.0
0.0
0.0
0.0
0.0
-0.0003662109375
0.0
-0.0003662109375
0.0
0.0003662109375
0.0
0.0
0.0
-0.0003662109375
0.0
0.0274658203125
0.0
0.058624267578125
0.0
0.057891845703125
-0.0194091796875
0.0498046875
-0.051300048828125
0.0523681640625
-0.060455322265625
0.0560302734375
-0.0582275390625
0.0509033203125
-0.053466796875
0.0574951171875
-0.0457763671875
0.0523681640625
-0.046875
0.0377197265625
-0.06005859375
0.037353515625
-0.0582275390625
0.0450439453125
-0.046875
0.047637939453125
-0.0439453125
0.042144775390625
-0.034423828125
0.0439453125
-0.032257080078125
0.037353515625
-0.030059814453125
0.0355224609375
-0.0318603515625
0.0303955078125
-0.035888671875
0.0260009765625
-0.0340576171875
0.0281982421875
-0.0322265625
0.021240234375
-0.0318603515625
0.0223388671875
-0.0311279296875
0.022705078125
-0.0205078125
0.0234375
-0.02197265625
0.0205078125
-0.025634765625
0.0186767578125
-0.0201416015625
0.021240234375
-0.018310546875
0.0238037109375
-0.017578125
0.02490234375
-0.019775390625
0.0626220703125
0.018310546875
0.057861328125
0.0157470703125
-0.027099609375
-0.073974609375
-0.015380859375
-0.079833984375
0.0333251953125
-0.030029296875
0.023834228515625
-0.0194091796875
0.032257080078125
-0.0208740234375
0.0362548828125
-0.025299072265625
0.0186767578125
-0.028961181640625
0.088623046875
-0.1021728515625
0.836151123046875
-0.870208740234375
0.753753662109375
-0.784149169921875
0.0
-0.0003662109375
0.0
0.0
0.0
0.0
0.0003662109375
0.0
0.0
0.0
-0.0003662109375
-0.0003662109375
0.0
0.0
0.0
0.000732421875
0.0
-0.0003662109375
0.0
-0.0003662109375
0.0
0.0
0.0003662109375
0.0
0.0
0.0003662109375
-0.0003662109375
0.0
0.0003662109375
0.0
0.0003662109375
0.0
-0.0003662109375
0.0
0.0
0.0
0.0
-0.0003662109375
0.0
-0.0003662109375
0.0
0.0003662109375
-0.0003662109375
0.0003662109375
0.0003662109375
0.0
0.0
0.0
0.0
0.0
0.0
0.0
-0.0003662109375
0.0
0.0003662109375
0.0
0.0003662109375
0.0
-0.0003662109375
0.0003662109375
-0.0003662109375
0.0003662109375
0.0
-0.0003662109375
0.0
-0.0003662109375
0.0
0.0
0.0
-0.0003662109375
0.0
0.0
0.0
0.0003662109375
0.0003662109375
0.0
0.0
0.0
-0.0003662109375
0.0
0.0
0.0
0.0
0.0
0.0
0.0
0.0003662109375
0.0
-0.0025634765625
0.0
0.0
0.0
0.0025634765625
0.0
-0.0003662109375
0.0
0.0003662109375
0.0
0.0
0.0
0.0
0.0
0.0
0.0
-0.0003662109375
0.0
0.0
0.0003662109375
0.0
0.0
0.0
-0.0003662109375
0.0003662109375
0.0
0.0
0.0
-0.0003662109375
0.0
0.0
0.0
0.0
0.0
0.0003662109375
0.0
0.0003662109375
0.0
-0.0003662109375
0.0
0.0
0.0
0.0
0.0
-0.0003662109375
0.0
0.0003662109375
-0.0003662109375
0.0
-0.0003662109375
0.0
0.0003662109375
0.0003662109375
0.0003662109375
-0.0003662109375
0.0
-0.0003662109375
0.0
0.0
0.0
0.0
0.0
0.0
0.0
0.0
-0.0003662109375
0.0
0.0
0.0
0.0003662109375
0.0
0.0
0.0003662109375
0.0
0.0
0.0
0.0
0.0
0.0
-0.0003662109375
-0.0003662109375
0.0
0.0
0.0003662109375
0.0003662109375
0.0
0.0003662109375
0.0
-0.0003662109375
-0.0003662109375
-0.0003662109375
0.0
0.0
0.0003662109375
0.0003662109375
0.0
0.0003662109375
0.0
-0.0003662109375
0.0
0.0
-0.0003662109375
0.0
0.0
-0.0003662109375
0.0003662109375
-0.53143310546875
0.291900634765625
-0.660736083984375
0.41790771484375
-0.954833984375
1.0
-0.825897216796875
1.0
-0.0003662109375
-0.0010986328125
0.0
0.0003662109375
0.0
0.0
0.0
0.0
0.0
0.0
0.0
0.0
-0.0003662109375
0.0
0.0
0.0
0.0003662109375
0.0
0.0
0.0
0.0
0.0
0.0
0.0
0.0
0.0
0.992919921875
0.0003662109375
1.0
0.000732421875
-0.992919921875
-0.0003662109375
-1.0
-0.000732421875
0.0
0.0
-0.0003662109375
0.0
0.0
0.0
0.0003662109375
0.0
0.0
0.0
0.0
0.0
-0.0003662109375
0.0
-0.0003662109375
0.0
0.0
0.0
0.0003662109375
0.0
0.0003662109375
0.0
0.0
0.0
0.0
0.0
0.0
0.0
-0.0003662109375
0.0
0.0
0.0
0.0003662109375
0.0
0.0
0.0
0.0
0.0
0.0
0.0
0.0
0.0
-0.0003662109375
0.0
0.0
0.0
0.0003662109375
0.0
0.0
0.0
0.0
0.0
0.0
0.0
0.0
0.0
0.0
0.0
-0.0003662109375
0.0
0.0
0.0
0.0003662109375
0.0
0.0
0.0
-0.0003662109375
0.0
-0.0003662109375
0.0
0.0003662109375
0.0
0.0
0.0
0.0
0.0
0.0003662109375
0.0
0.0
0.0
-0.0003662109375
0.0
-0.0003662109375
0.0
0.0003662109375
0.0
0.0
0.0
-0.0003662109375
0.0
0.0003662109375
0.0
0.0003662109375
0.0
0.0
0.0
0.0
0.0
-0.0003662109375
0.0
0.0
0.0
0.0003662109375
0.0
0.0
0.0
0.0
0.0
0.0
0.0
-0.0003662109375
0.0
0.0
0.0
0.0
0.0
-0.0003662109375
0.0
0.0003662109375
0.0
0.0003662109375
0.0
-0.0003662109375
0.0
-0.0003662109375
0.0
0.0003662109375
0.0003662109375
0.0
0.0
-0.0003662109375
-0.0003662109375
0.0003662109375
0.0
0.0003662109375
0.0
0.0
-0.0003662109375
-0.0003662109375
0.0
0.0
0.0003662109375
0.0003662109375
0.0
0.0
0.0
-0.0003662109375
0.0
0.0
0.0
0.0003662109375
0.0
0.0
0.0
0.0
0.0
0.0
0.0
0.0054931640625
0.0
0.037017822265625
0.0
0.053497314453125
0.0
0.046875
0.0
0.0450439453125
0.0
0.0252685546875
0.0
0.0201416015625
0.0
0.025634765625
0.0
0.0428466796875
0.0
0.0498046875
0.0
0.0267333984375
0.0
0.1080322265625
-0.0216064453125
1.0
-1.0
1.0
-1.0
0.0003662109375
-0.0003662109375
0.0
0.0
0.0
0.0
0.0003662109375
0.0
0.0
0.0
-0.0003662109375
0.0
0.0003662109375
0.0
0.0
0.0
-0.0003662109375
0.0
0.0003662109375
0.0
0.0
0.0
-0.0003662109375
0.0
0.0
0.0
0.0
0.0
0.0
-0.0003662109375
0.0003662109375
0.0
0.0003662109375
0.0003662109375
0.0
-0.0003662109375
-0.0003662109375
0.0
0.0
0.0003662109375
0.0
0.0
0.0
0.0
0.0
0.0
-0.0003662109375
0.0
0.0
0.0
0.0
0.0
0.0003662109375
0.0
0.0003662109375
0.0
-0.0003662109375
-0.0003662109375
-0.092681884765625
0.0
-0.634368896484375
0.44464111328125
-0.918182373046875
0.804290771484375
-0.77935791015625
0.754486083984375
-0.47613525390625
0.687103271484375
-0.072906494140625
0.292999267578125
0.0
0.0003662109375
-0.0003662109375
0.0
0.0
0.0
0.0003662109375
0.0
0.0
0.0
0.0
0.0
0.0
0.0
0.0
0.0
0.0
0.0
0.0
0.0
0.0
0.0
-0.0003662109375
0.0
-0.0003662109375
0.0
0.0003662109375
0.0
0.0003662109375
0.0
0.0
0.0
0.0
0.0
0.0
0.0
0.0
0.0
-0.0003662109375
0.0
0.0
0.0
0.0
0.0
0.0
0.0
0.0003662109375
0.0
0.0
0.0
-0.0003662109375
0.0
0.0
0.0
0.0
0.0
-0.0003662109375
0.0
0.0003662109375
0.0
0.0
0.0
0.0
0.0
0.0003662109375
0.0
0.0
0.0
0.0
0.0
0.0
0.0
-0.0003662109375
0.0
0.0
0.0
0.0003662109375
0.0
-0.0003662109375
0.0
0.0
0.0
0.0
0.0
0.0
0.0
0.0
-0.0003662109375
0.0
0.0
0.0003662109375
0.0003662109375
0.0
0.0
-0.0003662109375
0.0
-0.0003662109375
0.0
0.0
0.0
0.0003662109375
0.0
0.0003662109375
0.0
0.0
0.0
0.0
0.0
0.0
0.0
0.0
0.0
0.0
0.0
-0.0003662109375
0.0
0.0
0.0
0.0003662109375
0.0
0.0
0.0
0.0
0.0
-0.0003662109375
0.0
0.0
0.0
0.0
0.0
0.0
0.0
0.0
0.0
-0.0003662109375
0.0
0.0003662109375
0.0
0.0003662109375
0.0
0.0
0.0
0.0
0.0
0.0
0.0
-0.0003662109375
0.0
-0.0003662109375
0.0
0.0003662109375
0.0
0.0003662109375
0.0
0.0
0.0
0.0
0.0
0.0
0.0
-0.0003662109375
0.0
0.0
0.0
0.0
0.0
0.0
0.0
0.0003662109375
0.0
0.0
0.0
0.0
0.0
0.0
0.0
0.0
0.0
-0.0003662109375
0.0
-0.0003662109375
0.0
0.0
0.0
0.0003662109375
0.0
0.0003662109375
0.0
0.0
0.0
0.0
0.0
0.0
0.0
0.0
0.0
-0.0003662109375
0.0
0.0
0.0
0.0
0.0
0.0
0.0
0.0
0.0
0.0
0.0
0.0003662109375
0.0
0.0
0.0
0.0
0.0
0.0
0.0
-0.0003662109375
0.0
0.0
0.0
0.0
0.0
-0.0003662109375
0.0
0.0003662109375
0.0
0.0003662109375
0.0
0.0
0.0
0.0
0.0
-0.0003662109375
0.0
0.0
0.0
0.0003662109375
0.0
-0.0003662109375
0.0
-0.0003662109375
0.0
0.0
0.0
0.0
0.0
0.0003662109375
0.0
0.0003662109375
0.0
0.0
0.0
0.0
0.0
0.0
0.0
0.0
0.0
0.0
0.0
-0.0003662109375
0.0
0.0
0.0
0.0003662109375
0.0
0.0
0.0
0.0
0.0
0.0
0.0
0.0
0.0
-0.0003662109375
0.0
0.0
0.0
0.0
0.0
0.0
0.0
0.0003662109375
0.0
-0.0003662109375
0.0
-0.0003662109375
0.0
0.0003662109375
0.0
0.0003662109375
0.0
0.0
0.0
0.0
0.0
0.0
0.0
0.116851806640625
-0.039947509765625
1.0
-1.0
1.0
-1.0
0.0003662109375
-0.0003662109375
0.0
0.0
0.0
0.0
0.006591796875
-0.0010986328125
0.0
0.0
-0.006591796875
0.0010986328125
-1.0
1.0
-1.0
1.0
-0.40802001953125
0.48822021484375
-0.0003662109375
0.0003662109375
0.0003662109375
0.0
0.0003662109375
0.0
0.0
0.0
-0.0003662109375
0.0
0.0
0.0
0.0
0.0
-0.0003662109375
0.0
0.0003662109375
0.0
1.0
-1.0
1.0
-1.0
-0.003662109375
0.0010986328125
0.0003662109375
-0.0003662109375
0.0003662109375
0.0
-0.0003662109375
0.0003662109375
-0.0003662109375
0.0
0.0003662109375
0.0
0.0
0.0
-0.0003662109375
0.0
-1.0
1.0
-1.0
1.0
-0.0010986328125
0.0018310546875
-0.0003662109375
0.0
-0.0003662109375
0.0
0.0003662109375
0.0
0.0003662109375
0.0
0.0
0.0
-0.0003662109375
0.0
0.0
0.0
0.0003662109375
0.0
-0.0003662109375
0.0
0.0
0.0
0.0003662109375
0.0
0.0
0.0
-0.0003662109375
0.0
0.0
0.0
0.0003662109375
0.0
-0.0003662109375
0.0
0.0
0.0
0.0003662109375
0.0
0.0
0.0
0.0
0.0
0.0
0.0
0.0
0.0
0.0
0.0
0.0
0.0
0.0
0.0
0.0
0.0
1.0
-1.0
1.0
-1.0
-1.0
1.0
-1.0
1.0
0.005859375
-0.0062255859375
0.0
0.0
-0.0003662109375
-0.0003662109375
0.0
0.0
0.0003662109375
0.0003662109375
-0.0003662109375
0.0
0.0
0.0
0.0003662109375
0.0
0.0
0.0
-0.0003662109375
0.0
0.0
0.0
0.0
0.0
0.0
0.0
0.0003662109375
0.0
0.0
0.0
0.0
0.0
-0.0003662109375
0.0
0.0
0.0
0.0
0.0
0.0
0.0
0.0003662109375
0.0
0.0
0.0003662109375
0.0
0.0
0.0
-0.0003662109375
0.0
0.0
0.0
0.0
0.0
0.0
0.0
0.0
-0.0003662109375
0.0
0.0
0.0
0.0003662109375
0.0
-0.0003662109375
0.0
0.0
0.0
0.0003662109375
0.0
0.0
0.0
1.0
-1.0
1.0
-1.0
-0.006591796875
0.0010986328125
0.0003662109375
0.0
0.0
0.0
0.0
0.0
0.0003662109375
0.0
0.0
0.0
-0.0003662109375
0.0
0.0003662109375
0.0
0.0003662109375
0.0
-0.0003662109375
0.0
-0.0003662109375
0.0
0.0
0.0
0.0
0.0
0.0
0.0
0.0003662109375
0.0
0.0003662109375
0.0
-0.0018310546875
0.0
-1.0
1.0
0.00146484375
0.0
1.0
-1.0
0.0003662109375
0.0
0.0
0.0
-0.0003662109375
0.0
0.0
0.0
0.0
-0.0003662109375
0.0
0.0
0.0003662109375
0.0003662109375
0.0003662109375
0.0
-0.0003662109375
0.0
-0.0003662109375
0.0
0.0003662109375
0.0003662109375
0.0
0.0
-0.0003662109375
-0.0003662109375
0.0
0.0
0.0
0.0
0.0
0.0
0.0
0.0
0.0
-0.0003662109375
0.0
0.0
0.0003662109375
0.0003662109375
0.0
-0.0003662109375
0.0
0.0
0.0003662109375
0.0003662109375
-0.0003662109375
-0.0003662109375
-0.0003662109375
0.0
0.0
0.0003662109375
0.0
-0.0003662109375
0.0003662109375
0.0
0.0003662109375
0.0003662109375
-0.0003662109375
0.0
-0.0003662109375
0.0
0.0003662109375
0.0
0.0003662109375
0.0
-0.0003662109375
0.0
0.0
0.0
0.0003662109375
0.0
-0.0003662109375
0.0
-0.0003662109375
-0.0003662109375
0.0
0.0
0.0003662109375
0.0003662109375
0.0
0.0
0.0
0.0
0.0
0.0
-0.0003662109375
0.0
0.0
-0.0003662109375
0.0003662109375
-0.0003662109375
0.0
0.0003662109375
-0.0003662109375
0.0
0.0
0.0
0.0003662109375
0.0003662109375
0.0
0.0
-0.0003662109375
0.0
0.0
-0.0003662109375
0.0
0.0
0.0
0.0003662109375
0.0003662109375
0.0
0.0
0.0
0.0
0.0
0.0003662109375
0.0
0.0
-0.0003662109375
0.0
0.0
0.0
0.0003662109375
-0.0003662109375
0.0
-0.0003662109375
0.0
0.0
0.0
0.0
0.0
-0.045440673828125
0.0
-0.168487548828125
0.0
-0.234375
0.0
0.0032958984375
-0.0003662109375
-0.0120849609375
-0.0003662109375
-1.0
0.736175537109375
-1.0
0.753021240234375
1.0
-0.736175537109375
1.0
-0.752655029296875
-0.243896484375
0.0
-0.304718017578125
-0.0003662109375
0.177978515625
0.0003662109375
0.57318115234375
0.0003662109375
0.41351318359375
-0.0003662109375
0.082427978515625
0.0
0.000732421875
0.282012939453125
0.0003662109375
0.167388916015625
-0.0003662109375
-0.264801025390625
-0.0003662109375
-0.0498046875
0.0
0.191558837890625
0.0
-0.0032958984375
0.0003662109375
-0.1468505859375
0.0003662109375
-0.063720703125
-0.0003662109375
-0.038482666015625
0.0
-0.023468017578125
0.0
0.026763916015625
-0.0003662109375
0.059722900390625
0.0003662109375
0.1292724609375
0.0
0.07763671875
-0.0003662109375
0.043212890625
0.0003662109375
0.09814453125
0.0003662109375
-0.0677490234375
-0.0003662109375
-0.175048828125
-0.070709228515625
-0.0816650390625
-0.156036376953125
-0.087554931640625
-0.455596923828125
-0.072906494140625
-0.58013916015625
0.0
-0.305450439453125
0.0
-0.207672119140625
-0.0003662109375
-0.145782470703125
-0.0003662109375
-0.0545654296875
0.0
-0.030029296875
0.0003662109375
-0.002197265625
0.0
0.010986328125
0.034454345703125
0.006591796875
0.085723876953125
-0.04833984375
0.079833984375
-0.1318359375
0.131103515625
-0.185699462890625
0.274688720703125
-0.183135986328125
0.324127197265625
-0.1219482421875
0.251983642578125
-0.0413818359375
0.136627197265625
0.0560302734375
0.0087890625
0.0802001953125
0.1336669921875
0.0926513671875
-0.059356689453125
0.0908203125
-0.246856689453125
0.071075439453125
-0.0853271484375
0.075469970703125
-0.0186767578125
0.04833984375
0.040283203125
0.04833984375
0.01611328125
0.057861328125
-0.00732421875
0.044677734375
-0.01611328125
0.0179443359375
0.0098876953125
0.0029296875
0.019775390625
-0.0084228515625
0.03955078125
-0.00146484375
0.067413330078125
0.03662109375
0.038482666015625
0.0574951171875
-0.017578125
0.0457763671875
-0.012451171875
0.0322265625
-0.0025634765625
0.03369140625
0.00439453125
0.036285400390625
0.0303955078125
0.031158447265625
0.041748046875
0.03515625
0.0201416015625
0.0318603515625
0.0025634765625
0.0179443359375
0.0120849609375
0.0146484375
0.0516357421875
0.0406494140625
0.0142822265625
0.0142822265625
-0.006591796875
-0.019775390625
0.0465087890625
0.0
0.025634765625
0.0069580078125
0.006591796875
0.005859375
0.032958984375
-0.0091552734375
0.043212890625
-0.006591796875
0.030029296875
0.002197265625
0.0
0.013916015625
-0.0054931640625
0.0120849609375
0.0128173828125
0.0032958984375
0.017578125
0.0062255859375
0.0113525390625
0.0025634765625
0.0040283203125
0.005859375
-0.00146484375
0.0047607421875
-0.0010986328125
0.0032958984375
0.006591796875
0.0120849609375
-0.0032958984375
0.006591796875
-0.003662109375
-0.0018310546875
0.002197265625
0.0025634765625
-0.0076904296875
-0.0047607421875
0.0146484375
0.018310546875
-0.0025634765625
0.00732421875
-0.0260009765625
-0.016845703125
0.0010986328125
-0.0069580078125
0.00146484375
-0.000732421875
0.002197265625
0.00146484375
0.0003662109375
-0.0084228515625
-0.0106201171875
-0.002197265625
-0.01611328125
0.0032958984375
-0.0087890625
0.01025390625
-0.0025634765625
0.0146484375
0.010986328125
0.008056640625
0.0076904296875
-0.000732421875
-0.0146484375
0.0029296875
-0.0179443359375
-0.000732421875
-0.0076904296875
-0.0025634765625
0.00732421875
0.000732421875
0.0223388671875
-0.0003662109375
0.0069580078125
0.0029296875
-0.0142822265625
0.005859375
-0.010986328125
0.005126953125
-0.0084228515625
0.0018310546875
0.009521484375
-0.0010986328125
0.0238037109375
-0.0062255859375
0.01171875
-0.0047607421875
-0.0098876953125
-0.00439453125
-0.017578125
-0.0062255859375
-0.0205078125
-0.0091552734375
0.0018310546875
-0.0091552734375
0.03369140625
-0.012451171875
0.0234375
-0.0098876953125
0.0018310546875
0.0054931640625
0.0098876953125
0.0216064453125
-0.000732421875
-0.0025634765625
-0.0443115234375
-0.02490234375
0.002197265625
-0.0113525390625
0.04833984375
-0.0040283203125
0.0076904296875
0.0032958984375
-0.0120849609375
-0.0040283203125
-0.017578125
-0.0098876953125
-0.0208740234375
-0.0010986328125
-0.0113525390625
0.0069580078125
0.0142822265625
0.01171875
0.01171875
0.009521484375
-0.0087890625
0.0091552734375
-0.0146484375
0.006591796875
-0.0150146484375
-0.0040283203125
-0.00439453125
0.000732421875
0.00439453125
0.01025390625
0.002197265625
0.0076904296875
-0.0010986328125
0.0040283203125
-0.01171875
-0.00439453125
-0.010986328125
-0.0062255859375
-0.003662109375
0.01171875
0.010986328125
0.019775390625
0.0069580078125
0.0128173828125
-0.0164794921875
0.0113525390625
-0.019775390625
0.0146484375
-0.0234375
0.005859375
-0.00439453125
0.005859375
0.005126953125
0.012451171875
0.0054931640625
-0.0003662109375
0.01025390625
0.003662109375
0.0018310546875
0.037353515625
-0.01025390625
0.00439453125
-0.0318603515625
-0.029296875
0.0054931640625
0.003662109375
0.0289306640625
0.005126953125
0.0032958984375
-0.0025634765625
-0.002197265625
-0.0029296875
-0.013916015625
-0.0025634765625
-0.009521484375
-0.0032958984375
-0.0047607421875
0.0029296875
0.005859375
0.0128173828125
0.0106201171875
0.0084228515625
-0.00146484375
-0.0025634765625
-0.0032958984375
-0.0062255859375
-0.012451171875
0.0029296875
-0.01025390625
0.005126953125
0.0032958984375
0.0025634765625
0.005126953125
-0.0018310546875
-0.0003662109375
-0.0069580078125
-0.0098876953125
-0.0087890625
-0.0025634765625
0.00146484375
0.0025634765625
0.0040283203125
0.005126953125
-0.0040283203125
0.0120849609375
-0.000732421875
0.0040283203125
-0.0062255859375
0.0201416015625
0.016845703125
-0.022705078125
0.0054931640625
-0.03076171875
-0.024169921875
0.032958984375
-0.0040283203125
0.0201416015625
-0.0025634765625
0.0018310546875
-0.005126953125
-0.0010986328125
-0.0025634765625
-0.008056640625
-0.0084228515625
-0.0076904296875
-0.00732421875
0.008056640625
0.00146484375
0.018310546875
-0.0010986328125
0.0135498046875
-0.006591796875
0.00732421875
-0.0164794921875
-0.000732421875
-0.013916015625
-0.0087890625
-0.0032958984375
0.0054931640625
-0.0025634765625
0.01904296875
-0.0054931640625
0.0135498046875
-0.0029296875
-0.0029296875
0.0032958984375
-0.0146484375
-0.0040283203125
-0.005126953125
-0.0084228515625
0.0106201171875
-0.002197265625
0.010986328125
0.0025634765625
0.0054931640625
0.0
0.0010986328125
0.003662109375
0.0069580078125
0.0296630859375
-0.0391845703125
-0.0029296875
-0.037353515625
-0.025634765625
0.0238037109375
-0.0003662109375
0.015380859375
-0.005126953125
0.0054931640625
-0.0040283203125
0.005859375
0.0025634765625
0.0010986328125
-0.0010986328125
-0.0106201171875
-0.00146484375
-0.013916015625
0.0087890625
-0.013916015625
0.0091552734375
-0.00732421875
0.009521484375
0.005859375
0.01318359375
0.00732421875
0.0054931640625
0.01318359375
0.0029296875
-0.01318359375
0.0263671875
-0.0582275390625
0.0267333984375
-0.040283203125
0.0069580078125
-0.0054931640625
0.003662109375
-0.0029296875
-0.0047607421875
0.1461181640625
0.018310546875
-0.01171875
0.0069580078125
-0.1314697265625
-0.0186767578125
0.03076171875
0.002197265625
-0.006591796875
0.008056640625
-0.012451171875
0.005126953125
-0.0029296875
0.0
0.0010986328125
0.002197265625
0.00439453125
0.006591796875
0.0062255859375
0.0201416015625
-0.0128173828125
0.022705078125
-0.02490234375
0.01904296875
-0.01611328125
0.015380859375
-0.0087890625
0.0047607421875
-0.003662109375
0.0113525390625
-0.0010986328125
0.009521484375
-0.0084228515625
0.0018310546875
-0.0062255859375
-0.000732421875
0.0018310546875
0.0
-0.0003662109375
0.0040283203125
0.0032958984375
-0.002197265625
0.0091552734375
0.00439453125
0.0054931640625
0.002197265625
-0.0076904296875
-0.0076904296875
-0.0029296875
-0.0047607421875
0.0128173828125
-0.0010986328125
0.0113525390625
0.0069580078125
-0.0029296875
0.0040283203125
-0.0040283203125
-0.0084228515625
0.005126953125
-0.005859375
0.0040283203125
0.0025634765625
0.00732421875
0.005859375
0.009521484375
-0.0003662109375
0.0087890625
-0.003662109375
0.0296630859375
0.0186767578125
0.002197265625
0.01025390625
-0.0322265625
-0.00439453125
-0.009521484375
0.00439453125
0.006591796875
0.002197265625
-0.0003662109375
-0.0025634765625
-0.0040283203125
0.0010986328125
-0.0025634765625
0.013916015625
-0.0142822265625
0.019775390625
-0.000732421875
0.0106201171875
0.0106201171875
0.015045166015625
0.0069580078125
0.015411376953125
0.00439453125
-0.006622314453125
0.005126953125
-0.021636962890625
0.005859375
-0.0318603515625
0.0076904296875
-0.0267333984375
0.000732421875
-0.017578125
-0.002197265625
-0.0208740234375
0.017578125
-0.0230712890625
0.0234375
-0.0216064453125
0.0084228515625
-0.0135498046875
-0.0029296875
-0.01611328125
-0.01025390625
-0.0128173828125
-0.01611328125
-0.00439453125
0.003662109375
-0.01171875
0.027099609375
-0.01318359375
0.0194091796875
-0.00439453125
0.0
0.002197265625
-0.009521484375
0.002197265625
-0.0135498046875
0.003662109375
-0.015380859375
-0.0172119140625
0.0172119140625
-0.029296875
0.076904296875
-0.006591796875
0.178375244140625
-0.0087890625
0.0091552734375
0.0142822265625
-0.199249267578125
0.0274658203125
-0.0787353515625
-0.0054931640625
0.00439453125
-0.0084228515625
0.0040283203125
-0.0029296875
-0.000732421875
0.0
-0.028564453125
-0.000732421875
-0.0362548828125
-0.0010986328125
-0.0062255859375
-0.0032958984375
0.0421142578125
-0.0091552734375
0.064453125
-0.005859375
0.0245361328125
0.000732421875
-0.008056640625
0.0040283203125
-0.00732421875
0.002197265625
-0.0076904296875
-0.0032958984375
0.0
-0.0029296875
0.01025390625
0.0018310546875
-0.0029296875
0.00439453125
-0.0091552734375
0.006591796875
-0.0069580078125
-0.003662109375
0.09814453125
0.0201416015625
-0.0377197265625
0.0091552734375
-0.101806640625
-0.016845703125
0.04248046875
0.009521484375
-0.00146484375
0.01611328125
-0.0172119140625
0.0091552734375
-0.008056640625
-0.00439453125
0.012451171875
-0.01025390625
0.017578125
0.0
0.005126953125
0.02197265625
-0.022705078125
0.018310546875
-0.028564453125
0.012451171875
-0.0150146484375
0.009521484375
0.0018310546875
-0.0069580078125
0.032958984375
-0.003662109375
0.022705078125
0.0040283203125
-0.01171875
0.01025390625
-0.0230712890625
0.01171875
-0.0179443359375
0.00146484375
-0.0029296875
-0.00732421875
0.006591796875
-0.006591796875
0.015380859375
-0.00439453125
0.005126953125
0.000732421875
-0.0084228515625
-0.0146484375
0.1505126953125
0.00146484375
-0.0274658203125
0.008056640625
-0.15234375
-0.0194091796875
0.0399169921875
-0.003662109375
0.0069580078125
-0.002197265625
-0.00439453125
-0.009521484375
-0.0025634765625
-0.0069580078125
0.00146484375
-0.015380859375
0.0150146484375
-0.019775390625
0.0150146484375
-0.01171875
-0.000732421875
-0.018310546875
-0.0010986328125
-0.028564453125
0.01318359375
-0.018310546875
0.0296630859375
-0.0062255859375
0.0380859375
-0.010986328125
0.0274658203125
-0.0238037109375
0.01171875
-0.0223388671875
0.01025390625
-0.0216064453125
0.0135498046875
-0.02197265625
0.0281982421875
-0.01318359375
0.038818359375
0.0025634765625
0.0205078125
0.0157470703125
-0.0029296875
0.0179443359375
-0.0135498046875
0.009521484375
-0.003662109375
0.0054931640625
0.01025390625
0.0076904296875
0.0318603515625
-0.0032958984375
0.033721923828125
-0.0010986328125
0.0018310546875
0.01611328125
-0.034088134765625
0.038818359375
-0.0604248046875
0.0780029296875
-0.0831298828125
0.0421142578125
-0.0201416015625
-0.0018310546875
0.03369140625
-0.0970458984375
0.083892822265625
-0.0421142578125
0.0355224609375
0.1087646484375
-0.095245361328125
0.1270751953125
-0.1343994140625
0.0439453125
-0.050537109375
-0.136962890625
0.13623046875
-0.093017578125
0.098876953125
0.0216064453125
-0.0267333984375
0.025634765625
-0.040283203125
0.0062255859375
-0.025634765625
-0.0047607421875
0.000732421875
-0.0062255859375
0.0128173828125
-0.01318359375
-0.0003662109375
-0.005859375
-0.003662109375
0.00146484375
0.00439453125
-0.0025634765625
-0.002197265625
-0.0069580078125
-0.0164794921875
-0.01025390625
-0.018310546875
-0.0040283203125
-0.0164794921875
0.0054931640625
-0.01318359375
0.006591796875
-0.006591796875
0.00439453125
-0.0106201171875
-0.000732421875
-0.0274658203125
-0.0029296875
-0.0450439453125
0.019775390625
-0.0966796875
0.0263671875
-0.10107421875
0.006591796875
-0.051666259765625
-0.005859375
-0.038116455078125
-0.0047607421875
-0.0472412109375
0.005859375
-0.081298828125
0.0157470703125
-0.0758056640625
0.03662109375
-0.10400390625
0.0029296875
-0.0750732421875
-0.0018310546875
-0.0531005859375
0.029296875
-0.093414306640625
0.0113525390625
-0.060455322265625
0.00146484375
-0.0369873046875
-0.005126953125
-0.0157470703125
-0.0128173828125
0.0029296875
-0.0245361328125
0.02783203125
-0.0230712890625
0.029296875
-0.0040283203125
0.0040283203125
-0.000732421875
0.017578125
-0.005126953125
0.035919189453125
-0.003662109375
0.038116455078125
-0.0091552734375
0.05712890625
-0.0076904296875
0.050537109375
-0.006591796875
0.0318603515625
-0.003662109375
0.0208740234375
0.0223388671875
-0.0296630859375
0.0040283203125
0.0238037109375
-0.019775390625
0.0867919921875
-0.005859375
0.0439453125
0.00146484375
0.0318603515625
-0.0003662109375
0.0325927734375
-0.0040283203125
0.0087890625
0.0
-0.0106201171875
0.0010986328125
0.01318359375
0.0025634765625
0.0439453125
0.000732421875
0.0479736328125
-0.00439453125
0.0238037109375
-0.009521484375
0.0032958984375
-0.002197265625
0.0003662109375
0.0087890625
0.01318359375
0.0047607421875
0.0194091796875
0.00439453125
0.022003173828125
0.0003662109375
0.024932861328125
-0.01171875
0.017578125
-0.005126953125
0.0106201171875
0.0010986328125
0.0084228515625
0.0029296875
0.015380859375
0.0076904296875
0.0120849609375
0.0076904296875
0.0120849609375
-0.0003662109375
0.0164794921875
-0.0076904296875
0.0106201171875
-0.0040283203125
0.00439453125
-0.0018310546875
0.0
-0.00146484375
0.0032958984375
-0.0032958984375
0.0194091796875
0.005859375
0.03369140625
0.0267333984375
-0.02490234375
-0.006591796875
-0.01171875
-0.0208740234375
0.03515625
0.0040283203125
0.012451171875
0.0091552734375
0.0172119140625
0.0076904296875
0.0201416015625
-0.0029296875
0.01318359375
-0.01025390625
0.0091552734375
-0.01171875
0.01171875
-0.00732421875
0.01171875
0.005859375
0.02197265625
0.005126953125
0.03369140625
-0.0054931640625
0.02783203125
0.003662109375
0.01025390625
0.0120849609375
0.00146484375
0.0106201171875
-0.00439453125
0.006591796875
-0.005126953125
0.003662109375
0.0018310546875
-0.0010986328125
0.005859375
0.0029296875
0.005859375
0.0054931640625
-0.002197265625
0.00439453125
-0.0047607421875
0.0054931640625
-0.002197265625
-0.0032958984375
0.006591796875
-0.00439453125
0.01025390625
-0.002197265625
0.002197265625
-0.0084228515625
0.0010986328125
-0.0252685546875
0.159332275390625
0.010986328125
-0.0509033203125
0.0157470703125
-0.177276611328125
-0.0238037109375
0.04248046875
-0.0150146484375
0.0150146484375
-0.015380859375
0.006591796875
-0.005126953125
-0.0029296875
-0.0040283203125
-0.01171875
-0.0172119140625
-0.008056640625
-0.0135498046875
0.0003662109375
0.000732421875
-0.0018310546875
0.0
0.0062255859375
-0.002197265625
0.0238037109375
-0.0032958984375
0.013916015625
-0.0025634765625
0.00146484375
0.0018310546875
-0.0025634765625
-0.0010986328125
-0.0069580078125
0.0062255859375
-0.0157470703125
-0.000732421875
-0.0142822265625
0.0040283203125
0.105133056640625
0.025634765625
-0.0234375
0.00732421875
-0.104400634765625
-0.0069580078125
0.0135498046875
0.0069580078125
-0.0252685546875
0.00439453125
-0.0186767578125
-0.0098876953125
-0.0010986328125
-0.0216064453125
0.0194091796875
-0.0146484375
0.017578125
0.003662109375
-0.00732421875
0.0150146484375
-0.022705078125
0.0120849609375
-0.012451171875
0.00439453125
0.002197265625
-0.0040283203125
0.0018310546875
0.0010986328125
0.0
0.002197265625
-0.00146484375
-0.000732421875
-0.01025390625
0.005126953125
0.002197265625
-0.0076904296875
0.016845703125
-0.003662109375
0.0
0.005126953125
-0.005859375
0.0029296875
-0.00439453125
-0.002197265625
-0.0040283203125
-0.0032958984375
0.00146484375
0.0010986328125
0.0018310546875
-0.0113525390625
0.003662109375
-0.010986328125
0.00439453125
0.0003662109375
-0.00439453125
-0.00732421875
0.002197265625
-0.0252685546875
0.032958984375
-0.0296630859375
0.0362548828125
-0.02197265625
0.0281982421875
-0.021240234375
0.0223388671875
-0.012451171875
0.0040283203125
-0.0025634765625
0.068145751953125
0.005859375
0.079132080078125
0.06298828125
-0.116119384765625
0.1072998046875
-0.168853759765625
0.0860595703125
-0.117919921875
0.0838623046875
-0.123779296875
0.082427978515625
-0.147979736328125
0.074005126953125
-0.42376708984375
0.08203125
-0.51898193359375
0.0633544921875
-0.193756103515625
-0.40216064453125
-0.000732421875
-0.791473388671875
-0.0003662109375
-0.401763916015625
0.0
0.07470703125
0.0
0.59185791015625
0.0
0.687835693359375
0.0
0.331817626953125
0.0003662109375
0.146484375
0.0003662109375
0.031494140625
0.0
0.160430908203125
0.0
0.248687744140625
0.0
0.216094970703125
0.113189697265625
0.115753173828125
0.225616455078125
0.0
0.0860595703125
0.0
-0.0391845703125
0.0
0.071044921875
0.0
0.237335205078125
0.0
0.33843994140625
0.0
0.350128173828125
0.0
0.2391357421875
0.0
-0.0380859375
0.0
-0.1702880859375
0.0
-0.55413818359375
0.0
-0.677581787109375
0.0
-0.181304931640625
0.0
1.0
0.0003662109375
1.0
0.0
0.0003662109375
0.0
0.0
0.0003662109375
0.0
-1.0
-0.000732421875
-1.0
-0.000732421875
-0.0142822265625
0.0
0.0
0.0
0.0
0.0
0.088653564453125
0.0
0.0
0.0
1.0
0.000732421875
0.035552978515625
0.0
-1.0
-0.000732421875
-0.035552978515625
0.0
0.0
0.0
0.0
0.0
1.0
0.000732421875
1.0
0.000732421875
-0.0018310546875
0.0
0.0
0.0
0.0
-0.0003662109375
0.0
0.0
0.0
0.0003662109375
0.0
0.0
0.0
0.0
0.0
0.0
0.0
0.0
0.0
0.0
-0.862518310546875
-0.000732421875
-1.0
-0.005126953125
-0.51971435546875
-0.032623291015625
-0.173980712890625
-0.056793212890625
-0.104400634765625
-0.052734375
-0.000732421875
-0.040283203125
-0.0003662109375
-0.0234375
0.0
-0.0194091796875
0.0003662109375
0.0010986328125
0.0003662109375
0.0245361328125
0.0
0.0391845703125
0.0
-0.0142822265625
-0.0003662109375
-0.027099609375
0.0
0.0146484375
0.0003662109375
-0.0128173828125
0.0
-0.01904296875
0.0
-0.0186767578125
-0.0003662109375
-0.0289306640625
0.0
-0.0238037109375
0.0003662109375
-0.012451171875
0.0
0.0128173828125
-0.0003662109375
0.019775390625
0.0
-0.0025634765625
0.0003662109375
-0.016845703125
0.0
-0.022705078125
0.0
-0.0113525390625
-0.0003662109375
0.0010986328125
-0.0003662109375
0.00146484375
0.0003662109375
-0.0128173828125
0.0
-0.0194091796875
0.0
-0.0322265625
0.0003662109375
-0.041748046875
-0.0003662109375
-0.018310546875
-0.0003662109375
-0.0054931640625
0.0003662109375
-0.01611328125
0.0
-0.024169921875
0.0
-0.0369873046875
0.0
-0.0567626953125
0.0
-0.065582275390625
0.0003662109375
-0.061187744140625
-0.0003662109375
-0.0531005859375
0.0
-0.03369140625
0.0003662109375
0.00439453125
-0.0003662109375
0.03076171875
0.0
0.0098876953125
0.0003662109375
0.142120361328125
-0.0003662109375
0.008056640625
0.0
-0.117218017578125
0.0
-0.01611328125
0.0
-0.030029296875
0.0
0.02490234375
0.0
0.0369873046875
0.0003662109375
0.113189697265625
0.0
-0.0120849609375
0.0
-0.171051025390625
-0.0003662109375
-0.0999755859375
-0.0003662109375
-0.047607421875
0.0003662109375
-0.02197265625
0.0003662109375
-0.034423828125
0.0
-0.052734375
0.0
-0.016845703125
0.0
0.03076171875
0.0
0.0498046875
0.0
0.059326171875
0.0
0.02490234375
-0.0003662109375
-0.0439453125
-0.0003662109375
-0.0596923828125
0.0003662109375
-0.01904296875
0.0
0.003662109375
0.0
-0.01025390625
0.0
-0.0487060546875
0.0
-0.0633544921875
0.0003662109375
-0.010986328125
0.0
-0.01318359375
0.0
-0.009521484375
0.0
0.012451171875
-0.0003662109375
-0.019775390625
0.0
-0.036285400390625
0.0003662109375
-0.064117431640625
-0.0003662109375
-0.0604248046875
-0.0003662109375
-0.0216064453125
0.0
-0.00439453125
0.0003662109375
-0.0157470703125
0.0
-0.0260009765625
0.0
-0.0186767578125
0.0003662109375
-0.01318359375
0.0
-0.0029296875
-0.0003662109375
0.0098876953125
0.0
0.01318359375
0.0003662109375
-0.005126953125
0.0
-0.0172119140625
0.0
-0.009521484375
0.0
-0.0047607421875
0.0
0.008056640625
-0.0003662109375
0.0186767578125
0.0
0.00439453125
0.0003662109375
0.0032958984375
-0.0003662109375
0.0113525390625
-0.0003662109375
0.005859375
0.0076904296875
0.108062744140625
0.037750244140625
-0.021240234375
0.038116455078125
-0.096710205078125
0.03955078125
0.03515625
0.0538330078125
-0.0087890625
0.0362548828125
-0.012451171875
0.0322265625
0.0029296875
0.03076171875
0.0047607421875
0.01904296875
0.01318359375
0.025634765625
0.0205078125
0.02783203125
0.01318359375
0.0245361328125
0.00146484375
0.0245361328125
0.0032958984375
0.0245361328125
-0.0032958984375
0.027099609375
-0.01025390625
0.024169921875
0.0032958984375
0.02783203125
0.0054931640625
0.0263671875
-0.0047607421875
0.0238037109375
-0.0010986328125
0.029296875
-0.0029296875
0.03076171875
-0.01025390625
0.027496337890625
0.0164794921875
0.025299072265625
0.022705078125
0.0263671875
0.01171875
0.0439453125
-0.01904296875
0.0296630859375
-0.0355224609375
0.00146484375
0.00732421875
0.01171875
0.0164794921875
0.0208740234375
0.0164794921875
0.01025390625
0.0245361328125
0.005859375
0.01318359375
0.013916015625
0.0025634765625
0.0135498046875
-0.008056640625
0.01025390625
-0.01025390625
0.0025634765625
0.0120849609375
-0.000732421875
0.0186767578125
0.0054931640625
0.002197265625
0.012451171875
-0.0076904296875
0.0106201171875
-0.0084228515625
0.009521484375
-0.0084228515625
0.0146484375
0.009521484375
0.01171875
0.013916015625
0.013916015625
0.017578125
0.072509765625
-0.0465087890625
0.069580078125
-0.0303955078125
0.02490234375
0.0355224609375
0.000732421875
0.010986328125
0.184967041015625
-0.0977783203125
0.202545166015625
-0.10986328125
