-0.07470703125
-0.749725341796875
-0.198883056640625
-0.749725341796875
-0.271392822265625
0.0
-0.361846923828125
0.052764892578125
-0.39739990234375
0.146514892578125
-0.188995361328125
0.193359375
-0.0062255859375
0.1600341796875
0.0
0.041748046875
0.0
-0.064453125
0.0
-0.208740234375
0.0
-0.242095947265625
0.171051025390625
-0.079132080078125
0.189361572265625
0.0
-0.0479736328125
0.0
-0.1541748046875
0.0
-0.123077392578125
0.0
-0.035186767578125
0.0
0.0
0.054229736328125
0.0
0.109893798828125
0.0
0.148681640625
0.0
0.20654296875
0.0
0.209503173828125
0.0
0.171417236328125
0.0
0.107666015625
0.0
0.05859375
0.0
0.071044921875
0.0
0.087188720703125
0.0
0.081329345703125
0.0
0.0728759765625
0.0
0.0516357421875
0.0
0.0589599609375
0.0
0.0919189453125
0.0
0.110595703125
0.0
0.112091064453125
0.0
0.108795166015625
0.0
0.112060546875
0.0
0.1153564453125
0.0
0.10400390625
0.0
0.095977783203125
0.0
0.085357666015625
0.0
0.035888671875
0.0
0.0347900390625
0.0
0.0472412109375
0.0
0.02783203125
0.0
0.0230712890625
0.0
0.028564453125
0.0
0.0604248046875
0.0
0.06591796875
0.0
0.0208740234375
0.0
0.03662109375
0.0
0.0509033203125
0.0
0.0267333984375
0.0
0.052398681640625
0.0
0.046905517578125
0.0
0.0120849609375
0.0
0.0025634765625
0.0
0.0003662109375
0.0
-0.0003662109375
0.0
-0.0003662109375
0.0
0.0003662109375
0.0
0.0003662109375
0.0
-0.0003662109375
0.0
-0.0003662109375
0.0
0.0003662109375
0.0
0.0003662109375
0.0
0.0
0.0
0.0
0.0
0.0
0.0
-0.0003662109375
0.0
0.0
0.0
0.0003662109375
0.0
0.0
0.0
-0.0003662109375
0.0
0.0
0.0
0.0003662109375
0.0
-0.0003662109375
0.0
0.0
0.0
0.0003662109375
0.0
0.0
0.0
0.0
0.0
-0.0003662109375
0.0
0.0
0.0
0.0
0.0
0.0
0.0
0.0003662109375
0.0
0.0
0.0
0.0
0.0
0.0
0.0
-0.0003662109375
0.0
-0.00146484375
0.0
-0.0150146484375
0.0
-0.033355712890625
0.0
-0.0179443359375
0.0
-0.003662109375
0.0
-0.006256103515625
0.0
-0.006591796875
0.0
-0.0146484375
0.0
-0.0142822265625
0.0
-0.0179443359375
0.0
-0.0238037109375
0.0
-0.0128173828125
0.0
-0.006591796875
0.0
-0.0032958984375
0.0
-0.0069580078125
0.0
-0.0146484375
0.0
-0.000732421875
0.0
0.00439453125
0.0
0.000732421875
0.0
-0.0032958984375
0.0
-0.002197265625
0.0
-0.0040283203125
0.0
-0.017578125
0.0
0.00732421875
0.0
0.0098876953125
0.0
-0.0289306640625
0.0
-0.0234375
0.0
-0.0047607421875
0.0
-0.0091552734375
0.0
-0.0135498046875
0.0
-0.0076904296875
0.0
-0.0040283203125
0.0
-0.0069580078125
0.0
-0.0128173828125
0.0
-0.01611328125
0.00146484375
-0.013916015625
0.008056640625
-0.009521484375
0.00439453125
-0.0047607421875
0.005859375
-0.0091552734375
0.0179443359375
-0.0179443359375
0.00732421875
-0.012451171875
0.0
-0.0003662109375
0.0106201171875
-0.0018310546875
0.015777587890625
-0.006591796875
0.010284423828125
-0.005859375
0.00439453125
-0.0040283203125
0.0029296875
-0.005859375
0.010986328125
-0.010986328125
-0.0040283203125
0.0047607421875
0.0128173828125
0.00732421875
0.02490234375
-0.0245361328125
-0.0003662109375
-0.024169921875
0.006591796875
-0.0069580078125
0.005126953125
-0.0010986328125
0.006591796875
0.008056640625
0.000732421875
0.0091552734375
0.0
0.0032958984375
0.0128173828125
-0.005126953125
0.0234375
-0.0084228515625
0.0208740234375
-0.0018310546875
0.00732421875
0.0003662109375
0.01025390625
-0.005126953125
0.01318359375
-0.009521484375
0.006591796875
-0.0146484375
0.005859375
-0.0113525390625
0.0084228515625
-0.0029296875
0.009521484375
-0.0032958984375
0.0091552734375
-0.0029296875
0.0106201171875
-0.0054931640625
0.006591796875
-0.0054931640625
0.0091552734375
-0.005126953125
0.00146484375
-0.00146484375
0.003662109375
0.0098876953125
0.0234375
-0.0120849609375
0.012451171875
-0.03076171875
0.0040283203125
-0.02197265625
0.0106201171875
-0.006591796875
0.0047607421875
0.0032958984375
0.0040283203125
-0.0106201171875
0.0003662109375
-0.0084228515625
-0.0087890625
-0.013580322265625
0.013916015625
-0.012847900390625
0.021240234375
0.00146484375
0.0150146484375
-0.0084228515625
0.0128173828125
-0.0069580078125
0.01171875
-0.00439453125
0.010986328125
-0.0120849609375
0.005859375
-0.015380859375
0.0010986328125
-0.006591796875
0.0003662109375
0.0047607421875
0.0120849609375
0.0018310546875
0.005859375
-0.0029296875
0.009521484375
-0.003662109375
0.0146484375
-0.0091552734375
-0.0018310546875
-0.0098876953125
-0.0087890625
0.0062255859375
0.025634765625
0.01904296875
0.031494140625
-0.0245361328125
-0.0040283203125
-0.03955078125
-0.0010986328125
-0.0069580078125
0.0076904296875
-0.0032958984375
0.0054931640625
-0.0069580078125
0.0029296875
-0.0069580078125
-0.00439453125
-0.0025634765625
-0.006591796875
-0.0032958984375
0.0150146484375
-0.00732421875
0.022705078125
-0.00439453125
0.0087890625
-0.0010986328125
0.0032958984375
-0.006591796875
0.009521484375
-0.0069580078125
0.0113525390625
-0.013916015625
0.0076904296875
-0.009521484375
0.00439453125
0.0047607421875
0.0062255859375
-0.00732421875
0.0047607421875
-0.010986328125
0.004425048828125
0.000732421875
0.004425048828125
-0.003662109375
0.0062255859375
-0.008056640625
0.0029296875
-0.002197265625
-0.000732421875
0.0
0.0062255859375
-0.002197265625
-0.0054931640625
0.0054931640625
0.0208740234375
0.003662109375
0.0230712890625
-0.0216064453125
-0.0128173828125
-0.0194091796875
-0.0062255859375
-0.00439453125
0.000732421875
0.0018310546875
0.006591796875
0.0032958984375
0.00146484375
0.002197265625
-0.00146484375
0.0010986328125
0.005126953125
-0.005126953125
0.00732421875
-0.0062255859375
0.01611328125
-0.0087890625
0.0146484375
-0.0234375
0.012451171875
-0.0142822265625
0.005859375
0.0047607421875
-0.00439453125
-0.0047607421875
0.003662109375
-0.0054931640625
0.010986328125
0.0029296875
0.009521484375
-0.0010986328125
0.00439453125
-0.0025634765625
0.005859375
-0.00146484375
0.00732421875
-0.0069580078125
0.0029296875
-0.0062255859375
0.0025634765625
-0.0003662109375
0.0029296875
0.0098876953125
0.013916015625
-0.005859375
0.0047607421875
-0.019775390625
-0.002197265625
-0.0106201171875
0.0040283203125
-0.005859375
0.0076904296875
-0.009521484375
0.00732421875
-0.009521484375
-0.0029296875
-0.000732421875
-0.006591796875
-0.00146484375
0.0054931640625
-0.0098876953125
0.0238037109375
-0.0025634765625
0.0120849609375
0.0010986328125
0.0098876953125
-0.0076904296875
0.0098876953125
-0.0029296875
0.00439453125
-0.0040283203125
0.0091552734375
-0.00732421875
0.01171875
-0.003662109375
0.01171875
-0.0069580078125
0.0054931640625
-0.005126953125
0.0054931640625
0.0018310546875
0.015380859375
-0.005126953125
0.018310546875
-0.005859375
0.0098876953125
-0.002197265625
0.003662109375
-0.016845703125
-0.0018310546875
-0.0098876953125
0.00146484375
0.00732421875
0.0113525390625
0.01318359375
0.0205078125
-0.008056640625
0.00732421875
-0.02783203125
-0.000732421875
-0.0106201171875
0.0076904296875
-0.0087890625
-0.00439453125
-0.008056640625
-0.0120849609375
0.0010986328125
-0.0003662109375
-0.0003662109375
-0.002197265625
-0.0018310546875
-0.00439453125
0.00146484375
0.012451171875
-0.0029296875
0.0113525390625
-0.005859375
0.000732421875
-0.0040283203125
-0.00146484375
-0.0032958984375
-0.000732421875
-0.0003662109375
0.0047607421875
-0.006591796875
0.005126953125
-0.01171875
-0.0047607421875
0.005126953125
-0.003662109375
0.0106201171875
0.00146484375
0.0010986328125
0.005126953125
-0.002197265625
0.0
0.0
-0.0010986328125
0.0010986328125
0.000732421875
-0.0003662109375
-0.0054931640625
-0.000732421875
0.0164794921875
-0.003662109375
0.0087890625
-0.006591796875
-0.0087890625
-0.0040283203125
0.00146484375
0.000732421875
0.002197265625
0.00146484375
-0.00146484375
-0.0010986328125
-0.0069580078125
0.0010986328125
-0.00146484375
0.0
0.00439453125
-0.0032958984375
0.01318359375
-0.0054931640625
0.0087890625
-0.002197265625
-0.0029296875
-0.00146484375
0.0029296875
-0.0062255859375
0.01171875
-0.006622314453125
0.0087890625
-0.010650634765625
-0.00146484375
-0.0098876953125
-0.0010986328125
-0.0029296875
-0.003662109375
0.0054931640625
-0.0025634765625
0.0040283203125
0.005126953125
-0.0003662109375
0.0062255859375
-0.002197265625
0.000732421875
-0.0054931640625
0.005859375
-0.0062255859375
0.0054931640625
-0.0025634765625
-0.005126953125
0.0120849609375
0.0098876953125
0.0010986328125
0.002197265625
-0.0179443359375
-0.0025634765625
-0.010986328125
0.006591796875
-0.00439453125
-0.005859375
-0.0018310546875
-0.0032958984375
-0.005859375
-0.0029296875
-0.005859375
-0.0054931640625
0.0018310546875
-0.00146484375
0.003662109375
0.0135498046875
-0.0029296875
0.0128173828125
-0.00732421875
0.0047607421875
-0.0040283203125
0.0076904296875
-0.003662109375
0.0032958984375
-0.005126953125
0.0098876953125
-0.0084228515625
0.005126953125
-0.00732421875
-0.009521484375
-0.0029296875
0.0018310546875
-0.0025634765625
0.002197265625
0.0087890625
0.00146484375
0.003662109375
0.0018310546875
-0.00439453125
-0.005859375
0.0003662109375
0.0054931640625
-0.005126953125
0.0025634765625
-0.00439453125
-0.02197265625
0.0172119140625
0.0194091796875
0.016845703125
0.016845703125
-0.0223388671875
-0.0230712890625
-0.0252685546875
-0.000732421875
-0.0047607421875
0.0010986328125
-0.0029296875
-0.002197265625
-0.0010986328125
-0.005859375
-0.000732421875
-0.009521484375
0.0010986328125
-0.0025634765625
-0.0010986328125
0.0120849609375
-0.00439453125
0.0091552734375
0.00146484375
-0.00146484375
0.00439453125
0.000732421875
-0.0003662109375
0.00732421875
-0.0032958984375
0.0018310546875
-0.003662109375
-0.0084228515625
-0.0062255859375
-0.0062255859375
0.0010986328125
0.0
0.01171875
-0.0029296875
0.0087890625
0.005126953125
0.0029296875
0.008056640625
0.000732421875
0.0010986328125
0.0010986328125
0.0010986328125
0.0025634765625
0.0
0.0010986328125
0.0084228515625
0.0040283203125
0.0091552734375
-0.0062255859375
-0.0029296875
-0.015380859375
-0.005859375
-0.006591796875
0.000732421875
-0.00146484375
0.006591796875
-0.003662109375
0.008056640625
-0.005126953125
-0.009521484375
0.00146484375
-0.009521484375
0.0025634765625
0.0040283203125
-0.000732421875
0.0098876953125
-0.003662109375
0.0135498046875
-0.0098876953125
0.0040283203125
-0.006591796875
-0.00146484375
0.000732421875
-0.003662109375
-0.0025634765625
0.005859375
-0.005859375
0.006591796875
-0.0069580078125
0.0076904296875
-0.0076904296875
0.0
0.0018310546875
-0.0047607421875
0.0032958984375
0.0062255859375
-0.00146484375
0.0010986328125
-0.0010986328125
0.0054931640625
-0.008056640625
0.008819580078125
-0.00732421875
0.002960205078125
-0.003662109375
-0.012847900390625
0.0142822265625
0.0113525390625
0.00732421875
0.015777587890625
-0.0223388671875
-0.0113525390625
-0.010986328125
0.0010986328125
-0.00146484375
0.0062255859375
-0.005859375
0.003662109375
-0.0054931640625
-0.010284423828125
0.0
-0.013946533203125
-0.0010986328125
0.003692626953125
-0.0069580078125
0.012115478515625
-0.002197265625
0.0150146484375
-0.0087890625
0.0076904296875
-0.0084228515625
-0.0047607421875
0.0010986328125
0.0032958984375
-0.002197265625
0.0091552734375
-0.0029296875
0.00439453125
-0.0018310546875
-0.003662109375
-0.0010986328125
-0.0076904296875
-0.002197265625
0.0062255859375
0.0003662109375
0.003662109375
0.005126953125
0.0062255859375
0.0010986328125
0.0029296875
0.000732421875
-0.0106201171875
0.000732421875
0.0029296875
0.0
0.005859375
0.0003662109375
-0.01611328125
0.015380859375
0.0157470703125
0.00732421875
0.0172119140625
-0.024169921875
-0.0164794921875
-0.0142822265625
0.0032958984375
-0.0047607421875
0.000732421875
-0.0047607421875
-0.00439453125
0.0
-0.0032958984375
0.0
-0.0084228515625
0.0025634765625
0.000732421875
0.0018310546875
0.0150146484375
0.0040283203125
0.013916015625
0.0029296875
0.01318359375
-0.00439453125
0.003662109375
-0.0010986328125
-0.0025634765625
0.0
0.00146484375
-0.003662109375
0.00146484375
-0.000732421875
0.0047607421875
-0.0032958984375
0.0047607421875
-0.0120849609375
-0.0010986328125
-0.0003662109375
0.002197265625
0.00732421875
0.0032958984375
0.0025634765625
0.005126953125
0.000732421875
0.0029296875
-0.00146484375
-0.0087890625
0.002197265625
0.0010986328125
-0.0018310546875
-0.0128173828125
0.0098876953125
0.012451171875
0.01318359375
0.0223388671875
-0.017578125
-0.009521484375
-0.0205078125
0.0
-0.0010986328125
-0.0003662109375
0.00146484375
0.002197265625
-0.0032958984375
-0.005859375
-0.0029296875
-0.0047607421875
-0.002197265625
-0.0010986328125
0.0029296875
0.0087890625
-0.0047607421875
0.0164794921875
-0.00732421875
-0.00146484375
0.0040283203125
0.0040283203125
-0.000732421875
0.0047607421875
-0.00146484375
0.0003662109375
0.000732421875
0.002197265625
-0.0062255859375
0.0
-0.0091552734375
0.0040283203125
0.0
-0.0091552734375
0.0135498046875
0.000732421875
0.000732421875
0.01611328125
-0.006591796875
0.003662109375
0.0
-0.006591796875
0.000732421875
-0.0062255859375
0.0025634765625
-0.0128173828125
0.017578125
0.013916015625
0.0157470703125
0.02490234375
-0.0281982421875
-0.002197265625
-0.0263671875
-0.0003662109375
-0.0032958984375
-0.0010986328125
-0.005126953125
-0.0025634765625
-0.0018310546875
-0.0120849609375
0.0032958984375
-0.01611328125
0.0040283203125
-0.00146484375
0.00146484375
0.0142822265625
0.0003662109375
0.016845703125
0.000732421875
0.0087890625
-0.0032958984375
-0.0010986328125
-0.0018310546875
-0.0032958984375
0.0
-0.00439453125
-0.0047607421875
0.0032958984375
-0.002197265625
-0.0047607421875
0.005126953125
-0.0084228515625
-0.002197265625
0.0018310546875
-0.0040283203125
-0.0003662109375
0.00439453125
-0.0010986328125
0.0047607421875
0.00439453125
0.0018310546875
0.0040283203125
-0.00146484375
0.00146484375
-0.0003662109375
0.0025634765625
0.0025634765625
-0.003662109375
0.006591796875
0.0087890625
0.00732421875
0.0146484375
-0.0054931640625
-0.0069580078125
-0.01318359375
-0.0106201171875
-0.006591796875
0.0040283203125
-0.0029296875
0.003662109375
-0.0018310546875
0.0003662109375
-0.0025634765625
-0.0040283203125
0.0
-0.0084228515625
0.0018310546875
0.005859375
-0.003662109375
0.013916015625
-0.003662109375
0.0076904296875
-0.0010986328125
0.005859375
-0.0018310546875
0.0010986328125
-0.000732421875
0.00146484375
-0.0032958984375
-0.0018310546875
-0.0062255859375
-0.002197265625
-0.0029296875
0.0018310546875
0.00732421875
0.006591796875
0.00439453125
0.002197265625
-0.0029296875
-0.0032958984375
0.0025634765625
0.0062255859375
0.0003662109375
-0.002197265625
-0.0003662109375
-0.0234375
0.01025390625
0.0223388671875
0.019775390625
0.024169921875
-0.0150146484375
-0.01904296875
-0.0289306640625
0.0010986328125
-0.00439453125
0.0076904296875
0.0003662109375
0.002197265625
-0.0010986328125
-0.0040283203125
-0.005126953125
-0.012451171875
0.0003662109375
-0.0025634765625
0.00146484375
0.012451171875
-0.00146484375
0.009521484375
0.000732421875
0.00732421875
-0.0010986328125
0.005859375
-0.003662109375
-0.0029296875
-0.0003662109375
-0.008056640625
0.0032958984375
0.003662109375
0.0003662109375
0.0025634765625
-0.003662109375
0.005126953125
-0.0040283203125
0.00732421875
-0.006591796875
-0.0032958984375
-0.005859375
0.002197265625
0.0010986328125
-0.0047607421875
0.01025390625
0.0
0.005859375
0.0106201171875
-0.00439453125
0.0029296875
-0.005126953125
-0.002197265625
-0.00146484375
0.0040283203125
-0.0018310546875
-0.015380859375
0.0164794921875
0.005126953125
0.0157470703125
0.0164794921875
-0.02197265625
-0.0076904296875
-0.0216064453125
0.0003662109375
0.0010986328125
-0.0025634765625
0.0010986328125
-0.0040283203125
-0.002197265625
-0.002197265625
0.000732421875
-0.01025390625
0.0010986328125
-0.0069580078125
-0.000732421875
0.010986328125
-0.000732421875
-0.00146484375
0.0054931640625
-0.002197265625
0.0032958984375
0.0025634765625
-0.0018310546875
0.0003662109375
0.00146484375
0.006591796875
0.00146484375
0.008056640625
-0.0029296875
0.002197265625
-0.00146484375
-0.0003662109375
0.005859375
0.0040283203125
0.006591796875
-0.0025634765625
0.003662109375
-0.00732421875
0.0047607421875
0.0032958984375
0.0003662109375
0.005859375
-0.00146484375
0.000732421875
0.0029296875
-0.019775390625
0.0201416015625
0.01611328125
0.0135498046875
0.024169921875
-0.0234375
-0.0113525390625
-0.0205078125
-0.002197265625
-0.00146484375
-0.0032958984375
0.0
-0.005859375
0.0029296875
-0.009521484375
0.0018310546875
-0.0047607421875
-0.0003662109375
-0.0040283203125
0.002197265625
0.0032958984375
0.0032958984375
0.0146484375
-0.0040283203125
0.002197265625
-0.003662109375
-0.0010986328125
0.0
0.005126953125
-0.0032958984375
0.0029296875
-0.0029296875
0.002197265625
0.0
0.0025634765625
-0.002197265625
-0.008056640625
0.0
-0.0032958984375
0.005859375
0.005859375
0.003662109375
-0.00439453125
0.00439453125
-0.002197265625
0.00146484375
0.00732421875
-0.0032958984375
0.00439453125
-0.0003662109375
-0.0142822265625
0.00732421875
0.0076904296875
0.021240234375
0.0194091796875
-0.00732421875
-0.012451171875
-0.0267333984375
-0.0120849609375
-0.0018310546875
0.0025634765625
-0.000732421875
0.005126953125
-0.005859375
0.002197265625
-0.0047607421875
-0.01171875
0.003662109375
-0.01025390625
0.0062255859375
-0.0003662109375
0.0047607421875
0.005126953125
0.0032958984375
0.005126953125
0.000732421875
0.005859375
-0.0091552734375
0.0047607421875
-0.005859375
0.005859375
-0.0010986328125
-0.0003662109375
-0.0018310546875
-0.005859375
0.0054931640625
-0.0018310546875
-0.003662109375
-0.0003662109375
-0.0032958984375
0.0032958984375
0.0032958984375
-0.00439453125
0.0003662109375
-0.0010986328125
-0.0010986328125
0.00146484375
0.0040283203125
0.002197265625
0.0040283203125
-0.000732421875
-0.000732421875
-0.00439453125
0.0003662109375
-0.0223388671875
0.0179443359375
0.005126953125
0.0194091796875
0.024169921875
-0.013916015625
-0.0098876953125
-0.0091552734375
-0.0142822265625
0.0098876953125
-0.0076904296875
0.005859375
0.0040283203125
0.0062255859375
0.00146484375
0.0029296875
-0.009521484375
0.0032958984375
-0.000732421875
0.00146484375
0.0128173828125
-0.00439453125
0.0091552734375
-0.0054931640625
0.0003662109375
-0.0047607421875
-0.0010986328125
-0.000732421875
0.0040283203125
-0.0003662109375
-0.0018310546875
-0.0003662109375
-0.0025634765625
-0.003662109375
0.005126953125
0.000732421875
-0.0003662109375
0.015380859375
0.002197265625
0.01025390625
0.0091552734375
-0.003662109375
-0.0025634765625
-0.000732421875
0.00146484375
0.0010986328125
0.0
-0.0025634765625
-0.032958984375
0.017578125
0.01025390625
0.02490234375
0.03076171875
-0.022705078125
-0.009521484375
-0.0296630859375
-0.00146484375
-0.0003662109375
-0.00146484375
0.0025634765625
-0.006591796875
0.002197265625
-0.0032958984375
-0.0003662109375
-0.005126953125
-0.0040283203125
-0.003662109375
-0.0010986328125
0.0135498046875
0.0018310546875
0.01318359375
-0.0010986328125
0.0025634765625
-0.003662109375
0.0018310546875
-0.0047607421875
0.0025634765625
-0.0018310546875
0.0025634765625
-0.0003662109375
-0.0040283203125
-0.0010986328125
-0.003662109375
0.0003662109375
0.00439453125
0.0
0.0047607421875
-0.009521484375
-0.003662109375
-0.006591796875
-0.0010986328125
0.0084228515625
0.0047607421875
0.005859375
0.00439453125
-0.002197265625
-0.002197265625
0.0010986328125
-0.00439453125
0.000732421875
0.0003662109375
-0.0032958984375
-0.01611328125
0.015380859375
0.0205078125
0.0186767578125
0.024169921875
-0.0245361328125
-0.021240234375
-0.0289306640625
-0.0062255859375
-0.0032958984375
0.0062255859375
0.0003662109375
-0.0003662109375
-0.0040283203125
-0.0062255859375
-0.0029296875
-0.01025390625
0.00439453125
-0.005126953125
-0.0003662109375
0.0106201171875
-0.0029296875
0.0084228515625
0.0
0.0018310546875
-0.0010986328125
0.0029296875
-0.003662109375
0.0032958984375
-0.000732421875
-0.0003662109375
0.000732421875
-0.012451171875
0.0029296875
0.0029296875
-0.0069580078125
0.00732421875
-0.005126953125
-0.01171875
0.0172119140625
-0.0018310546875
0.008056640625
0.006591796875
-0.0018310546875
0.0010986328125
0.0010986328125
0.000732421875
0.000732421875
0.0047607421875
-0.0003662109375
-0.0230712890625
0.01611328125
0.021240234375
0.013916015625
0.0267333984375
-0.018310546875
-0.0142822265625
-0.0194091796875
0.003662109375
-0.0032958984375
-0.0142822265625
0.005126953125
0.0029296875
-0.003662109375
0.00146484375
-0.0062255859375
-0.0157470703125
0.0029296875
-0.005126953125
0.0029296875
0.0135498046875
-0.0025634765625
0.01318359375
-0.00146484375
-0.0018310546875
0.0010986328125
0.0040283203125
-0.0025634765625
0.0025634765625
0.0018310546875
-0.0018310546875
0.00146484375
-0.00439453125
0.0010986328125
0.00439453125
-0.005859375
0.0029296875
-0.008056640625
-0.006591796875
0.005859375
-0.00146484375
0.0091552734375
0.002197265625
0.0047607421875
0.0032958984375
0.0010986328125
0.003662109375
-0.0003662109375
0.0040283203125
-0.000732421875
0.0062255859375
-0.003662109375
-0.02197265625
0.018310546875
0.0091552734375
0.0223388671875
0.0230712890625
-0.0267333984375
-0.0029296875
-0.0296630859375
0.00146484375
-0.0010986328125
-0.002197265625
-0.002197265625
-0.00732421875
0.0
-0.01611328125
0.0010986328125
-0.003662109375
-0.0032958984375
0.00146484375
0.0010986328125
0.0135498046875
-0.0003662109375
0.0120849609375
-0.0025634765625
-0.00146484375
0.0
-0.0003662109375
-0.0010986328125
0.0069580078125
-0.002197265625
0.0
-0.0010986328125
-0.0029296875
0.000732421875
0.00439453125
0.0
0.0010986328125
-0.00439453125
-0.000732421875
-0.0025634765625
-0.000732421875
0.0069580078125
0.005126953125
0.0032958984375
0.0025634765625
0.0
-0.0003662109375
0.0003662109375
0.005859375
-0.002197265625
-0.0018310546875
-0.0003662109375
-0.0120849609375
0.00439453125
0.01025390625
0.013916015625
0.01904296875
-0.0150146484375
-0.01171875
-0.022705078125
-0.01171875
0.0
-0.000732421875
-0.002197265625
0.00146484375
-0.000732421875
-0.005126953125
0.0018310546875
-0.0157470703125
0.003662109375
-0.002197265625
-0.0010986328125
0.0032958984375
-0.0047607421875
0.013916015625
-0.0018310546875
0.010986328125
0.002197265625
-0.006591796875
0.0010986328125
0.000732421875
-0.003662109375
-0.0010986328125
0.000732421875
-0.0025634765625
-0.0010986328125
0.002197265625
-0.0054931640625
0.0018310546875
0.000732421875
-0.0040283203125
0.01025390625
-0.0010986328125
0.005126953125
0.005126953125
0.0025634765625
0.003662109375
0.0029296875
-0.0010986328125
0.0010986328125
0.00146484375
0.00439453125
-0.0003662109375
0.0047607421875
0.0029296875
0.006591796875
0.0120849609375
-0.00439453125
-0.0106201171875
-0.006591796875
-0.0040283203125
-0.005859375
0.005126953125
-0.00146484375
-0.0069580078125
0.0040283203125
-0.009521484375
-0.0003662109375
-0.0084228515625
0.0003662109375
-0.003662109375
-0.0010986328125
0.00439453125
-0.00146484375
0.008056640625
0.0029296875
0.0106201171875
0.000732421875
0.0069580078125
-0.000732421875
-0.002197265625
0.002197265625
-0.00146484375
0.0003662109375
0.0025634765625
-0.00146484375
0.0098876953125
-0.002197265625
-0.0032958984375
-0.0025634765625
-0.006591796875
0.00146484375
-0.0018310546875
0.0106201171875
-0.0018310546875
0.01025390625
0.0003662109375
0.002197265625
-0.0018310546875
0.0010986328125
0.0040283203125
0.0
0.00146484375
-0.0003662109375
-0.01025390625
0.0091552734375
0.0106201171875
0.021240234375
0.0150146484375
-0.0106201171875
-0.0091552734375
-0.02490234375
-0.0084228515625
-0.00146484375
-0.000732421875
-0.0032958984375
0.0010986328125
-0.003662109375
-0.006591796875
-0.00146484375
-0.0003662109375
-0.0032958984375
-0.00439453125
-0.003662109375
0.003662109375
-0.00439453125
0.0106201171875
-0.0003662109375
0.0010986328125
0.003662109375
0.0025634765625
0.000732421875
-0.0018310546875
-0.0032958984375
0.00439453125
-0.0010986328125
-0.0010986328125
0.0025634765625
-0.0010986328125
-0.002197265625
0.0084228515625
-0.0025634765625
0.0054931640625
-0.006591796875
-0.0029296875
-0.005126953125
-0.0128173828125
0.01171875
0.0029296875
0.005126953125
0.01025390625
-0.005859375
0.000732421875
-0.0025634765625
0.002197265625
-0.0010986328125
-0.000732421875
0.0003662109375
-0.0245361328125
0.0172119140625
0.01904296875
0.0142822265625
0.02197265625
-0.01904296875
-0.0252685546875
-0.0150146484375
0.000732421875
-0.003662109375
-0.0025634765625
-0.0003662109375
-0.006591796875
0.000732421875
-0.00439453125
0.00146484375
-0.005859375
0.0029296875
-0.00146484375
-0.0018310546875
0.0029296875
-0.0010986328125
0.0047607421875
0.00146484375
-0.005859375
0.0069580078125
0.0040283203125
-0.00146484375
0.0029296875
-0.0025634765625
0.0018310546875
0.0003662109375
0.00732421875
0.0
-0.0032958984375
0.0054931640625
0.0029296875
-0.0054931640625
0.003662109375
-0.008056640625
-0.00146484375
0.002197265625
-0.002197265625
0.0054931640625
0.0069580078125
0.000732421875
0.002197265625
0.0025634765625
-0.003662109375
0.005126953125
-0.00146484375
0.000732421875
0.0003662109375
-0.003662109375
-0.0194091796875
0.0146484375
0.0113525390625
0.0230712890625
0.0296630859375
-0.0234375
-0.0120849609375
-0.0281982421875
-0.009521484375
-0.0003662109375
-0.00146484375
0.000732421875
0.0069580078125
-0.0018310546875
-0.006591796875
-0.0025634765625
-0.0201416015625
0.00146484375
-0.0003662109375
0.000732421875
0.009521484375
0.0010986328125
0.0087890625
0.0018310546875
0.00439453125
-0.0003662109375
0.005859375
-0.003662109375
0.0084228515625
-0.0029296875
-0.0087890625
0.00146484375
-0.0047607421875
-0.0003662109375
-0.0003662109375
-0.0040283203125
-0.0047607421875
0.0003662109375
-0.0029296875
0.01318359375
0.0076904296875
0.0062255859375
0.0062255859375
-0.0032958984375
-0.0003662109375
-0.002197265625
0.003662109375
0.0003662109375
-0.0010986328125
0.0032958984375
-0.0179443359375
0.0098876953125
0.015380859375
0.025634765625
0.019775390625
-0.015380859375
-0.019775390625
-0.030029296875
-0.00439453125
-0.000732421875
0.00439453125
-0.0029296875
0.0
0.0003662109375
-0.0054931640625
-0.000732421875
-0.0128173828125
-0.0003662109375
-0.0076904296875
0.00146484375
0.012451171875
-0.000732421875
0.0142822265625
-0.0010986328125
0.00146484375
-0.0018310546875
-0.0054931640625
0.0029296875
-0.006591796875
0.0032958984375
-0.0003662109375
-0.0003662109375
0.005859375
-0.002197265625
0.005126953125
-0.0040283203125
0.0032958984375
0.0
0.0029296875
0.00146484375
-0.0032958984375
-0.005126953125
-0.00439453125
-0.0040283203125
-0.009521484375
0.0084228515625
-0.00439453125
0.0054931640625
0.006591796875
0.0025634765625
0.005859375
0.0
0.0032958984375
-0.0047607421875
0.00146484375
0.0032958984375
-0.005126953125
0.003662109375
-0.01171875
0.008056640625
0.0128173828125
0.0
0.00732421875
-0.0172119140625
-0.017578125
-0.0069580078125
-0.0025634765625
0.0003662109375
0.0010986328125
0.0040283203125
-0.000732421875
0.003662109375
-0.0106201171875
0.0010986328125
-0.0069580078125
0.00146484375
0.0032958984375
0.0010986328125
0.0062255859375
0.0032958984375
0.013916015625
0.0018310546875
0.0062255859375
-0.000732421875
0.0062255859375
-0.0032958984375
0.0047607421875
-0.0010986328125
-0.005859375
0.0003662109375
-0.00439453125
0.0010986328125
0.0
0.0018310546875
0.00146484375
-0.0054931640625
-0.0040283203125
-0.0010986328125
-0.0029296875
0.01318359375
0.00732421875
0.008056640625
0.0098876953125
-0.005126953125
0.0069580078125
-0.0106201171875
-0.000732421875
-0.003662109375
0.0076904296875
-0.00439453125
-0.019775390625
0.012451171875
0.009521484375
0.0252685546875
0.0252685546875
-0.0208740234375
-0.02197265625
-0.029296875
-0.0010986328125
-0.005126953125
0.010986328125
-0.00439453125
0.0003662109375
-0.0032958984375
-0.003662109375
-0.0025634765625
-0.0032958984375
-0.0003662109375
-0.0087890625
0.0025634765625
0.0040283203125
0.0047607421875
0.0164794921875
0.005859375
0.0
0.009521484375
-0.0010986328125
0.0069580078125
-0.002197265625
0.0076904296875
-0.00146484375
0.010986328125
-0.000732421875
0.0128173828125
0.0
0.0113525390625
0.01171875
0.00439453125
0.0069580078125
0.0069580078125
-0.002197265625
0.0208740234375
-0.0032958984375
0.024169921875
0.0010986328125
0.0186767578125
0.002197265625
0.01904296875
0.0032958984375
0.018310546875
-0.0076904296875
0.0245361328125
-0.0003662109375
0.0201416015625
-0.0208740234375
0.03955078125
0.0098876953125
0.04833984375
0.030029296875
-0.00146484375
-0.0142822265625
-0.0032958984375
0.0010986328125
0.01904296875
0.0047607421875
0.0208740234375
-0.002197265625
0.0245361328125
-0.012451171875
0.025634765625
-0.0157470703125
0.0281982421875
0.00146484375
0.0208740234375
0.00732421875
0.019775390625
0.0120849609375
0.0179443359375
0.005126953125
0.020172119140625
-0.006591796875
0.024566650390625
-0.0003662109375
0.0164794921875
-0.0040283203125
0.0164794921875
0.003662109375
0.0150146484375
0.00732421875
0.0098876953125
0.0010986328125
0.013916015625
0.0010986328125
0.0172119140625
-0.0047607421875
0.008056640625
-0.010986328125
0.009521484375
-0.0010986328125
0.021240234375
0.00732421875
0.0146484375
0.0040283203125
0.0084228515625
-0.0003662109375
0.0106201171875
-0.0054931640625
0.01171875
-0.002197265625
0.01025390625
-0.01611328125
0.016845703125
0.0230712890625
0.013916015625
0.021240234375
-0.00732421875
-0.01904296875
-0.0047607421875
-0.002197265625
0.00439453125
-0.0025634765625
0.00439453125
-0.0010986328125
0.003662109375
-0.009521484375
0.0032958984375
-0.0142822265625
0.0032958984375
-0.0029296875
0.0
0.015380859375
-0.0018310546875
0.01171875
0.0029296875
-0.00439453125
0.00439453125
-0.002197265625
0.000732421875
-0.0018310546875
0.0029296875
0.000732421875
-0.003662109375
0.0084228515625
-0.0069580078125
0.00439453125
-0.0029296875
0.0
-0.0098876953125
0.006591796875
-0.0040283203125
-0.0018310546875
0.006591796875
-0.0069580078125
0.00439453125
0.005126953125
-0.0025634765625
0.000732421875
-0.005126953125
-0.0018310546875
-0.0010986328125
0.01025390625
-0.0054931640625
-0.0245361328125
0.010986328125
0.0157470703125
0.02197265625
0.024169921875
-0.021240234375
-0.022705078125
-0.0296630859375
0.0032958984375
-0.005126953125
0.0
-0.0040283203125
-0.0010986328125
-0.0040283203125
-0.006591796875
-0.003662109375
-0.010986328125
-0.00439453125
-0.0025634765625
-0.005859375
0.0054931640625
-0.0032958984375
0.0025634765625
0.000732421875
0.0025634765625
-0.0025634765625
0.00146484375
-0.00439453125
0.0
-0.00439453125
0.0032958984375
-0.0047607421875
0.0047607421875
-0.0054931640625
0.0029296875
-0.006591796875
-0.0018310546875
-0.002197265625
0.0025634765625
-0.006591796875
0.0047607421875
-0.0146484375
-0.00146484375
-0.0069580078125
-0.005859375
0.00439453125
0.0025634765625
0.000732421875
0.00146484375
-0.0062255859375
0.0029296875
-0.00732421875
0.006591796875
-0.0047607421875
-0.008056640625
-0.0029296875
-0.0318603515625
0.0135498046875
0.0186767578125
0.01171875
0.025634765625
-0.0296630859375
-0.01171875
-0.0318603515625
0.0054931640625
-0.009521484375
-0.0069580078125
-0.0018310546875
-0.0032958984375
-0.0029296875
-0.0047607421875
-0.005859375
-0.0216064453125
-0.000732421875
-0.006591796875
-0.002197265625
0.015380859375
-0.0040283203125
0.012451171875
-0.0018310546875
0.003662109375
-0.002197265625
-0.0010986328125
-0.000732421875
-0.003662109375
0.0010986328125
0.000732421875
-0.0032958984375
0.0010986328125
-0.0054931640625
0.00439453125
-0.0062255859375
0.0003662109375
-0.002197265625
-0.0128173828125
-0.00439453125
0.0003662109375
-0.0098876953125
0.0084228515625
-0.0003662109375
0.0025634765625
0.0003662109375
0.0025634765625
-0.0062255859375
0.0032958984375
-0.005889892578125
0.002197265625
-0.005157470703125
-0.0010986328125
-0.002197265625
-0.0106201171875
0.0025634765625
0.01171875
0.016876220703125
0.015380859375
-0.0135498046875
-0.018310546875
-0.030792236328125
-0.0146484375
-0.00439453125
0.0010986328125
-0.0047607421875
0.000732421875
-0.0047607421875
-0.0029296875
-0.0047607421875
-0.0047607421875
-0.0054931640625
-0.0069580078125
-0.003662109375
0.0084228515625
-0.005126953125
0.0098876953125
-0.002197265625
0.01025390625
-0.0062255859375
0.002197265625
-0.0040283203125
-0.0098876953125
0.0
0.0032958984375
-0.005859375
0.0076904296875
-0.0069580078125
0.0018310546875
-0.005859375
-0.00146484375
-0.0091552734375
-0.00146484375
-0.006591796875
-0.0054931640625
0.0062255859375
0.002197265625
-0.0003662109375
-0.0029296875
-0.003662109375
-0.0003662109375
-0.00439453125
0.0201416015625
-0.0098876953125
-0.005126953125
0.0003662109375
-0.019775390625
0.0054931640625
0.0201416015625
0.0098876953125
0.0135498046875
-0.01611328125
-0.0087890625
-0.030029296875
-0.0010986328125
-0.0054931640625
-0.0018310546875
-0.0010986328125
0.005859375
-0.00146484375
-0.0032958984375
0.0018310546875
-0.0062255859375
0.005126953125
-0.01171875
0.005859375
-0.0076904296875
0.005859375
0.0164794921875
0.0040283203125
0.008056640625
0.0025634765625
-0.0084228515625
0.0018310546875
-0.00439453125
-0.00146484375
0.002197265625
-0.0047607421875
0.0032958984375
-0.00439453125
-0.0084228515625
-0.002197265625
-0.005126953125
-0.000732421875
0.005859375
-0.003662109375
-0.000732421875
-0.0120849609375
-0.00146484375
-0.0128173828125
-0.008056640625
-0.0003662109375
0.0003662109375
-0.00146484375
0.0098876953125
-0.005859375
0.0010986328125
-0.006591796875
-0.0032958984375
-0.008056640625
-0.012451171875
-0.0040283203125
-0.00732421875
-0.0047607421875
-0.0032958984375
-0.0003662109375
0.0091552734375
-0.005126953125
0.016845703125
-0.030029296875
-0.0084228515625
-0.0260009765625
-0.0054931640625
-0.0150146484375
-0.0018310546875
-0.0172119140625
-0.0069580078125
-0.0157470703125
-0.0029296875
-0.01025390625
-0.0054931640625
-0.0003662109375
-0.0018310546875
0.0091552734375
0.0076904296875
0.02197265625
0.010986328125
0.0263671875
0.0032958984375
0.031494140625
-0.0113525390625
0.0421142578125
0.0010986328125
0.038818359375
0.006591796875
0.032958984375
-0.0062255859375
0.0369873046875
-0.0025634765625
0.049072265625
0.0032958984375
0.058990478515625
0.0054931640625
0.049835205078125
0.0032958984375
0.044677734375
0.0032958984375
0.0421142578125
-0.0003662109375
0.0380859375
-0.0062255859375
0.0406494140625
-0.031494140625
0.056396484375
0.01904296875
0.060791015625
0.0281982421875
0.01611328125
-0.017578125
0.0047607421875
-0.00146484375
0.0303955078125
0.0010986328125
0.0263671875
-0.002197265625
0.0245361328125
-0.0047607421875
0.0252685546875
-0.008056640625
0.0208740234375
-0.0062255859375
0.022705078125
0.0076904296875
0.0230712890625
0.010986328125
0.019805908203125
0.0098876953125
0.015777587890625
-0.0076904296875
0.016845703125
-0.003662109375
0.0128173828125
0.002197265625
0.0087890625
0.0018310546875
0.0084228515625
0.0029296875
0.00732421875
-0.009521484375
0.0091552734375
-0.00732421875
0.0062255859375
0.0069580078125
0.00146484375
0.0040283203125
-0.0010986328125
-0.0032958984375
-0.00439453125
-0.0029296875
0.0018310546875
0.0018310546875
0.006591796875
0.0018310546875
0.0025634765625
-0.0003662109375
-0.0032958984375
-0.00146484375
-0.0047607421875
-0.0032958984375
-0.005126953125
0.00439453125
-0.009521484375
-0.021240234375
0.005126953125
0.0040283203125
0.0069580078125
0.017578125
-0.034423828125
-0.00732421875
-0.042877197265625
0.0018310546875
-0.023101806640625
-0.002197265625
-0.0223388671875
-0.0098876953125
-0.01611328125
-0.0128173828125
-0.0201416015625
-0.005859375
-0.028564453125
0.00439453125
-0.035888671875
0.0146484375
-0.0380859375
0.0062255859375
-0.03662109375
-0.0003662109375
-0.038818359375
-0.0018310546875
-0.0450439453125
-0.00439453125
-0.0516357421875
-0.008056640625
-0.0531005859375
0.00439453125
-0.05859375
0.01171875
-0.0655517578125
0.005126953125
-0.066314697265625
0.0032958984375
-0.051300048828125
0.000732421875
-0.0450439453125
-0.005126953125
-0.0450439453125
-0.0025634765625
-0.0428466796875
0.013916015625
-0.049072265625
0.0018310546875
-0.0421142578125
-0.006591796875
-0.0355224609375
-0.0205078125
-0.0157470703125
0.0047607421875
-0.01171875
0.021240234375
-0.0545654296875
-0.0084228515625
-0.052734375
-0.0047607421875
-0.02490234375
-0.0018310546875
-0.0223388671875
0.000732421875
-0.0223388671875
-0.0069580078125
-0.019439697265625
-0.0146484375
-0.016143798828125
0.005126953125
-0.01611328125
0.01171875
-0.0106201171875
0.0047607421875
-0.0054931640625
0.003662109375
-0.0106201171875
-0.0029296875
-0.0076904296875
0.0032958984375
-0.005126953125
-0.0003662109375
-0.005859375
-0.009521484375
0.0
0.00439453125
-0.003662109375
0.0128173828125
-0.0069580078125
0.0029296875
-0.009521484375
-0.006591796875
-0.0003662109375
-0.003662109375
0.01611328125
0.0054931640625
0.0106201171875
0.00732421875
0.0040283203125
-0.0047607421875
0.008056640625
-0.0091552734375
0.008056640625
0.00146484375
0.005126953125
-0.0223388671875
0.023468017578125
0.0179443359375
0.030059814453125
0.03076171875
-0.010650634765625
-0.0135498046875
-0.014312744140625
0.00146484375
0.006591796875
-0.0106201171875
0.012481689453125
-0.0098876953125
0.013946533203125
0.002197265625
0.010986328125
-0.0029296875
0.0120849609375
-0.0120849609375
0.0128173828125
-0.0062255859375
0.016845703125
0.0047607421875
0.0172119140625
0.0120849609375
0.01171875
0.0106201171875
0.0091552734375
-0.0025634765625
0.010986328125
-0.0047607421875
0.015380859375
0.002197265625
0.0146484375
0.0003662109375
0.0135498046875
0.000732421875
0.0113525390625
-0.00146484375
0.013916015625
-0.01025390625
0.022705078125
0.002197265625
0.017578125
0.005859375
0.013916015625
0.0018310546875
0.0087890625
-0.0032958984375
0.01171875
-0.0003662109375
0.0172119140625
0.0029296875
0.0164794921875
-0.0040283203125
0.0208740234375
0.01611328125
0.0128173828125
-0.0040283203125
0.005859375
-0.0142822265625
0.00732421875
0.006591796875
0.0091552734375
0.0010986328125
0.010986328125
-0.005859375
0.0106201171875
-0.008056640625
0.0120849609375
-0.01025390625
0.01171875
0.0003662109375
0.0069580078125
0.01904296875
0.006591796875
0.00439453125
0.012451171875
0.0010986328125
0.009521484375
0.00732421875
0.0054931640625
-0.006591796875
0.0084228515625
-0.0054931640625
0.0084228515625
0.00146484375
0.0069580078125
0.0087890625
0.0054931640625
0.0018310546875
0.0
-0.0120849609375
0.0087890625
-0.000732421875
0.01904296875
0.006591796875
0.0113525390625
0.0040283203125
0.003662109375
0.0025634765625
0.002197265625
0.000732421875
0.0062255859375
-0.00732421875
0.00439453125
-0.0267333984375
0.018310546875
0.0106201171875
0.028961181640625
0.0263671875
-0.0194091796875
-0.009521484375
-0.026031494140625
-0.009521484375
0.00732421875
0.000732421875
0.0025634765625
0.0040283203125
0.00146484375
-0.0087890625
0.000732421875
-0.0106201171875
0.0
-0.009521484375
0.0040283203125
0.012451171875
0.0010986328125
0.015380859375
0.0
0.0040283203125
-0.0018310546875
0.002197265625
0.0
-0.0142822265625
0.0076904296875
-0.00146484375
0.0010986328125
0.0076904296875
0.0018310546875
0.005126953125
-0.0003662109375
0.0025634765625
-0.00439453125
0.0029296875
-0.00732421875
-0.005126953125
-0.000732421875
-0.009521484375
0.013916015625
0.0062255859375
0.0025634765625
0.005126953125
-0.003662109375
0.0003662109375
0.0010986328125
0.0003662109375
0.003662109375
-0.000732421875
-0.000732421875
-0.025634765625
0.016876220703125
0.0208740234375
0.017242431640625
0.027099609375
-0.023101806640625
-0.0205078125
-0.019805908203125
-0.005126953125
-0.0003662109375
0.002197265625
-0.0054931640625
-0.0018310546875
-0.00146484375
-0.0054931640625
0.00146484375
-0.01171875
0.0018310546875
-0.0091552734375
0.0
0.013916015625
-0.005859375
0.0076904296875
0.00146484375
-0.0010986328125
0.0029296875
0.000732421875
-0.0032958984375
-0.002197265625
-0.002197265625
0.0018310546875
-0.002197265625
0.0029296875
0.000732421875
-0.0010986328125
0.0040283203125
-0.0018310546875
-0.0054931640625
-0.000732421875
-0.0054931640625
0.003662109375
0.005126953125
0.00439453125
0.0029296875
0.002197265625
-0.0010986328125
-0.0025634765625
0.00146484375
-0.0018310546875
-0.000732421875
0.0032958984375
-0.0054931640625
-0.0106201171875
0.0032958984375
0.010986328125
0.021270751953125
0.01904296875
-0.0146484375
-0.0135498046875
-0.028961181640625
-0.0040283203125
-0.005126953125
-0.0018310546875
-0.0040283203125
-0.0069580078125
-0.0018310546875
-0.0054931640625
-0.0040283203125
-0.0098876953125
-0.0010986328125
-0.00732421875
-0.002197265625
0.0025634765625
-0.0032958984375
0.0164794921875
-0.003662109375
0.0084228515625
-0.00146484375
0.0018310546875
-0.0025634765625
0.0032958984375
-0.0054931640625
-0.002197265625
-0.0098876953125
-0.0029296875
-0.002197265625
0.0069580078125
0.00439453125
0.0069580078125
-0.0032958984375
-0.0029296875
-0.002197265625
0.0029296875
0.013916015625
0.010986328125
-0.00146484375
0.005859375
-0.0223388671875
-0.0106201171875
-0.0076904296875
-0.0106201171875
-0.003662109375
-0.0003662109375
-0.0032958984375
0.0018310546875
-0.003662109375
-0.006591796875
-0.00146484375
-0.010986328125
-0.0003662109375
0.00439453125
0.0
0.0084228515625
0.0018310546875
0.002197265625
-0.0010986328125
0.0010986328125
-0.00146484375
-0.0025634765625
-0.0029296875
0.0032958984375
-0.00146484375
0.003662109375
-0.000732421875
-0.002197265625
0.0
-0.0047607421875
0.000732421875
-0.0029296875
0.0
0.0040283203125
0.0
0.0018310546875
-0.0029296875
-0.0018310546875
0.0
0.0018310546875
-0.0010986328125
0.00439453125
-0.003662109375
-0.0029296875
-0.0018310546875
-0.008056640625
0.0
0.0054931640625
-0.0040283203125
0.0040283203125
-0.0069580078125
-0.0076904296875
0.0025634765625
-0.0003662109375
0.0003662109375
0.00146484375
-0.0029296875
0.0018310546875
-0.0029296875
0.0029296875
-0.00439453125
-0.005126953125
-0.0018310546875
-0.000732421875
0.0003662109375
0.0018310546875
0.005126953125
0.000732421875
-0.0018310546875
0.0
-0.0040283203125
-0.0128173828125
0.0062255859375
-0.010986328125
0.01171875
0.0208740234375
0.008056640625
0.019775390625
-0.0106201171875
-0.0113525390625
-0.0142822265625
-0.0069580078125
-0.0010986328125
-0.0010986328125
0.002197265625
-0.00146484375
-0.00146484375
-0.00439453125
-0.0003662109375
-0.00732421875
0.002197265625
-0.0054931640625
0.000732421875
0.0
-0.0054931640625
0.0106201171875
-0.0054931640625
0.005126953125
0.0010986328125
-0.0047607421875
0.00439453125
-0.0010986328125
0.0003662109375
0.0003662109375
-0.005126953125
0.0
-0.0025634765625
0.0018310546875
-0.00146484375
0.0128173828125
-0.005859375
-0.00146484375
0.0010986328125
-0.01171875
0.0029296875
0.0010986328125
-0.005126953125
0.002197265625
-0.0018310546875
-0.0029296875
0.002197265625
0.0018310546875
-0.0087890625
0.0003662109375
-0.005126953125
-0.0010986328125
0.009521484375
0.005126953125
-0.00146484375
0.0054931640625
-0.0069580078125
0.0010986328125
-0.0018310546875
-0.006591796875
0.0003662109375
0.0032958984375
-0.0010986328125
-0.008056640625
0.018310546875
0.0135498046875
0.008056640625
0.012451171875
-0.0267333984375
-0.0135498046875
-0.016845703125
-0.0029296875
-0.0003662109375
-0.0025634765625
-0.0003662109375
-0.006591796875
-0.0003662109375
-0.012451171875
0.0025634765625
-0.0106201171875
0.0
0.0032958984375
-0.003662109375
0.0201416015625
-0.003662109375
0.01025390625
0.0032958984375
-0.0029296875
0.0018310546875
-0.00732421875
-0.0029296875
-0.00439453125
-0.0003662109375
0.0032958984375
-0.0029296875
0.00146484375
-0.00146484375
-0.00146484375
-0.0003662109375
0.00146484375
-0.002197265625
0.005859375
-0.0010986328125
0.0003662109375
-0.002197265625
-0.0029296875
-0.002197265625
-0.0062255859375
-0.0040283203125
0.0003662109375
0.0
0.000732421875
0.0054931640625
0.0029296875
0.00146484375
0.005126953125
-0.0018310546875
-0.010986328125
-0.0003662109375
-0.0128173828125
0.0040283203125
0.0029296875
-0.000732421875
-0.0157470703125
0.0146484375
0.024169921875
0.0113525390625
0.0234375
-0.025634765625
-0.0296630859375
-0.0179443359375
-0.0018310546875
0.00146484375
-0.000732421875
0.0025634765625
-0.0047607421875
0.0029296875
0.000732421875
0.0018310546875
-0.002197265625
-0.0003662109375
-0.00439453125
-0.0025634765625
0.00439453125
-0.005859375
0.0113525390625
-0.005126953125
-0.000732421875
0.0047607421875
-0.0040283203125
0.003662109375
0.0062255859375
-0.0029296875
0.0029296875
-0.000732421875
-0.00146484375
-0.000732421875
0.0029296875
-0.0032958984375
0.0010986328125
-0.002197265625
-0.01025390625
0.0040283203125
-0.000732421875
0.0003662109375
-0.0010986328125
-0.002197265625
-0.0047607421875
-0.0047607421875
-0.0010986328125
-0.000732421875
0.0003662109375
0.0087890625
0.010986328125
0.000732421875
-0.0010986328125
-0.00146484375
-0.0087890625
0.0018310546875
0.0018310546875
-0.0003662109375
0.0040283203125
-0.0029296875
-0.01171875
0.0120849609375
0.0076904296875
0.0062255859375
0.009521484375
-0.0205078125
-0.013916015625
-0.012451171875
0.0032958984375
-0.00146484375
0.0054931640625
-0.0029296875
-0.0025634765625
-0.002197265625
-0.005859375
-0.0029296875
-0.003662109375
-0.005126953125
-0.0018310546875
0.0003662109375
0.0032958984375
0.003662109375
0.008056640625
0.0003662109375
0.00146484375
-0.0010986328125
0.002197265625
-0.003662109375
0.0032958984375
-0.002197265625
0.0
0.0
-0.005859375
0.00146484375
-0.005859375
0.005859375
0.005859375
-0.00146484375
0.0106201171875
-0.005859375
0.0
0.0040283203125
-0.008056640625
-0.0025634765625
-0.005126953125
-0.0018310546875
0.0018310546875
0.0069580078125
0.0062255859375
-0.0018310546875
0.003662109375
-0.0040283203125
-0.0032958984375
-0.0003662109375
-0.010986328125
0.00439453125
-0.0047607421875
0.0010986328125
-0.01171875
0.010986328125
0.0091552734375
0.01904296875
0.0179443359375
-0.0157470703125
-0.013916015625
-0.0201416015625
-0.0054931640625
-0.00146484375
0.005126953125
-0.0003662109375
0.0003662109375
0.00146484375
-0.00439453125
0.003662109375
-0.0135498046875
0.0029296875
-0.002197265625
-0.003662109375
0.01611328125
-0.0018310546875
0.0146484375
-0.0018310546875
-0.002197265625
0.0
-0.01171875
0.0025634765625
0.008056640625
-0.0010986328125
-0.0003662109375
-0.000732421875
-0.000732421875
-0.0029296875
0.0087890625
-0.0010986328125
-0.002197265625
0.0010986328125
0.0029296875
-0.0003662109375
-0.0003662109375
-0.0062255859375
-0.0003662109375
-0.0054931640625
0.0025634765625
0.005859375
0.00146484375
0.0069580078125
-0.005859375
0.000732421875
0.00439453125
-0.008056640625
0.0069580078125
-0.0003662109375
-0.0087890625
0.0054931640625
-0.013916015625
0.005126953125
0.01904296875
0.021240234375
0.0157470703125
-0.005859375
-0.019775390625
-0.024169921875
-0.0047607421875
-0.0025634765625
0.003662109375
-0.0018310546875
0.0076904296875
-0.0054931640625
-0.00732421875
-0.000732421875
-0.0120849609375
0.0
-0.0029296875
-0.0029296875
-0.0003662109375
0.0025634765625
0.00146484375
0.0062255859375
0.0040283203125
0.0
0.012451171875
-0.0054931640625
0.0087890625
-0.0076904296875
-0.0040283203125
-0.0025634765625
-0.005859375
0.0047607421875
0.000732421875
0.0010986328125
0.0054931640625
-0.0029296875
0.0032958984375
0.0
0.0032958984375
0.0003662109375
0.000732421875
-0.0040283203125
-0.0029296875
-0.0010986328125
-0.0087890625
0.0128173828125
-0.0025634765625
0.0087890625
0.00439453125
-0.0054931640625
0.0010986328125
-0.0054931640625
0.0032958984375
0.0010986328125
-0.0069580078125
0.0018310546875
-0.0150146484375
0.01025390625
0.024169921875
0.0128173828125
0.019775390625
-0.01611328125
-0.02197265625
-0.012451171875
-0.0047607421875
0.00146484375
0.0032958984375
-0.0054931640625
-0.0040283203125
0.0
-0.0062255859375
0.005126953125
-0.01318359375
0.0040283203125
-0.01318359375
0.0018310546875
0.01318359375
-0.0040283203125
0.022705078125
-0.0040283203125
-0.00146484375
0.0025634765625
-0.0029296875
0.0
0.0
0.000732421875
-0.003662109375
0.0018310546875
0.0054931640625
-0.0025634765625
0.0029296875
0.0010986328125
0.003662109375
0.0029296875
-0.000732421875
0.000732421875
-0.0091552734375
0.0
0.0010986328125
-0.0054931640625
0.006591796875
-0.0047607421875
-0.0032958984375
0.009521484375
-0.0040283203125
0.0040283203125
0.0040283203125
-0.006591796875
0.0040283203125
-0.00146484375
0.0025634765625
-0.0003662109375
-0.0025634765625
-0.0029296875
-0.02783203125
0.02490234375
0.0150146484375
0.0223388671875
0.019775390625
-0.0234375
-0.0157470703125
-0.02197265625
0.00439453125
-0.00439453125
-0.003662109375
0.0010986328125
-0.0076904296875
0.0010986328125
-0.0029296875
-0.003662109375
-0.0062255859375
-0.0032958984375
-0.0018310546875
-0.0003662109375
0.012451171875
-0.002197265625
0.0113525390625
-0.00146484375
-0.0003662109375
0.0029296875
-0.002197265625
0.000732421875
0.000732421875
-0.0018310546875
-0.0025634765625
-0.0003662109375
0.00146484375
-0.0003662109375
-0.0010986328125
0.0003662109375
-0.0062255859375
0.0032958984375
0.0025634765625
-0.0003662109375
0.003662109375
-0.0047607421875
0.0
-0.0062255859375
-0.008056640625
0.00146484375
-0.0098876953125
0.0091552734375
0.0076904296875
-0.0010986328125
-0.0003662109375
-0.0010986328125
-0.005126953125
0.0
0.0018310546875
-0.0025634765625
-0.0113525390625
0.0069580078125
0.0128173828125
0.01025390625
0.016845703125
-0.0091552734375
-0.003662109375
-0.01611328125
-0.009521484375
-0.0018310546875
-0.0113525390625
0.0025634765625
0.002197265625
0.000732421875
-0.0040283203125
0.0
-0.0087890625
0.0
-0.01025390625
0.002197265625
-0.0003662109375
0.0010986328125
0.018310546875
-0.0040283203125
0.0084228515625
-0.000732421875
0.0010986328125
0.000732421875
0.00146484375
-0.0018310546875
-0.00146484375
-0.000732421875
0.005859375
-0.0029296875
0.0025634765625
-0.0018310546875
-0.0128173828125
0.005859375
-0.0010986328125
-0.000732421875
0.0157470703125
-0.0069580078125
-0.0029296875
0.0
-0.0128173828125
-0.0003662109375
-0.0025634765625
0.0054931640625
0.00439453125
0.000732421875
0.005126953125
-0.006591796875
-0.0018310546875
0.00146484375
-0.00146484375
0.0018310546875
0.00146484375
-0.0018310546875
-0.01904296875
0.0128173828125
0.01318359375
0.0201416015625
0.021240234375
-0.022705078125
-0.01025390625
-0.02783203125
-0.0054931640625
-0.0003662109375
-0.0029296875
0.0
-0.0025634765625
0.0018310546875
0.0029296875
-0.0054931640625
-0.0098876953125
-0.0032958984375
-0.0135498046875
0.0003662109375
0.0150146484375
-0.0040283203125
0.0062255859375
0.005126953125
0.0032958984375
-0.0025634765625
0.0040283203125
-0.003662109375
-0.00732421875
0.0040283203125
-0.0025634765625
-0.0047607421875
0.000732421875
-0.0047607421875
0.00439453125
0.0025634765625
0.0040283203125
0.0018310546875
-0.002197265625
-0.00146484375
-0.0025634765625
-0.0003662109375
-0.000732421875
-0.0032958984375
-0.00439453125
-0.0029296875
0.0025634765625
0.003662109375
0.010986328125
0.0
0.00146484375
-0.0025634765625
-0.0029296875
-0.0018310546875
-0.0062255859375
0.00146484375
-0.0003662109375
0.0003662109375
-0.02197265625
0.016845703125
0.0179443359375
0.0128173828125
0.0274658203125
-0.02490234375
-0.018310546875
-0.018310546875
0.00439453125
-0.0032958984375
-0.003662109375
-0.003662109375
-0.01318359375
0.0047607421875
-0.0106201171875
0.0076904296875
-0.01171875
0.0003662109375
0.0025634765625
-0.006591796875
0.005859375
-0.00146484375
0.0054931640625
0.0025634765625
0.002197265625
0.0025634765625
0.0047607421875
-0.000732421875
0.003662109375
-0.003662109375
-0.0029296875
-0.0010986328125
0.0025634765625
0.0
-0.0003662109375
0.0040283203125
0.00146484375
-0.0010986328125
0.0054931640625
-0.0032958984375
0.0018310546875
-0.0018310546875
0.002197265625
-0.005126953125
-0.0062255859375
0.0029296875
-0.0025634765625
0.0054931640625
0.01025390625
-0.005126953125
0.005859375
-0.00732421875
0.0003662109375
-0.0003662109375
-0.0047607421875
0.00146484375
-0.0062255859375
-0.0003662109375
-0.017578125
0.0201416015625
0.0087890625
0.0120849609375
0.017578125
-0.0230712890625
-0.008056640625
-0.017578125
0.000732421875
-0.0040283203125
0.002197265625
-0.002197265625
-0.010986328125
0.0018310546875
-0.01611328125
0.002197265625
-0.005859375
-0.0025634765625
0.00732421875
-0.0047607421875
0.01171875
-0.00146484375
0.0098876953125
-0.0003662109375
0.0062255859375
-0.000732421875
-0.002197265625
-0.0003662109375
-0.00146484375
-0.0003662109375
0.0025634765625
-0.0032958984375
-0.0040283203125
-0.002197265625
-0.00439453125
0.0018310546875
0.0
-0.0003662109375
0.0040283203125
-0.00146484375
0.0091552734375
-0.0062255859375
-0.000732421875
-0.0054931640625
-0.01318359375
0.00732421875
-0.0040283203125
0.0047607421875
0.0025634765625
-0.0018310546875
0.0069580078125
-0.005859375
0.0025634765625
-0.0040283203125
-0.005859375
0.0010986328125
-0.019775390625
0.0157470703125
0.024169921875
0.0157470703125
0.027099609375
-0.025634765625
-0.019775390625
-0.0223388671875
-0.0076904296875
-0.0010986328125
-0.0003662109375
-0.005126953125
0.0
-0.0018310546875
-0.00732421875
0.0
-0.012451171875
0.00146484375
-0.00732421875
0.0
-0.0025634765625
-0.0018310546875
0.0087890625
-0.0025634765625
0.01611328125
-0.003662109375
0.0032958984375
-0.0032958984375
-0.000732421875
-0.0032958984375
-0.00146484375
-0.002197265625
-0.005126953125
0.003662109375
0.0032958984375
0.00146484375
0.0047607421875
-0.0040283203125
-0.000732421875
-0.00146484375
-0.0018310546875
0.000732421875
0.0018310546875
-0.005859375
-0.0025634765625
-0.00146484375
-0.0010986328125
0.003662109375
0.01025390625
-0.005859375
0.0010986328125
-0.0047607421875
-0.0029296875
-0.0010986328125
-0.00146484375
0.0003662109375
0.0032958984375
-0.003662109375
-0.0120849609375
0.012451171875
0.0025634765625
0.00732421875
0.012451171875
-0.0238037109375
-0.00146484375
-0.0164794921875
-0.000732421875
-0.0010986328125
-0.0076904296875
0.0003662109375
0.0029296875
-0.0054931640625
-0.006591796875
-0.0047607421875
-0.016845703125
0.0
-0.0010986328125
-0.0025634765625
0.0120849609375
-0.0032958984375
0.0098876953125
-0.00146484375
0.0029296875
-0.0010986328125
-0.0062255859375
0.0010986328125
0.0
-0.0029296875
0.0076904296875
-0.006591796875
0.0047607421875
-0.0040283203125
0.0025634765625
-0.003662109375
-0.0054931640625
0.00146484375
-0.0076904296875
-0.00146484375
0.0003662109375
-0.010986328125
0.0018310546875
-0.0025634765625
0.002197265625
0.0025634765625
-0.000732421875
-0.004791259765625
-0.0029296875
-0.005889892578125
-0.002197265625
-0.0029296875
0.0
-0.0047607421875
0.00439453125
-0.009521484375
-0.01171875
0.011016845703125
0.005859375
0.005126953125
0.0157470703125
-0.027496337890625
-0.0150146484375
-0.0157470703125
-0.005859375
-0.0087890625
0.0032958984375
-0.0091552734375
-0.0091552734375
-0.0069580078125
-0.0032958984375
-0.013916015625
0.0025634765625
-0.0135498046875
-0.00146484375
-0.012451171875
0.0018310546875
-0.01171875
0.01025390625
-0.0113525390625
0.0029296875
-0.0113525390625
-0.00146484375
-0.0146484375
-0.00146484375
-0.016845703125
-0.00146484375
-0.017578125
0.0025634765625
-0.0201416015625
0.00146484375
-0.0164794921875
0.0003662109375
-0.01318359375
0.00146484375
-0.01904296875
0.0098876953125
-0.0252685546875
-0.0010986328125
-0.0223388671875
-0.0135498046875
-0.0142822265625
0.00146484375
-0.015380859375
0.01171875
-0.02197265625
-0.0018310546875
-0.0208740234375
-0.010986328125
-0.016845703125
0.0032958984375
-0.0216064453125
0.005126953125
-0.0208740234375
-0.005126953125
-0.0018310546875
0.009521484375
-0.0172119140625
0.0010986328125
-0.03515625
-0.006591796875
-0.0238037109375
-0.0018310546875
-0.0201416015625
0.000732421875
-0.022003173828125
-0.00439453125
-0.015045166015625
-0.012451171875
-0.0106201171875
-0.005126953125
-0.01611328125
0.0
-0.0142822265625
0.012451171875
-0.0146484375
0.0098876953125
-0.0146484375
-0.0025634765625
-0.0087890625
-0.0047607421875
-0.006591796875
0.0029296875
-0.0128173828125
0.003662109375
-0.0106201171875
0.002197265625
-0.0062255859375
-0.0029296875
-0.003662109375
-0.000732421875
-0.0069580078125
0.0076904296875
-0.0106201171875
-0.0040283203125
-0.00732421875
-0.0106201171875
-0.0047607421875
0.002197265625
-0.0029296875
0.0047607421875
-0.0032958984375
-0.0018310546875
-0.0040283203125
0.0010986328125
-0.0047607421875
0.00146484375
-0.005126953125
0.000732421875
-0.0069580078125
-0.021240234375
0.01611328125
0.0150146484375
0.01904296875
0.02490234375
-0.022705078125
-0.0091552734375
-0.0238037109375
0.005859375
-0.0047607421875
-0.005859375
-0.002197265625
-0.00439453125
-0.0018310546875
-0.0018310546875
0.002197265625
-0.0062255859375
0.00439453125
-0.006591796875
-0.0010986328125
-0.0018310546875
0.002197265625
0.006591796875
0.00439453125
0.0018310546875
0.0047607421875
0.01025390625
-0.0010986328125
0.0146484375
-0.00439453125
-0.00439453125
0.005126953125
-0.0025634765625
0.0054931640625
0.0010986328125
0.005859375
-0.00732421875
0.00732421875
-0.0047607421875
0.00439453125
0.0069580078125
0.0003662109375
0.005859375
-0.0010986328125
-0.00146484375
0.0029296875
0.0150146484375
0.0010986328125
0.0142822265625
-0.0054931640625
0.0179443359375
-0.016845703125
0.02197265625
-0.0157470703125
0.01025390625
-0.009521484375
0.0252685546875
-0.0194091796875
0.0047607421875
-0.00146484375
0.038848876953125
-0.00439453125
0.070709228515625
-0.064453125
0.049072265625
-0.076904296875
0.065185546875
-0.065185546875
0.0780029296875
-0.0721435546875
0.0787353515625
-0.074005126953125
0.0758056640625
-0.047271728515625
0.0662841796875
-0.0087890625
0.059326171875
0.0
0.060089111328125
0.0
0.052764892578125
0.0
0.03662109375
0.0
0.0150146484375
0.0
0.0076904296875
0.0
0.0120849609375
0.0
0.0113525390625
0.0
-0.0032958984375
0.0
0.0120849609375
0.0
0.0186767578125
0.0
0.0029296875
0.0
0.01904296875
0.0
0.0157470703125
0.0
0.0040283203125
0.0
0.01318359375
0.0
0.00439453125
0.0
-0.0025634765625
0.0
0.000732421875
0.0
-0.0087890625
0.0
0.017578125
0.0
0.02490234375
0.0
-0.0120849609375
0.0
-0.000732421875
0.0
0.005859375
0.0
-0.02490234375
0.0
-0.02783203125
0.0
-0.016845703125
0.0
-0.0135498046875
0.0
-0.0076904296875
0.0
-0.01171875
0.0
-0.01611328125
0.0
-0.0179443359375
0.0
-0.0274658203125
0.0
-0.0223388671875
0.0018310546875
-0.0186767578125
0.0164794921875
-0.0230712890625
0.0274658203125
-0.011383056640625
0.025299072265625
-0.017608642578125
0.027496337890625
-0.0318603515625
0.031494140625
-0.0234375
0.0267333984375
-0.02197265625
0.0263671875
-0.0245361328125
0.03369140625
-0.018310546875
0.0296630859375
-0.01611328125
0.019775390625
-0.0194091796875
0.0208740234375
-0.0194091796875
0.024169921875
-0.017578125
0.025634765625
-0.046875
0.0406494140625
0.0047607421875
0.0384521484375
0.0084228515625
0.003662109375
-0.03662109375
-0.0003662109375
-0.0135498046875
0.0179443359375
-0.0208740234375
0.02197265625
-0.0179443359375
0.021240234375
-0.0179443359375
0.01904296875
-0.025634765625
0.01904296875
-0.0208740234375
0.0186767578125
-0.009521484375
0.0186767578125
-0.0069580078125
0.0194091796875
-0.005126953125
0.0164794921875
-0.010986328125
0.0164794921875
-0.015380859375
0.0150146484375
-0.0062255859375
0.011749267578125
-0.0018310546875
0.012115478515625
-0.0087890625
0.0120849609375
-0.012451171875
0.0146484375
-0.010986328125
0.018310546875
-0.018310546875
0.0172119140625
-0.0076904296875
0.0076904296875
-0.0091552734375
0.0172119140625
-0.0164794921875
0.0216064453125
0.002197265625
0.005859375
-0.0003662109375
0.00439453125
-0.013916015625
0.012451171875
-0.0120849609375
0.0150146484375
-0.023101806640625
0.0245361328125
0.0146484375
0.0263671875
0.020172119140625
-0.0091552734375
-0.032257080078125
-0.006591796875
-0.015045166015625
0.013916015625
-0.008056640625
0.008056640625
-0.013916015625
0.010986328125
-0.0032958984375
0.0084228515625
-0.0106201171875
0.00732421875
-0.0194091796875
0.0087890625
-0.0069580078125
0.0076904296875
0.00439453125
0.009521484375
0.0040283203125
0.0084228515625
-0.0029296875
0.0091552734375
-0.00439453125
0.0069580078125
-0.0087890625
0.0054931640625
-0.0091552734375
0.0076904296875
0.0054931640625
0.0054931640625
-0.0018310546875
0.0106201171875
-0.003662109375
0.005859375
0.0032958984375
0.0040283203125
-0.005126953125
0.005859375
-0.01171875
0.005859375
-0.0084228515625
0.017578125
-0.0054931640625
0.0150146484375
0.00439453125
0.000732421875
0.0025634765625
-0.002197265625
-0.01025390625
0.006591796875
-0.0018310546875
0.005859375
-0.017578125
0.0172119140625
0.0069580078125
0.02490234375
0.019775390625
-0.01171875
-0.0157470703125
-0.015380859375
-0.003662109375
0.003662109375
-0.00146484375
0.0040283203125
-0.009521484375
0.0069580078125
-0.005126953125
0.0047607421875
-0.01318359375
0.005859375
-0.012451171875
0.0040283203125
-0.000732421875
0.0040283203125
0.0054931640625
0.00732421875
0.01171875
0.0029296875
0.0010986328125
0.000732421875
-0.0029296875
0.005859375
-0.005126953125
0.0098876953125
-0.003662109375
0.005859375
0.0076904296875
0.0010986328125
-0.00146484375
0.0032958984375
-0.0018310546875
0.00439453125
0.008056640625
0.0
-0.0091552734375
0.002197265625
-0.009521484375
0.0054931640625
-0.0018310546875
0.0098876953125
0.00146484375
0.005859375
0.0047607421875
0.0003662109375
-0.0032958984375
0.0047607421875
-0.005859375
0.005126953125
0.0047607421875
-0.0025634765625
-0.0263671875
0.025634765625
0.006591796875
0.027099609375
0.0245361328125
-0.022705078125
-0.016845703125
-0.01611328125
0.00146484375
0.0029296875
-0.0040283203125
0.0032958984375
-0.0150146484375
0.008056640625
-0.005126953125
0.0047607421875
-0.0018310546875
0.0010986328125
-0.0135498046875
0.0047607421875
0.00146484375
0.00439453125
0.01904296875
-0.0010986328125
0.008056640625
0.0010986328125
0.000732421875
0.0010986328125
-0.0084228515625
0.003662109375
-0.01025390625
0.0087890625
0.0113525390625
0.0003662109375
0.0047607421875
0.0010986328125
-0.005859375
0.0032958984375
-0.0025634765625
0.0025634765625
0.002197265625
0.005523681640625
-0.00146484375
0.0010986328125
-0.008056640625
0.0018310546875
-0.0029296875
0.008819580078125
-0.0054931640625
0.0087890625
-0.00146484375
0.0025634765625
0.00732421875
-0.0003662109375
0.0062255859375
0.00146484375
0.0025634765625
0.0010986328125
-0.0135498046875
0.0179443359375
0.0146484375
0.0164794921875
0.01318359375
-0.01611328125
-0.01611328125
-0.01318359375
-0.00146484375
0.003662109375
0.0029296875
0.0010986328125
-0.0054931640625
0.0025634765625
-0.0062255859375
0.0040283203125
-0.01171875
0.003662109375
-0.006591796875
0.0003662109375
0.0113525390625
-0.00146484375
0.0054931640625
0.0029296875
0.0
0.003662109375
-0.0003662109375
-0.0010986328125
-0.003662109375
0.0010986328125
-0.0010986328125
0.005859375
-0.002197265625
0.003662109375
-0.003662109375
0.0025634765625
0.0076904296875
-0.00146484375
0.0018310546875
0.00146484375
-0.00146484375
0.0025634765625
0.000732421875
0.0018310546875
-0.00146484375
0.0
0.0040283203125
0.0032958984375
-0.0025634765625
0.006591796875
-0.0054931640625
0.0010986328125
0.005859375
-0.0003662109375
0.00439453125
-0.000732421875
0.0054931640625
-0.002197265625
-0.0252685546875
0.0230712890625
0.0003662109375
0.0263671875
0.0245361328125
-0.0234375
-0.0164794921875
-0.0216064453125
-0.002197265625
0.0032958984375
0.00439453125
-0.0010986328125
-0.00439453125
0.0010986328125
-0.0091552734375
0.003662109375
-0.0084228515625
0.00146484375
0.0018310546875
-0.0018310546875
0.0087890625
0.0
0.01611328125
-0.00146484375
0.003662109375
0.0018310546875
-0.0076904296875
0.006591796875
-0.0003662109375
0.00146484375
-0.0018310546875
0.0
0.0018310546875
0.0010986328125
-0.000732421875
0.00439453125
-0.00439453125
0.0018310546875
0.0025634765625
-0.0018310546875
-0.00146484375
0.0025634765625
-0.0040283203125
0.0003662109375
-0.0076904296875
0.0029296875
0.0
0.0076904296875
0.0040283203125
0.005859375
0.0018310546875
0.000732421875
0.005859375
-0.0029296875
-0.0003662109375
-0.0018310546875
-0.0076904296875
0.00439453125
-0.015380859375
0.0164794921875
0.0216064453125
0.005126953125
0.0216064453125
-0.017578125
-0.0201416015625
-0.006591796875
-0.00732421875
0.005126953125
0.005126953125
-0.002197265625
-0.0040283203125
0.002197265625
-0.0025634765625
0.002197265625
-0.0032958984375
0.0029296875
-0.0157470703125
0.005859375
0.000732421875
-0.003662109375
0.01025390625
-0.002197265625
0.00732421875
0.0025634765625
0.0062255859375
0.000732421875
-0.0040283203125
0.0025634765625
-0.0018310546875
0.00146484375
0.0032958984375
0.000732421875
0.0010986328125
0.000732421875
-0.0069580078125
0.002197265625
0.00146484375
0.0010986328125
0.0032958984375
0.0032958984375
-0.00439453125
-0.0018310546875
-0.0029296875
-0.0040283203125
0.002197265625
0.005859375
0.0084228515625
0.003662109375
0.005126953125
0.0
-0.0087890625
0.003662109375
-0.005859375
0.00146484375
0.0025634765625
0.00146484375
-0.01611328125
0.012451171875
0.0069580078125
0.021240234375
0.025634765625
-0.013916015625
-0.0054931640625
-0.024169921875
-0.0084228515625
0.0003662109375
-0.006591796875
-0.0018310546875
-0.003662109375
0.0010986328125
-0.002197265625
0.0010986328125
-0.0062255859375
-0.0010986328125
-0.005126953125
0.0003662109375
0.00146484375
0.0003662109375
0.01611328125
0.0003662109375
0.0091552734375
0.0010986328125
-0.000732421875
0.0010986328125
-0.0032958984375
0.0029296875
0.0040283203125
-0.000732421875
0.003662109375
-0.0003662109375
-0.0062255859375
0.0032958984375
-0.0087890625
0.00439453125
-0.0003662109375
0.003662109375
0.0062255859375
0.0003662109375
0.0025634765625
0.0003662109375
-0.00439453125
0.0029296875
-0.00146484375
-0.002197265625
0.0047607421875
0.0032958984375
0.0003662109375
0.0040283203125
0.0040283203125
-0.003662109375
0.000732421875
0.00146484375
0.005126953125
0.0
-0.0003662109375
-0.0003662109375
-0.0355224609375
0.0208740234375
0.024169921875
0.0106201171875
0.019775390625
-0.01904296875
-0.0238037109375
-0.01318359375
0.012451171875
-0.0084228515625
-0.000732421875
-0.000732421875
-0.0069580078125
0.0076904296875
-0.00732421875
0.005126953125
-0.0018310546875
-0.002197265625
-0.005859375
-0.0010986328125
-0.0076904296875
0.0047607421875
0.0128173828125
-0.00146484375
0.006591796875
0.0003662109375
-0.008056640625
0.006591796875
-0.003662109375
0.0029296875
0.0029296875
-0.000732421875
0.0025634765625
-0.0010986328125
0.00732421875
-0.0003662109375
0.0047607421875
0.00146484375
-0.0010986328125
0.0003662109375
0.0025634765625
-0.00146484375
0.0032958984375
-0.003662109375
-0.008056640625
0.0010986328125
-0.006591796875
0.0091552734375
0.0076904296875
0.0047607421875
0.0032958984375
-0.0018310546875
0.0054931640625
-0.0076904296875
-0.0003662109375
-0.0010986328125
-0.01171875
0.0076904296875
-0.0029296875
0.006591796875
0.010986328125
0.017578125
0.003662109375
-0.0029296875
-0.0091552734375
-0.0201416015625
-0.0032958984375
-0.0025634765625
0.0076904296875
-0.0047607421875
0.0010986328125
-0.0018310546875
-0.0157470703125
0.00732421875
-0.0069580078125
0.000732421875
-0.0018310546875
-0.0018310546875
-0.005859375
0.0018310546875
0.009521484375
-0.000732421875
0.0128173828125
0.0010986328125
0.0018310546875
-0.0003662109375
0.0032958984375
-0.0029296875
-0.00146484375
0.0029296875
-0.0029296875
0.0010986328125
0.0076904296875
-0.0040283203125
0.0029296875
-0.002197265625
-0.009521484375
0.002197265625
0.00146484375
0.0003662109375
0.0084228515625
-0.0010986328125
-0.0025634765625
-0.00146484375
-0.0098876953125
0.0029296875
0.000732421875
0.008056640625
0.005859375
0.0
-0.005859375
0.000732421875
0.003662109375
0.0
0.008056640625
-0.0029296875
0.00146484375
0.0
-0.0205078125
0.019775390625
0.0084228515625
0.0150146484375
0.0201416015625
-0.022705078125
-0.0106201171875
-0.0146484375
-0.005126953125
0.0010986328125
-0.0047607421875
-0.0032958984375
0.0025634765625
-0.002197265625
-0.01171875
0.005126953125
-0.0208740234375
0.006591796875
0.00146484375
-0.0010986328125
0.0150146484375
-0.0018310546875
0.010986328125
-0.0010986328125
0.0040283203125
-0.0010986328125
-0.005859375
0.0029296875
-0.003662109375
0.003662109375
0.0025634765625
0.0
0.0003662109375
0.0003662109375
0.0054931640625
0.0
0.0054931640625
0.00146484375
-0.0040283203125
0.0047607421875
0.002197265625
-0.0029296875
0.0029296875
-0.006591796875
-0.0003662109375
-0.0047607421875
-0.005859375
0.008056640625
-0.0029296875
0.0098876953125
0.005126953125
-0.0032958984375
0.0047607421875
-0.0040283203125
0.0084228515625
-0.0029296875
-0.0069580078125
0.0025634765625
-0.0194091796875
0.016845703125
0.0234375
0.017578125
0.01171875
-0.0164794921875
-0.0201416015625
-0.022705078125
0.0029296875
-0.002197265625
0.0047607421875
-0.00146484375
-0.005859375
-0.0003662109375
-0.0113525390625
-0.002197265625
-0.01025390625
0.00146484375
-0.0040283203125
0.0062255859375
0.002197265625
0.0029296875
0.002197265625
0.0025634765625
0.0091552734375
0.0010986328125
0.012451171875
-0.005126953125
0.0047607421875
-0.00439453125
-0.006591796875
0.0010986328125
-0.024169921875
0.0179443359375
0.0201416015625
0.0150146484375
0.0230712890625
-0.019775390625
-0.0179443359375
-0.0157470703125
0.00439453125
0.0
-0.005126953125
-0.0003662109375
-0.0091552734375
0.0018310546875
0.0047607421875
-0.0032958984375
-0.01171875
-0.000732421875
-0.0032958984375
0.0018310546875
0.0179443359375
0.0
0.0062255859375
0.000732421875
0.0091552734375
-0.0040283203125
0.0054931640625
-0.003662109375
-0.0113525390625
0.005859375
0.01171875
-0.0040283203125
0.0091552734375
-0.005126953125
-0.008056640625
0.0003662109375
0.0025634765625
-0.0029296875
-0.0113525390625
0.006591796875
0.0025634765625
-0.000732421875
0.0025634765625
0.0
0.00146484375
-0.0018310546875
0.008056640625
-0.003662109375
-0.0164794921875
0.0087890625
-0.0029296875
0.002197265625
0.009521484375
-0.0047607421875
-0.0098876953125
0.00146484375
-0.0040283203125
0.003662109375
0.0150146484375
-0.003662109375
0.009521484375
-0.0084228515625
0.0087890625
-0.0047607421875
-0.0018310546875
0.00439453125
-0.013916015625
0.0029296875
0.00439453125
-0.003662109375
0.0010986328125
0.0010986328125
-0.00439453125
0.0076904296875
0.0164794921875
0.00732421875
0.01318359375
-0.0084228515625
-0.01171875
-0.0135498046875
-0.0128173828125
-0.0018310546875
0.01171875
-0.005126953125
0.0032958984375
0.0
-0.0087890625
0.006591796875
0.0018310546875
-0.0025634765625
-0.01025390625
-0.003662109375
0.000732421875
-0.0062255859375
0.0223388671875
-0.009521484375
0.019775390625
-0.0087890625
0.010986328125
-0.0084228515625
0.006591796875
-0.0054931640625
0.008056640625
-0.00439453125
0.0
-0.0018310546875
0.005859375
-0.0029296875
0.008056640625
-0.0025634765625
-0.0054931640625
-0.0018310546875
0.0106201171875
-0.0106201171875
0.0135498046875
-0.0069580078125
0.0087890625
-0.003662109375
0.0076904296875
-0.006591796875
-0.0032958984375
-0.005126953125
0.01025390625
-0.0032958984375
0.0157470703125
-0.0040283203125
-0.00146484375
-0.00439453125
-0.0135498046875
0.0025634765625
0.00732421875
-0.0047607421875
0.0084228515625
-0.0040283203125
0.0106201171875
0.0091552734375
0.0289306640625
-0.0135498046875
0.0018310546875
-0.0223388671875
-0.010986328125
-0.0047607421875
0.015380859375
-0.01025390625
0.002197265625
-0.005126953125
-0.0179443359375
0.0054931640625
-0.0040283203125
0.0010986328125
-0.009521484375
0.00439453125
0.0106201171875
-0.0047607421875
0.0194091796875
-0.0106201171875
-0.0010986328125
0.002197265625
0.027130126953125
-0.015411376953125
0.030426025390625
-0.026031494140625
0.019775390625
-0.0234375
0.0552978515625
-0.049072265625
0.07177734375
-0.0673828125
0.0831298828125
-0.08203125
0.0919189453125
-0.0908203125
0.08203125
-0.08056640625
0.0750732421875
-0.0684814453125
0.04541015625
-0.0457763671875
0.024566650390625
-0.033721923828125
0.026031494140625
-0.027130126953125
0.016845703125
-0.0091552734375
0.0047607421875
-0.0029296875
0.005859375
-0.0069580078125
-0.0018310546875
0.0029296875
-0.00732421875
0.0091552734375
-0.002197265625
0.0040283203125
-0.026763916015625
0.022735595703125
0.0186767578125
0.014678955078125
0.011016845703125
-0.0087890625
-0.050933837890625
0.0146484375
-0.024200439453125
0.0223388671875
-0.018310546875
0.019775390625
-0.0267333984375
0.0260009765625
-0.041015625
0.03076171875
-0.0399169921875
0.032958984375
-0.021240234375
0.021240234375
-0.0194091796875
0.0205078125
-0.01611328125
0.02490234375
-0.01318359375
0.0230712890625
-0.0164794921875
0.017578125
-0.0216064453125
0.019775390625
-0.027099609375
0.0238037109375
-0.01318359375
0.01904296875
-0.01318359375
0.01611328125
-0.018310546875
0.0135498046875
-0.01611328125
0.01611328125
-0.0186767578125
0.017578125
-0.0106201171875
0.0106201171875
-0.0146484375
0.0128173828125
-0.016845703125
0.019775390625
-0.0120849609375
0.0223388671875
-0.01025390625
0.01318359375
-0.0120849609375
0.0087890625
-0.0164794921875
0.0135498046875
-0.0142822265625
0.0120849609375
-0.0201416015625
0.0205078125
-0.0047607421875
0.0318603515625
0.005859375
-0.0003662109375
-0.0179443359375
-0.01171875
-0.0245361328125
0.0135498046875
-0.006591796875
0.010986328125
-0.008453369140625
0.008087158203125
-0.023468017578125
0.011383056640625
-0.0179443359375
0.010986328125
-0.012451171875
0.008056640625
-0.0087890625
0.005859375
-0.000732421875
0.0076904296875
0.000732421875
0.0091552734375
-0.0047607421875
0.0054931640625
-0.009521484375
0.0098876953125
-0.0186767578125
0.013916015625
-0.0018310546875
0.0040283203125
0.006591796875
0.0
-0.0120849609375
0.006591796875
-0.0091552734375
0.0084228515625
0.0
0.0040283203125
-0.0018310546875
-0.000732421875
-0.0076904296875
0.0040283203125
-0.006591796875
0.015380859375
-0.0047607421875
0.009521484375
-0.006591796875
0.000732421875
-0.006591796875
0.0032958984375
-0.005126953125
0.006591796875
-0.005126953125
0.0032958984375
-0.0263671875
0.0234375
0.0146484375
0.02197265625
0.0263671875
-0.022705078125
-0.0142822265625
-0.0205078125
-0.016845703125
0.006591796875
-0.0113525390625
0.006591796875
0.0076904296875
0.0003662109375
-0.009521484375
0.010986328125
-0.022705078125
0.0113525390625
-0.005859375
0.0
0.0032958984375
0.0003662109375
0.0040283203125
0.0032958984375
0.002197265625
0.0029296875
-0.0091552734375
0.006591796875
-0.0087890625
0.0069580078125
0.00146484375
0.0010986328125
0.00146484375
0.0032958984375
-0.0010986328125
0.003662109375
-0.0040283203125
0.0032958984375
-0.003662109375
0.0047607421875
-0.0003662109375
0.002197265625
-0.0032958984375
-0.0010986328125
-0.000732421875
-0.000732421875
-0.005859375
0.0113525390625
-0.00439453125
0.010986328125
0.000732421875
-0.0003662109375
-0.0054931640625
0.000732421875
-0.0040283203125
0.005859375
0.0025634765625
0.0029296875
-0.0157470703125
0.015380859375
0.00439453125
0.0201416015625
0.0223388671875
-0.018310546875
-0.01025390625
-0.02197265625
-0.0087890625
0.0029296875
0.0040283203125
-0.00146484375
-0.00146484375
-0.0010986328125
-0.01025390625
0.0047607421875
-0.003662109375
-0.0010986328125
-0.0069580078125
-0.002197265625
-0.0069580078125
0.0029296875
0.0054931640625
0.005859375
0.01171875
0.0003662109375
0.005859375
-0.0010986328125
-0.005859375
0.0047607421875
-0.0029296875
0.0025634765625
0.0018310546875
-0.002197265625
0.0054931640625
-0.0029296875
-0.0018310546875
0.0029296875
-0.0062255859375
0.0047607421875
-0.0087890625
0.002197265625
-0.0029296875
-0.0018310546875
0.006591796875
0.00146484375
0.0018310546875
0.0091552734375
-0.003662109375
0.00439453125
0.0
-0.0018310546875
0.0029296875
-0.0029296875
-0.003662109375
0.0018310546875
0.00146484375
-0.000732421875
-0.018310546875
0.0157470703125
0.01318359375
0.0157470703125
0.0205078125
-0.0179443359375
-0.01171875
-0.0142822265625
-0.002197265625
0.0025634765625
-0.005859375
0.00146484375
-0.006591796875
0.002197265625
0.0003662109375
0.003662109375
-0.0047607421875
0.0029296875
-0.0172119140625
0.0047607421875
0.0032958984375
-0.000732421875
0.0150146484375
-0.00439453125
0.0029296875
0.003662109375
0.0
0.00146484375
0.0025634765625
-0.00439453125
0.0018310546875
0.002197265625
-0.0010986328125
0.0018310546875
-0.005126953125
0.0025634765625
0.002197265625
0.0
-0.0054931640625
0.000732421875
-0.00439453125
0.0025634765625
0.0047607421875
-0.0032958984375
0.0010986328125
-0.0025634765625
-0.01171875
0.009521484375
-0.0029296875
0.0029296875
0.0135498046875
-0.005126953125
-0.005859375
0.0025634765625
0.00146484375
-0.000732421875
0.008056640625
-0.0054931640625
-0.018310546875
0.0157470703125
0.0172119140625
0.0179443359375
0.0157470703125
-0.0186767578125
-0.022705078125
-0.015380859375
0.0025634765625
-0.0029296875
0.0029296875
-0.0018310546875
-0.0062255859375
0.002197265625
0.0
-0.0025634765625
-0.008056640625
0.0003662109375
-0.0150146484375
0.0025634765625
0.0091552734375
-0.002197265625
0.016845703125
-0.0003662109375
0.0040283203125
0.0029296875
-0.0018310546875
0.0010986328125
-0.006591796875
-0.0010986328125
-0.00146484375
-0.000732421875
0.005126953125
0.000732421875
0.0018310546875
0.0003662109375
0.0032958984375
-0.002197265625
0.0003662109375
-0.0018310546875
-0.003662109375
0.005859375
-0.0025634765625
0.0010986328125
-0.0054931640625
-0.00146484375
-0.0003662109375
0.005126953125
0.0076904296875
-0.0025634765625
0.006591796875
-0.0047607421875
-0.008056640625
0.0029296875
0.0018310546875
-0.000732421875
0.0069580078125
-0.002197265625
-0.027099609375
0.0208740234375
0.01611328125
0.0135498046875
0.02783203125
-0.0205078125
-0.01318359375
-0.0146484375
-0.002197265625
-0.000732421875
-0.00439453125
0.0
-0.006591796875
0.0032958984375
-0.008056640625
0.0040283203125
-0.0076904296875
0.0018310546875
-0.006591796875
-0.002197265625
0.0040283203125
-0.0018310546875
0.009521484375
0.0029296875
0.0069580078125
0.0
0.0062255859375
-0.000732421875
-0.005859375
0.0029296875
0.0
-0.0003662109375
0.0029296875
-0.000732421875
0.0
-0.003662109375
-0.0018310546875
0.000732421875
0.0054931640625
0.0018310546875
0.0047607421875
-0.002197265625
-0.006591796875
-0.00146484375
-0.006591796875
0.003662109375
0.002197265625
0.0084228515625
0.005126953125
-0.0010986328125
-0.000732421875
-0.00439453125
0.00439453125
-0.0025634765625
-0.005859375
0.005126953125
-0.000732421875
0.0003662109375
-0.0003662109375
0.0084228515625
0.008056640625
0.002197265625
0.008056640625
-0.0179443359375
-0.0146484375
-0.003662109375
-0.005126953125
0.0018310546875
0.0047607421875
-0.000732421875
0.006591796875
-0.0025634765625
-0.0098876953125
0.0010986328125
-0.0201416015625
0.00439453125
-0.005126953125
0.0
0.016845703125
-0.0040283203125
0.009521484375
0.0010986328125
-0.0128173828125
0.006591796875
0.006591796875
-0.0010986328125
0.0087890625
-0.0025634765625
-0.0018310546875
0.0
-0.00146484375
0.0003662109375
-0.005126953125
0.0025634765625
0.00146484375
0.0
0.0003662109375
-0.0010986328125
-0.0018310546875
0.0025634765625
-0.0018310546875
-0.0018310546875
-0.006591796875
0.002197265625
-0.0003662109375
0.005859375
0.01171875
-0.0054931640625
0.0029296875
-0.0010986328125
-0.002197265625
0.0025634765625
0.005126953125
-0.0029296875
-0.0010986328125
-0.0032958984375
-0.0252685546875
0.0172119140625
0.015380859375
0.008056640625
0.024169921875
-0.0208740234375
-0.01611328125
-0.00732421875
-0.008056640625
0.005126953125
-0.0018310546875
0.0
0.0010986328125
0.0010986328125
0.000732421875
0.00146484375
-0.0076904296875
0.0029296875
-0.0084228515625
0.002197265625
0.0069580078125
-0.00439453125
0.01025390625
-0.0018310546875
0.003662109375
0.000732421875
-0.0010986328125
0.0010986328125
0.0003662109375
0.0025634765625
0.005859375
-0.00146484375
-0.0003662109375
-0.0040283203125
-0.0047607421875
0.00146484375
0.005859375
-0.000732421875
0.00439453125
-0.0018310546875
-0.0025634765625
0.00146484375
-0.000732421875
-0.0032958984375
-0.0003662109375
-0.0047607421875
-0.008056640625
0.009521484375
0.0003662109375
0.006591796875
0.0113525390625
-0.006591796875
-0.0047607421875
-0.0003662109375
-0.0040283203125
0.0003662109375
0.00439453125
0.0
-0.0091552734375
0.0128173828125
0.01904296875
0.0164794921875
0.0106201171875
-0.0135498046875
-0.0172119140625
-0.02197265625
-0.000732421875
-0.0025634765625
0.0040283203125
-0.0025634765625
-0.0010986328125
0.000732421875
-0.0098876953125
0.003662109375
-0.010986328125
0.0003662109375
-0.0062255859375
-0.0029296875
0.005126953125
-0.00146484375
0.01025390625
0.00146484375
0.01025390625
0.0
-0.00146484375
0.00146484375
-0.0029296875
0.0
-0.00439453125
0.0018310546875
-0.00439453125
0.002197265625
0.0062255859375
-0.0018310546875
-0.005126953125
0.0029296875
0.0040283203125
0.0
0.0146484375
-0.005126953125
-0.0113525390625
0.003662109375
-0.002197265625
-0.0025634765625
0.0084228515625
-0.0018310546875
-0.01318359375
0.01318359375
-0.000732421875
0.0010986328125
0.0069580078125
-0.0047607421875
-0.003662109375
0.0018310546875
-0.003662109375
0.0032958984375
-0.005126953125
0.0040283203125
-0.01318359375
0.013916015625
0.0234375
0.005859375
0.0172119140625
-0.018310546875
-0.015380859375
-0.0128173828125
0.00146484375
-0.002197265625
0.0003662109375
-0.0003662109375
-0.0040283203125
0.00439453125
-0.005126953125
0.003662109375
-0.0146484375
0.002197265625
-0.0025634765625
-0.0010986328125
0.0128173828125
-0.002197265625
-0.0040283203125
0.0047607421875
0.0010986328125
0.000732421875
0.009521484375
-0.0029296875
0.0
0.00146484375
0.0018310546875
0.0
0.0062255859375
-0.0010986328125
0.01318359375
-0.0047607421875
-0.000732421875
-0.000732421875
-0.0150146484375
0.0076904296875
-0.000732421875
0.0025634765625
0.0047607421875
-0.008056640625
-0.0032958984375
-0.00439453125
-0.0087890625
0.01025390625
0.003662109375
0.005859375
0.0087890625
-0.0062255859375
0.0010986328125
-0.0025634765625
0.0032958984375
0.0
-0.0047607421875
0.000732421875
-0.0120849609375
0.0062255859375
0.0076904296875
0.015380859375
0.0120849609375
-0.0018310546875
-0.00439453125
-0.0194091796875
-0.0062255859375
-0.0032958984375
-0.0029296875
-0.000732421875
0.00146484375
-0.00146484375
0.0010986328125
0.0
-0.0179443359375
0.002197265625
-0.012451171875
-0.0003662109375
0.006591796875
-0.002197265625
0.0157470703125
-0.000732421875
0.0069580078125
0.00146484375
-0.0087890625
0.006591796875
-0.000732421875
0.000732421875
0.0018310546875
-0.0010986328125
0.000732421875
-0.000732421875
0.0025634765625
-0.003662109375
0.00146484375
0.0003662109375
-0.0010986328125
0.0018310546875
0.005126953125
-0.0018310546875
0.0084228515625
-0.003662109375
-0.006591796875
0.0054931640625
-0.0150146484375
0.00732421875
-0.0018310546875
0.002197265625
0.0054931640625
0.0018310546875
-0.00439453125
0.0003662109375
-0.002197265625
0.00146484375
0.005126953125
0.000732421875
0.000732421875
0.0003662109375
0.0047607421875
-0.0040283203125
-0.0098876953125
0.01318359375
0.0076904296875
0.0128173828125
0.0150146484375
-0.018310546875
-0.005126953125
-0.015380859375
-0.0029296875
0.0018310546875
-0.0091552734375
0.005126953125
-0.0054931640625
0.00439453125
-0.0040283203125
0.0029296875
-0.0018310546875
-0.0029296875
-0.0069580078125
-0.0010986328125
0.005126953125
0.0018310546875
0.0128173828125
0.0003662109375
0.0010986328125
0.0010986328125
-0.003662109375
-0.0003662109375
0.0
-0.002197265625
0.0040283203125
-0.00146484375
0.0032958984375
-0.000732421875
0.003662109375
0.0025634765625
0.00439453125
0.000732421875
-0.0018310546875
-0.0018310546875
-0.000732421875
0.0
0.0018310546875
-0.0003662109375
-0.00146484375
-0.00439453125
0.0040283203125
0.0
-0.0029296875
0.01025390625
-0.009521484375
0.0029296875
0.0029296875
-0.003662109375
0.013916015625
-0.0047607421875
-0.002197265625
0.000732421875
-0.00732421875
0.0010986328125
-0.019775390625
0.0201416015625
0.015380859375
0.016845703125
0.02783203125
-0.0267333984375
-0.02197265625
-0.018310546875
-0.0018310546875
-0.000732421875
0.009521484375
-0.0025634765625
-0.003662109375
-0.0003662109375
-0.013916015625
0.0054931640625
-0.0106201171875
0.0029296875
-0.0029296875
-0.0010986328125
0.008056640625
-0.0040283203125
0.008056640625
-0.00146484375
-0.0040283203125
0.005859375
0.0029296875
-0.0010986328125
0.0084228515625
-0.0047607421875
-0.0040283203125
0.0032958984375
-0.0003662109375
0.0025634765625
0.006591796875
-0.0025634765625
-0.000732421875
-0.000732421875
-0.0032958984375
0.0003662109375
-0.000732421875
-0.00146484375
0.0003662109375
-0.0010986328125
-0.005859375
0.0025634765625
0.005859375
-0.002197265625
-0.002197265625
0.0054931640625
-0.003662109375
0.005126953125
0.0076904296875
-0.0054931640625
-0.00439453125
-0.000732421875
-0.0040283203125
0.0040283203125
0.0010986328125
0.000732421875
-0.0120849609375
0.0120849609375
0.0311279296875
0.0025634765625
0.02197265625
-0.0208740234375
-0.027099609375
-0.00732421875
-0.0003662109375
-0.0029296875
0.005859375
-0.0032958984375
-0.0054931640625
0.0054931640625
-0.0091552734375
0.0032958984375
-0.01171875
0.0032958984375
-0.010986328125
0.0029296875
0.0047607421875
-0.003662109375
0.017578125
-0.0047607421875
0.0069580078125
0.0003662109375
-0.000732421875
0.0
0.0018310546875
-0.0010986328125
-0.0003662109375
0.0003662109375
0.0069580078125
-0.0029296875
-0.0003662109375
-0.003662109375
-0.0076904296875
0.00146484375
-0.00439453125
0.00439453125
0.005126953125
-0.002197265625
-0.0018310546875
0.0010986328125
-0.0062255859375
0.0003662109375
0.0003662109375
-0.0032958984375
-0.0029296875
0.0069580078125
0.0091552734375
0.0018310546875
0.0010986328125
-0.003662109375
0.0025634765625
-0.0062255859375
0.0018310546875
-0.00146484375
-0.010986328125
0.0040283203125
-0.0230712890625
0.017578125
0.0252685546875
0.0172119140625
0.0289306640625
-0.0230712890625
-0.015380859375
-0.0238037109375
-0.005859375
0.000732421875
-0.013916015625
0.0069580078125
0.0
-0.000732421875
0.002197265625
-0.00439453125
-0.010986328125
0.0025634765625
-0.012451171875
0.00146484375
0.0040283203125
-0.0018310546875
0.012451171875
0.0018310546875
0.0120849609375
0.0
0.00439453125
-0.0010986328125
-0.0047607421875
0.000732421875
0.00439453125
-0.0029296875
-0.005126953125
0.0040283203125
-0.0029296875
0.0003662109375
0.0076904296875
-0.0029296875
-0.00732421875
0.0062255859375
-0.008056640625
0.0018310546875
0.0025634765625
-0.002197265625
0.0029296875
-0.0018310546875
-0.002197265625
-0.0018310546875
-0.0018310546875
0.0040283203125
0.0054931640625
0.00732421875
0.005859375
-0.0003662109375
0.006591796875
-0.005859375
0.0032958984375
-0.002197265625
0.0010986328125
-0.0003662109375
-0.013916015625
0.009521484375
-0.0018310546875
0.01611328125
0.02197265625
-0.010986328125
-0.0076904296875
-0.01318359375
-0.015380859375
0.0029296875
0.005859375
-0.0025634765625
-0.0047607421875
0.0003662109375
-0.0135498046875
0.0069580078125
0.0029296875
-0.0003662109375
-0.003662109375
-0.00439453125
-0.006591796875
-0.0010986328125
0.006591796875
0.0
0.0106201171875
0.002197265625
0.009521484375
-0.0032958984375
0.0025634765625
-0.002197265625
0.002197265625
0.0003662109375
0.0018310546875
-0.000732421875
0.000732421875
0.0
-0.0003662109375
0.0018310546875
-0.002197265625
0.0010986328125
-0.000732421875
-0.00146484375
0.000732421875
0.0003662109375
-0.00146484375
-0.000732421875
-0.0029296875
0.0
-0.0018310546875
0.009521484375
-0.00146484375
0.005126953125
0.0062255859375
-0.0047607421875
0.0
0.0025634765625
0.00146484375
-0.0003662109375
0.002197265625
-0.0029296875
-0.0347900390625
0.02490234375
0.0179443359375
0.0164794921875
0.029296875
-0.0260009765625
-0.0216064453125
-0.0186767578125
0.0018310546875
-0.0010986328125
0.002197265625
-0.00146484375
-0.0084228515625
0.005126953125
-0.000732421875
0.00146484375
-0.0120849609375
0.0
-0.0135498046875
0.003662109375
0.0076904296875
-0.005126953125
0.0135498046875
-0.005126953125
0.0087890625
0.0018310546875
0.00146484375
0.0029296875
0.0040283203125
0.0
-0.006591796875
0.0018310546875
-0.0040283203125
-0.0003662109375
0.0062255859375
-0.0010986328125
-0.0029296875
0.0029296875
-0.0010986328125
0.0010986328125
-0.0047607421875
0.0032958984375
0.000732421875
0.0
0.0054931640625
-0.003662109375
-0.0040283203125
0.0
0.0003662109375
0.0054931640625
-0.0025634765625
0.00439453125
-0.0047607421875
0.000732421875
0.0040283203125
-0.00146484375
0.008056640625
-0.0047607421875
-0.000732421875
-0.0018310546875
-0.029296875
0.02197265625
0.0230712890625
0.01171875
0.031494140625
-0.027099609375
-0.01904296875
-0.017578125
-0.002197265625
-0.0029296875
-0.0029296875
-0.002197265625
-0.003662109375
0.00439453125
-0.00146484375
0.000732421875
-0.009521484375
-0.0018310546875
-0.015380859375
0.002197265625
0.005859375
-0.0018310546875
0.018310546875
-0.003662109375
-0.0018310546875
0.0029296875
-0.0029296875
0.000732421875
0.0150146484375
-0.005859375
0.003662109375
-0.000732421875
-0.00146484375
-0.0010986328125
0.0047607421875
-0.0029296875
-0.0040283203125
0.0
-0.0029296875
0.0025634765625
-0.000732421875
0.000732421875
0.00146484375
-0.0040283203125
0.0047607421875
-0.005126953125
0.0
-0.0010986328125
-0.0010986328125
0.0054931640625
-0.0010986328125
0.003662109375
-0.0018310546875
-0.0018310546875
-0.0003662109375
-0.000732421875
0.0029296875
0.0010986328125
0.003662109375
-0.0029296875
-0.0263671875
0.0234375
0.0150146484375
0.02197265625
0.0274658203125
-0.02490234375
-0.021240234375
-0.021240234375
-0.0062255859375
-0.000732421875
0.0010986328125
-0.003662109375
0.0
0.0
-0.0029296875
0.0040283203125
-0.013916015625
0.0010986328125
-0.0098876953125
-0.0025634765625
0.0076904296875
-0.003662109375
0.0186767578125
-0.003662109375
0.008056640625
0.0003662109375
-0.01171875
0.0054931640625
0.0032958984375
-0.0018310546875
0.00146484375
0.0
0.0010986328125
0.0018310546875
0.0062255859375
-0.0018310546875
-0.0087890625
0.0040283203125
0.0029296875
-0.0010986328125
0.002197265625
-0.00439453125
-0.005126953125
0.0010986328125
0.0069580078125
-0.006591796875
-0.000732421875
-0.0032958984375
-0.00732421875
0.009521484375
0.00146484375
0.0032958984375
0.0120849609375
-0.0084228515625
-0.00146484375
0.0
-0.0135498046875
0.0076904296875
0.00146484375
0.0
-0.0172119140625
0.015380859375
0.0223388671875
0.0069580078125
0.0281982421875
-0.0234375
-0.01318359375
-0.013916015625
-0.0032958984375
0.00146484375
-0.005859375
0.000732421875
-0.0003662109375
-0.002197265625
-0.008056640625
0.0029296875
-0.005859375
0.00146484375
-0.00732421875
-0.00146484375
-0.005859375
-0.0003662109375
0.01318359375
-0.0018310546875
0.0084228515625
-0.0018310546875
0.0069580078125
-0.0025634765625
0.0047607421875
0.0010986328125
-0.0032958984375
0.0029296875
-0.0098876953125
0.0029296875
0.0003662109375
-0.0010986328125
-0.0032958984375
0.0032958984375
0.0029296875
0.0010986328125
0.008056640625
-0.0032958984375
-0.003662109375
0.0003662109375
0.00146484375
-0.003662109375
-0.01318359375
0.000732421875
-0.003662109375
0.0098876953125
0.0040283203125
0.00732421875
0.0091552734375
-0.00439453125
0.0091552734375
-0.0029296875
-0.0040283203125
0.0010986328125
0.0
-0.0029296875
-0.0234375
0.0164794921875
0.0157470703125
0.018310546875
0.02783203125
-0.02197265625
-0.01611328125
-0.0201416015625
-0.002197265625
0.0003662109375
0.0084228515625
-0.0047607421875
-0.00439453125
0.002197265625
-0.0120849609375
0.0084228515625
-0.006591796875
0.0003662109375
-0.0150146484375
0.000732421875
0.003662109375
-0.0018310546875
0.0091552734375
-0.000732421875
-0.00439453125
0.0047607421875
-0.0018310546875
0.00146484375
-0.0040283203125
0.0029296875
0.0040283203125
-0.0010986328125
0.0098876953125
-0.003662109375
0.003662109375
-0.0003662109375
-0.0010986328125
-0.0025634765625
0.0054931640625
-0.0047607421875
0.0018310546875
0.0018310546875
-0.005126953125
0.0032958984375
0.0010986328125
-0.002197265625
-0.0010986328125
-0.0018310546875
-0.005859375
0.0062255859375
-0.0003662109375
0.0062255859375
0.0084228515625
-0.0040283203125
0.0040283203125
-0.002197265625
0.002197265625
0.0
-0.0040283203125
0.000732421875
-0.024169921875
0.01611328125
0.0260009765625
0.0069580078125
0.0230712890625
-0.0205078125
-0.0201416015625
-0.010986328125
0.0018310546875
-0.000732421875
-0.000732421875
-0.00439453125
-0.0087890625
0.003662109375
-0.0040283203125
0.0032958984375
-0.0040283203125
0.00146484375
-0.0128173828125
0.003662109375
0.005859375
-0.005126953125
0.0150146484375
-0.002197265625
-0.0032958984375
0.006591796875
-0.000732421875
0.0003662109375
0.0032958984375
-0.00146484375
-0.0032958984375
0.003662109375
-0.0010986328125
0.0018310546875
0.00439453125
-0.0032958984375
0.00146484375
0.0003662109375
0.00146484375
0.0018310546875
0.005859375
-0.005126953125
0.0
-0.0025634765625
-0.00146484375
-0.00146484375
-0.002197265625
-0.000732421875
-0.0032958984375
0.008056640625
0.00439453125
0.003662109375
-0.0010986328125
-0.003662109375
-0.009521484375
0.002197265625
0.0025634765625
0.002197265625
0.0069580078125
-0.002197265625
-0.0230712890625
0.017578125
0.0186767578125
0.01611328125
0.022705078125
-0.019775390625
-0.0164794921875
-0.018310546875
0.00439453125
0.0
-0.0091552734375
0.002197265625
-0.0062255859375
0.0018310546875
-0.005126953125
0.0029296875
-0.0054931640625
-0.0018310546875
-0.005126953125
-0.00146484375
0.0029296875
0.0
0.012451171875
0.0
-0.0054931640625
0.00439453125
0.0062255859375
-0.0003662109375
0.008056640625
-0.00146484375
-0.0128173828125
0.0054931640625
-0.0018310546875
0.0018310546875
0.008056640625
-0.00439453125
-0.002197265625
0.0010986328125
-0.0040283203125
0.00439453125
0.0113525390625
-0.0025634765625
0.003662109375
0.0
-0.0087890625
0.0025634765625
-0.003662109375
-0.00146484375
-0.0047607421875
0.0076904296875
0.0069580078125
0.002197265625
0.0113525390625
-0.00732421875
-0.0010986328125
-0.000732421875
-0.0054931640625
0.0018310546875
0.0025634765625
-0.000732421875
-0.0216064453125
0.018310546875
0.0157470703125
0.016845703125
0.0311279296875
-0.0201416015625
-0.01904296875
-0.0164794921875
0.0003662109375
-0.002197265625
-0.0062255859375
0.0018310546875
-0.009521484375
0.0032958984375
0.0098876953125
-0.00439453125
-0.0069580078125
0.0
-0.0205078125
0.00439453125
0.00146484375
-0.0010986328125
0.0194091796875
-0.0029296875
0.009521484375
0.0018310546875
0.005859375
0.0010986328125
0.0032958984375
0.0003662109375
-0.01025390625
0.005126953125
0.002197265625
-0.0003662109375
0.006591796875
-0.00146484375
-0.0062255859375
0.005859375
0.0018310546875
-0.0003662109375
-0.0010986328125
-0.0010986328125
-0.005859375
0.005126953125
-0.00146484375
0.002197265625
0.0
0.000732421875
0.00146484375
0.00732421875
-0.0032958984375
0.00439453125
0.0069580078125
-0.0025634765625
0.0003662109375
0.0029296875
-0.00439453125
0.00146484375
0.01171875
-0.006591796875
-0.02197265625
0.0186767578125
0.0047607421875
0.0223388671875
0.0194091796875
-0.0216064453125
-0.0164794921875
-0.0179443359375
-0.00439453125
0.005126953125
0.003662109375
-0.002197265625
0.0003662109375
-0.0025634765625
-0.006591796875
0.0025634765625
-0.0087890625
0.005859375
-0.0040283203125
0.0018310546875
0.009521484375
-0.0032958984375
0.015380859375
-0.00146484375
0.002197265625
0.0018310546875
-0.00732421875
0.0054931640625
0.0087890625
-0.0040283203125
-0.0047607421875
0.0018310546875
-0.012451171875
0.006591796875
0.005126953125
-0.0010986328125
0.0054931640625
-0.0018310546875
0.0018310546875
-0.0003662109375
-0.0069580078125
0.0040283203125
0.0029296875
-0.0003662109375
0.00439453125
-0.0018310546875
-0.0032958984375
-0.000732421875
0.0032958984375
0.00439453125
0.005126953125
0.0032958984375
0.00732421875
-0.0062255859375
-0.0003662109375
0.0
-0.0150146484375
0.0076904296875
-0.008056640625
0.00146484375
-0.017578125
0.0157470703125
0.0267333984375
0.010986328125
0.0274658203125
-0.02197265625
-0.0223388671875
-0.0142822265625
-0.0047607421875
0.002197265625
-0.002197265625
0.0
0.003662109375
-0.000732421875
-0.0054931640625
0.0029296875
-0.00732421875
0.0003662109375
-0.0003662109375
-0.003662109375
-0.0025634765625
0.00146484375
0.009521484375
0.0025634765625
0.0084228515625
-0.0010986328125
-0.008056640625
0.0032958984375
0.0032958984375
-0.000732421875
0.005859375
-0.002197265625
-0.0025634765625
-0.000732421875
0.0003662109375
-0.0018310546875
-0.00146484375
0.003662109375
0.0040283203125
0.0
0.0040283203125
-0.00146484375
0.0040283203125
-0.0010986328125
-0.0010986328125
-0.002197265625
-0.01171875
0.0047607421875
0.0
0.0054931640625
0.0091552734375
-0.0025634765625
-0.0029296875
-0.0010986328125
0.00146484375
0.002197265625
0.0040283203125
-0.00146484375
-0.00439453125
-0.00146484375
-0.0172119140625
0.0216064453125
0.01025390625
0.01171875
0.0164794921875
-0.0260009765625
-0.0087890625
-0.0164794921875
-0.0076904296875
0.0029296875
-0.0076904296875
0.0029296875
0.0032958984375
-0.0018310546875
-0.005126953125
0.00146484375
-0.0076904296875
0.00146484375
-0.0040283203125
-0.0003662109375
0.008056640625
-0.0018310546875
0.018310546875
-0.003662109375
-0.0062255859375
0.0029296875
-0.0098876953125
0.0018310546875
0.01025390625
-0.0040283203125
-0.005126953125
0.0018310546875
0.00146484375
0.0
0.0076904296875
-0.0010986328125
-0.01171875
0.005126953125
0.000732421875
-0.0003662109375
0.0054931640625
-0.0003662109375
-0.0029296875
-0.000732421875
0.00146484375
-0.006591796875
0.0087890625
-0.0018310546875
0.005126953125
0.0025634765625
-0.002197265625
0.0003662109375
-0.00146484375
-0.000732421875
0.00146484375
-0.0003662109375
0.0010986328125
-0.0025634765625
0.002197265625
-0.0018310546875
-0.0150146484375
0.013916015625
0.0054931640625
0.000732421875
0.0146484375
-0.01904296875
-0.013916015625
-0.0018310546875
-0.005126953125
0.0032958984375
0.000732421875
0.0
0.0003662109375
-0.000732421875
-0.0032958984375
0.0
-0.012451171875
0.0018310546875
-0.0062255859375
-0.0032958984375
0.0179443359375
-0.006591796875
0.012451171875
-0.000732421875
-0.002197265625
0.0025634765625
0.000732421875
-0.0018310546875
-0.005859375
0.0010986328125
0.00146484375
0.0
0.003662109375
-0.0040283203125
-0.002197265625
0.0010986328125
0.0018310546875
0.00146484375
0.0054931640625
-0.002197265625
-0.0025634765625
0.0003662109375
-0.005126953125
-0.0032958984375
0.0029296875
-0.0040283203125
0.00146484375
0.0069580078125
-0.00146484375
0.0032958984375
0.006591796875
-0.0084228515625
0.0076904296875
-0.0076904296875
-0.0113525390625
0.0032958984375
-0.0025634765625
0.000732421875
-0.0146484375
0.0201416015625
0.0087890625
0.0194091796875
0.02490234375
-0.025634765625
-0.0087890625
-0.0216064453125
0.0040283203125
-0.0029296875
-0.0029296875
-0.0010986328125
-0.0128173828125
0.0029296875
-0.00146484375
0.0029296875
-0.01171875
0.003662109375
-0.0142822265625
0.0029296875
0.0098876953125
-0.005126953125
0.010986328125
0.0
0.00146484375
0.0029296875
0.0062255859375
-0.0040283203125
0.0113525390625
-0.00439453125
-0.0025634765625
0.0003662109375
-0.0106201171875
0.0062255859375
0.0098876953125
-0.002197265625
0.0010986328125
-0.0010986328125
-0.005859375
0.00439453125
0.00439453125
0.0
-0.0018310546875
-0.0029296875
-0.0003662109375
-0.0029296875
0.0
0.00439453125
-0.0032958984375
0.006591796875
0.0
-0.0010986328125
0.0025634765625
-0.002197265625
-0.0003662109375
0.0
0.01025390625
-0.0032958984375
-0.0142822265625
0.0150146484375
0.008056640625
0.0142822265625
0.018310546875
-0.0179443359375
-0.0157470703125
-0.0157470703125
-0.0040283203125
0.0
-0.008056640625
0.002197265625
-0.0029296875
0.0010986328125
0.0032958984375
-0.0029296875
-0.005859375
-0.000732421875
-0.01318359375
0.0029296875
0.006591796875
-0.0029296875
0.0164794921875
-0.003662109375
-0.005126953125
0.0054931640625
-0.0040283203125
0.0029296875
0.010986328125
-0.0032958984375
0.01025390625
-0.00146484375
-0.00146484375
0.0018310546875
-0.003662109375
0.0032958984375
-0.003662109375
-0.000732421875
-0.0040283203125
-0.0025634765625
0.0018310546875
0.0029296875
0.0032958984375
-0.0047607421875
-0.000732421875
-0.0010986328125
-0.0029296875
0.00732421875
0.005859375
-0.0029296875
0.002197265625
-0.0025634765625
-0.0054931640625
0.0018310546875
0.00146484375
0.0003662109375
0.0
-0.00146484375
-0.01904296875
0.019775390625
0.006591796875
0.0087890625
0.0146484375
-0.0223388671875
-0.0032958984375
-0.0106201171875
0.0018310546875
0.0003662109375
-0.0032958984375
0.0025634765625
-0.0003662109375
0.0003662109375
-0.0076904296875
-0.0018310546875
-0.0098876953125
-0.0003662109375
-0.01025390625
-0.0018310546875
-0.002197265625
0.0032958984375
0.01904296875
0.0003662109375
0.0135498046875
-0.0040283203125
0.0029296875
-0.002197265625
-0.0018310546875
0.0010986328125
-0.0091552734375
0.005126953125
0.0003662109375
0.002197265625
0.0113525390625
-0.0032958984375
0.0040283203125
-0.0032958984375
-0.00146484375
0.0003662109375
-0.005859375
0.002197265625
-0.00439453125
-0.0018310546875
0.0003662109375
0.0010986328125
-0.0040283203125
0.01318359375
0.003662109375
0.0003662109375
0.00146484375
-0.0062255859375
-0.0003662109375
0.002197265625
0.0047607421875
-0.00146484375
-0.005859375
0.0025634765625
0.005126953125
0.0084228515625
0.0054931640625
0.000732421875
-0.0098876953125
-0.005126953125
-0.0032958984375
-0.0062255859375
0.0025634765625
-0.00439453125
-0.0010986328125
0.000732421875
-0.0076904296875
0.0032958984375
-0.0087890625
0.0062255859375
-0.0062255859375
0.0025634765625
0.003662109375
-0.008056640625
0.00732421875
-0.0032958984375
0.006591796875
0.003662109375
0.000732421875
0.0
0.0032958984375
0.0010986328125
0.0047607421875
0.0029296875
-0.005859375
0.00146484375
0.0010986328125
0.0
0.0029296875
0.0
-0.000732421875
0.0003662109375
0.0040283203125
0.000732421875
-0.003662109375
0.00146484375
-0.0054931640625
-0.0018310546875
0.0025634765625
0.0025634765625
0.0003662109375
0.00732421875
0.0
0.0003662109375
-0.0003662109375
-0.0003662109375
-0.0047607421875
0.002197265625
-0.0018310546875
-0.0010986328125
0.0018310546875
-0.0010986328125
-0.0087890625
0.0135498046875
0.0032958984375
0.0047607421875
0.01318359375
-0.017578125
-0.0054931640625
-0.006591796875
-0.00732421875
0.002197265625
0.0047607421875
-0.0010986328125
-0.005126953125
0.00146484375
-0.0069580078125
0.0
-0.0054931640625
-0.0010986328125
0.0003662109375
-0.0047607421875
0.01171875
-0.00146484375
0.00439453125
0.0062255859375
0.005126953125
0.0
0.003662109375
-0.003662109375
0.000732421875
-0.0010986328125
0.0003662109375
-0.0003662109375
-0.0032958984375
0.002197265625
0.0062255859375
-0.002197265625
-0.0032958984375
0.002197265625
-0.0098876953125
0.0047607421875
0.0062255859375
-0.0054931640625
0.0
-0.0032958984375
0.0029296875
0.002197265625
0.0029296875
0.003662109375
0.003662109375
-0.0040283203125
-0.005126953125
-0.00146484375
-0.0087890625
0.0047607421875
0.0040283203125
-0.0018310546875
-0.00146484375
0.0032958984375
-0.0040283203125
0.018310546875
0.01904296875
-0.0054931640625
0.002197265625
-0.0194091796875
-0.017578125
-0.002197265625
0.002197265625
-0.0025634765625
0.003662109375
-0.0025634765625
-0.00732421875
0.0025634765625
-0.010986328125
0.00146484375
-0.0142822265625
0.000732421875
-0.0029296875
-0.0018310546875
0.01611328125
-0.0010986328125
0.006591796875
0.0018310546875
0.003662109375
-0.0029296875
-0.003662109375
0.0010986328125
-0.00146484375
0.0
0.0047607421875
-0.0032958984375
0.0032958984375
-0.00439453125
0.0
-0.0018310546875
-0.002197265625
0.0032958984375
0.0029296875
-0.0018310546875
0.003662109375
-0.0032958984375
-0.0076904296875
0.0025634765625
-0.009521484375
0.006591796875
0.00732421875
0.0
0.005126953125
-0.003662109375
-0.00146484375
-0.000732421875
0.012451171875
-0.003662109375
-0.000732421875
0.0003662109375
-0.013916015625
0.005859375
-0.013916015625
0.0157470703125
0.0172119140625
0.005126953125
0.02197265625
-0.01904296875
-0.01171875
-0.010986328125
-0.01171875
0.0029296875
-0.00732421875
0.003662109375
0.0087890625
-0.0032958984375
-0.0018310546875
-0.0010986328125
-0.01025390625
0.002197265625
-0.005859375
-0.0018310546875
0.0010986328125
0.0
0.0120849609375
-0.00146484375
0.005859375
-0.0029296875
0.00146484375
-0.0003662109375
0.0010986328125
0.00146484375
0.00146484375
-0.000732421875
0.000732421875
-0.0040283203125
0.0025634765625
-0.0091552734375
-0.005859375
-0.0003662109375
-0.005859375
0.015380859375
0.0069580078125
0.0040283203125
0.0087890625
-0.0054931640625
0.005126953125
-0.0018310546875
-0.0018310546875
0.0010986328125
-0.0069580078125
0.002197265625
-0.0245361328125
0.013916015625
0.017578125
0.018310546875
0.030029296875
-0.0216064453125
-0.016845703125
-0.022705078125
-0.0062255859375
0.0047607421875
-0.0029296875
-0.000732421875
0.0040283203125
-0.005126953125
-0.0047607421875
0.0029296875
-0.010986328125
0.0
-0.0010986328125
-0.00439453125
-0.0029296875
0.0003662109375
0.01611328125
-0.00439453125
0.0120849609375
-0.0010986328125
-0.0091552734375
0.005859375
-0.0025634765625
0.00146484375
0.0076904296875
-0.0025634765625
-0.0010986328125
0.002197265625
0.0003662109375
0.0025634765625
0.0069580078125
-0.0040283203125
-0.00146484375
-0.002197265625
-0.010986328125
0.0025634765625
0.0010986328125
-0.0076904296875
0.0040283203125
-0.0040283203125
-0.00439453125
0.0113525390625
0.0054931640625
0.0054931640625
0.0029296875
-0.0029296875
-0.0062255859375
-0.00146484375
0.005859375
-0.0010986328125
0.00439453125
-0.0010986328125
-0.0208740234375
0.01904296875
0.0238037109375
0.0091552734375
0.0098876953125
-0.0208740234375
-0.0260009765625
-0.01171875
0.0062255859375
-0.0025634765625
0.0047607421875
-0.0029296875
-0.000732421875
0.00146484375
-0.0084228515625
0.0029296875
-0.0084228515625
0.0025634765625
-0.0084228515625
0.0029296875
0.003662109375
-0.0047607421875
0.015380859375
-0.003662109375
-0.000732421875
0.0047607421875
-0.008056640625
0.0003662109375
0.012451171875
-0.005126953125
0.00732421875
0.0010986328125
-0.0018310546875
0.0
0.0
-0.00146484375
-0.0069580078125
-0.0025634765625
0.0029296875
-0.0040283203125
0.0029296875
0.0106201171875
-0.003662109375
0.0098876953125
-0.0029296875
-0.0029296875
-0.0003662109375
0.0
0.0047607421875
0.0003662109375
0.0076904296875
-0.00732421875
-0.0252685546875
0.0205078125
0.01171875
0.021240234375
0.02197265625
-0.02197265625
-0.0223388671875
-0.017578125
-0.00146484375
0.0003662109375
-0.0029296875
0.0003662109375
-0.0054931640625
0.0040283203125
0.0069580078125
-0.00146484375
-0.0032958984375
-0.0047607421875
-0.0194091796875
0.0018310546875
-0.006591796875
0.002197265625
0.0208740234375
-0.005859375
0.0164794921875
-0.00439453125
-0.0098876953125
0.0047607421875
-0.0040283203125
0.00146484375
0.0025634765625
0.0010986328125
0.00439453125
0.000732421875
0.0029296875
-0.003662109375
0.0010986328125
-0.0010986328125
0.0010986328125
-0.003662109375
-0.000732421875
-0.0047607421875
-0.0106201171875
0.013916015625
0.0003662109375
0.0062255859375
0.00732421875
-0.003662109375
-0.005126953125
0.0040283203125
0.0010986328125
0.00146484375
0.0018310546875
0.000732421875
-0.0106201171875
0.008056640625
0.01611328125
0.0135498046875
0.0194091796875
-0.015380859375
-0.022705078125
-0.0179443359375
-0.01025390625
0.002197265625
0.0010986328125
-0.0003662109375
-0.00146484375
-0.00146484375
-0.0018310546875
0.000732421875
-0.010986328125
0.0029296875
-0.0113525390625
0.0003662109375
0.0076904296875
-0.0054931640625
0.015380859375
-0.0025634765625
-0.0029296875
0.0062255859375
0.005126953125
-0.0003662109375
-0.00146484375
-0.000732421875
-0.0018310546875
0.0003662109375
0.005126953125
-0.000732421875
-0.00439453125
0.0010986328125
0.0
-0.003662109375
-0.0018310546875
-0.0029296875
0.00146484375
0.00439453125
-0.002197265625
0.008056640625
0.0025634765625
0.0032958984375
0.0018310546875
-0.000732421875
0.0047607421875
-0.005126953125
0.0076904296875
0.0
-0.0062255859375
0.000732421875
-0.0223388671875
0.0150146484375
0.0179443359375
0.0128173828125
0.0223388671875
-0.0186767578125
-0.0128173828125
-0.015380859375
-0.003662109375
-0.0010986328125
-0.0087890625
0.0032958984375
0.0003662109375
-0.000732421875
-0.0003662109375
-0.00146484375
-0.0076904296875
0.00146484375
-0.005859375
0.0
0.002197265625
0.0018310546875
0.0076904296875
0.0
0.00439453125
-0.00146484375
0.0003662109375
0.0040283203125
0.00146484375
-0.0003662109375
-0.00146484375
0.00146484375
-0.0010986328125
0.0040283203125
-0.0003662109375
-0.003662109375
0.0040283203125
-0.0113525390625
-0.000732421875
-0.000732421875
-0.0113525390625
0.017578125
0.0062255859375
0.0029296875
0.0113525390625
-0.0062255859375
0.0010986328125
0.0
-0.0025634765625
0.000732421875
-0.0054931640625
0.0
-0.0311279296875
0.0205078125
0.018310546875
0.0194091796875
0.03076171875
-0.0238037109375
-0.0172119140625
-0.0223388671875
0.0029296875
-0.0047607421875
-0.002197265625
0.0
-0.0010986328125
0.002197265625
0.0062255859375
-0.005126953125
-0.0186767578125
0.0025634765625
-0.01611328125
0.00439453125
0.013916015625
-0.0040283203125
0.0029296875
0.0040283203125
-0.000732421875
0.00146484375
0.0062255859375
-0.0032958984375
-0.0091552734375
0.005126953125
0.0084228515625
-0.0010986328125
0.0076904296875
0.0
-0.005859375
0.0010986328125
0.0029296875
-0.002197265625
0.0
0.0
0.0032958984375
-0.00439453125
0.0
-0.0029296875
-0.003662109375
0.005126953125
-0.003662109375
0.00439453125
0.0054931640625
0.00146484375
0.0047607421875
0.002197265625
-0.0029296875
0.0
0.0062255859375
-0.0047607421875
0.00146484375
-0.00146484375
-0.01318359375
0.0179443359375
0.0054931640625
-0.00146484375
0.009521484375
-0.016845703125
-0.0113525390625
0.000732421875
-0.0076904296875
0.0029296875
0.00439453125
-0.0025634765625
-0.0018310546875
0.0010986328125
-0.0157470703125
0.0069580078125
-0.0113525390625
0.0
0.0029296875
-0.00439453125
0.01904296875
-0.0062255859375
0.0087890625
0.002197265625
-0.0025634765625
0.005126953125
-0.000732421875
0.0003662109375
0.0054931640625
-0.00439453125
0.0054931640625
-0.0029296875
-0.0025634765625
0.0018310546875
-0.0032958984375
0.000732421875
-0.0040283203125
0.0025634765625
-0.0029296875
-0.00146484375
0.0047607421875
-0.009521484375
-0.0025634765625
0.003662109375
0.00439453125
0.005859375
0.0091552734375
-0.0003662109375
0.0
0.000732421875
0.002197265625
0.0
-0.0120849609375
0.0062255859375
0.0003662109375
-0.0025634765625
-0.0142822265625
0.0201416015625
0.0032958984375
0.0201416015625
0.0208740234375
-0.027099609375
-0.0157470703125
-0.017578125
0.00146484375
-0.0010986328125
0.0
-0.00146484375
-0.0120849609375
0.005126953125
0.0
-0.00146484375
-0.00439453125
-0.005126953125
-0.0069580078125
-0.000732421875
0.003662109375
0.005126953125
0.01318359375
-0.0010986328125
0.005126953125
-0.0025634765625
-0.002197265625
-0.0010986328125
0.002197265625
-0.000732421875
-0.0040283203125
0.0029296875
0.0069580078125
-0.0029296875
0.002197265625
-0.0054931640625
-0.015380859375
0.003662109375
-0.0069580078125
0.0142822265625
0.012451171875
0.002197265625
0.0150146484375
-0.0087890625
-0.0003662109375
-0.0025634765625
-0.0084228515625
-0.0003662109375
0.0
-0.0003662109375
-0.009521484375
0.0113525390625
0.01611328125
0.0128173828125
0.017578125
-0.01318359375
-0.021240234375
-0.0113525390625
-0.003662109375
-0.00146484375
0.00146484375
-0.00439453125
-0.005859375
0.003662109375
0.0
0.000732421875
-0.0062255859375
0.0003662109375
-0.0106201171875
-0.000732421875
0.0062255859375
-0.005859375
0.01025390625
-0.000732421875
0.0018310546875
0.0029296875
0.003662109375
0.000732421875
0.0
-0.0018310546875
-0.0040283203125
0.0
-0.005126953125
0.0047607421875
0.0010986328125
-0.0003662109375
0.0087890625
-0.0076904296875
-0.002197265625
-0.0025634765625
-0.00146484375
0.0047607421875
-0.000732421875
0.0040283203125
0.00146484375
-0.0032958984375
0.0003662109375
-0.0069580078125
-0.005859375
-0.000732421875
-0.000732421875
0.0091552734375
0.0018310546875
0.00732421875
-0.000732421875
-0.0003662109375
0.00146484375
-0.0025634765625
0.0040283203125
-0.0010986328125
0.0084228515625
-0.0069580078125
-0.0223388671875
0.0201416015625
0.005859375
0.02197265625
0.0289306640625
-0.02783203125
-0.009521484375
-0.0216064453125
-0.00439453125
-0.0010986328125
-0.005126953125
0.000732421875
-0.0091552734375
0.0054931640625
-0.0113525390625
0.0025634765625
0.0
-0.00439453125
-0.005859375
-0.0018310546875
0.0029296875
0.0
0.018310546875
-0.0032958984375
0.0062255859375
0.0
-0.00146484375
0.0025634765625
-0.00439453125
0.002197265625
0.0018310546875
0.0003662109375
0.0025634765625
-0.0047607421875
0.00146484375
-0.008056640625
-0.006591796875
0.0040283203125
-0.003662109375
0.012451171875
0.0098876953125
0.0003662109375
0.0010986328125
-0.002197265625
-0.0010986328125
0.0
0.0040283203125
0.0
0.0040283203125
-0.0029296875
-0.02783203125
0.0234375
0.0069580078125
0.025634765625
0.0238037109375
-0.024169921875
-0.0146484375
-0.0208740234375
0.0003662109375
-0.0029296875
-0.0076904296875
-0.000732421875
-0.003662109375
0.0010986328125
0.0087890625
-0.0029296875
-0.005126953125
0.000732421875
-0.016845703125
0.003662109375
0.0
0.0018310546875
0.0150146484375
-0.00146484375
0.0029296875
-0.000732421875
-0.0047607421875
0.0025634765625
0.0054931640625
-0.00146484375
-0.002197265625
-0.0040283203125
-0.0003662109375
-0.0010986328125
0.0010986328125
0.0003662109375
-0.002197265625
0.0010986328125
0.0076904296875
0.000732421875
-0.0003662109375
0.000732421875
-0.0084228515625
-0.0040283203125
-0.0025634765625
-0.002197265625
0.0047607421875
0.005859375
0.003662109375
0.0
0.0
-0.00146484375
-0.0032958984375
0.0029296875
-0.0003662109375
-0.00146484375
0.01171875
-0.003662109375
-0.00439453125
0.008056640625
0.0084228515625
0.010986328125
0.01025390625
-0.01318359375
-0.0146484375
-0.0142822265625
-0.0040283203125
0.0029296875
-0.003662109375
0.002197265625
-0.0003662109375
-0.002197265625
0.0
-0.0018310546875
-0.00439453125
-0.002197265625
-0.01025390625
-0.0003662109375
0.0003662109375
0.0003662109375
0.010986328125
-0.0010986328125
0.0069580078125
-0.000732421875
-0.00439453125
0.0032958984375
-0.0047607421875
0.017578125
0.0032958984375
0.01318359375
