0.1314697265625
-0.128173828125
0.166656494140625
-0.1285400390625
0.057891845703125
0.003662109375
0.037353515625
0.046875
0.0560302734375
0.0150146484375
0.0860595703125
-0.0205078125
0.0498046875
0.0084228515625
0.005126953125
-0.000732421875
-0.006591796875
0.002197265625
-0.0216064453125
0.0069580078125
-0.0670166015625
0.0018310546875
-0.114990234375
0.000732421875
-0.096343994140625
0.0087890625
-0.038116455078125
0.0047607421875
-0.005126953125
-0.0018310546875
-0.0029296875
0.0087890625
0.0069580078125
0.0018310546875
0.027496337890625
-0.0113525390625
0.034820556640625
-0.0150146484375
0.0230712890625
-0.019775390625
-0.029693603515625
-0.0245361328125
-0.128570556640625
-0.0172119140625
-0.153076171875
0.0479736328125
0.010986328125
0.1036376953125
-0.0509033203125
0.78082275390625
-0.1417236328125
0.769134521484375
-0.298126220703125
0.041778564453125
-0.43511962890625
-0.0003662109375
0.2252197265625
-0.41827392578125
0.327789306640625
-0.612396240234375
-0.392242431640625
-0.1549072265625
-0.420806884765625
0.128570556640625
-0.212799072265625
0.1875
-0.130401611328125
0.0552978515625
0.0
-0.14794921875
0.0
-0.017578125
0.0
0.1417236328125
0.217926025390625
0.0673828125
0.42266845703125
0.0714111328125
0.359649658203125
0.113555908203125
0.383087158203125
0.116119384765625
0.653411865234375
0.134033203125
0.57647705078125
0.0596923828125
-0.0384521484375
0.0201416015625
-0.362579345703125
-0.015380859375
-0.076568603515625
-0.1402587890625
-0.155303955078125
-0.225616455078125
-0.332183837890625
-0.239532470703125
-0.0640869140625
-0.1431884765625
0.111358642578125
-0.0487060546875
0.169586181640625
-0.029296875
0.087890625
-0.0362548828125
0.0509033203125
-0.049102783203125
0.11865234375
-0.042510986328125
0.204742431640625
-0.043212890625
0.217926025390625
-0.053466796875
0.1519775390625
-0.0465087890625
0.0875244140625
-0.0465087890625
-0.01171875
-0.0498046875
-0.0399169921875
-0.043212890625
-0.01904296875
0.00732421875
-0.03369140625
-0.029296875
0.00146484375
-0.0765380859375
-0.0172119140625
-0.043212890625
-0.069580078125
-0.0311279296875
-0.0684814453125
-0.0252685546875
-0.02783203125
-0.0260009765625
0.0032958984375
-0.027862548828125
-0.0029296875
-0.019439697265625
0.01171875
0.001861572265625
-0.002197265625
0.002197265625
-0.104034423828125
-0.015045166015625
-0.113555908203125
-0.000732421875
-0.0245361328125
0.000732421875
-0.0296630859375
-0.0091552734375
-0.0875244140625
-0.0025634765625
-0.1640625
-0.005859375
-0.15234375
-0.0128173828125
-0.056793212890625
-0.002197265625
-0.054595947265625
0.059722900390625
-0.114990234375
0.0084228515625
-0.088623046875
-0.049835205078125
0.0084228515625
-0.00439453125
0.0234375
0.000732421875
-0.0289306640625
-0.003662109375
-0.0406494140625
-0.0076904296875
-0.035888671875
-0.0135498046875
-0.0413818359375
-0.009521484375
-0.000732421875
0.0113525390625
0.0377197265625
0.0135498046875
0.0120849609375
0.003662109375
-0.021240234375
0.010986328125
-0.0252685546875
0.01171875
-0.0340576171875
0.003662109375
-0.0296630859375
0.0025634765625
-0.0186767578125
0.0025634765625
-0.0186767578125
-0.0040283203125
-0.008056640625
0.000732421875
-0.0362548828125
0.071807861328125
-0.052764892578125
0.0032958984375
-0.0003662109375
-0.061920166015625
0.033721923828125
0.007720947265625
0.0150146484375
0.006256103515625
0.0084228515625
-0.002197265625
0.019775390625
-0.0029296875
0.01904296875
-0.010284423828125
0.0029296875
-0.012481689453125
-0.0230712890625
0.0054931640625
-0.0098876953125
0.013214111328125
0.00439453125
-0.0003662109375
-0.0029296875
0.0062255859375
0.0010986328125
0.010650634765625
-0.0018310546875
-0.0025634765625
-0.0018310546875
-0.0010986328125
0.012451171875
-0.0003662109375
0.0054931640625
-0.005859375
-0.0062255859375
-0.0062255859375
-0.0234375
0.0626220703125
-0.0186767578125
0.0029296875
0.0201416015625
-0.0596923828125
0.03076171875
0.0025634765625
0.0084228515625
-0.0010986328125
-0.0040283203125
-0.0032958984375
0.0172119140625
-0.007720947265625
0.024169921875
-0.014678955078125
-0.005126953125
-0.01611328125
-0.01611328125
0.0010986328125
0.0098876953125
0.0128173828125
0.018310546875
-0.003662109375
0.0157470703125
-0.0047607421875
0.0186767578125
0.00146484375
0.01171875
-0.0029296875
0.0029296875
-0.000732421875
0.0047607421875
0.000732421875
0.0029296875
-0.0025634765625
-0.0054931640625
-0.0084228515625
-0.02197265625
0.046905517578125
-0.0216064453125
0.005859375
-0.0018310546875
-0.041412353515625
0.0164794921875
0.002197265625
0.01171875
-0.003662109375
-0.0018310546875
-0.0040283203125
0.0091552734375
-0.00439453125
0.003662109375
-0.006591796875
-0.0142822265625
-0.0098876953125
-0.018310546875
0.006591796875
-0.005859375
0.018310546875
0.0025634765625
0.0069580078125
0.0113525390625
0.003662109375
0.01171875
0.012115478515625
-0.0018310546875
0.0062255859375
-0.00439453125
-0.001495361328125
-0.0010986328125
0.004425048828125
-0.0032958984375
0.002960205078125
-0.003662109375
-0.008819580078125
-0.016845703125
0.0150146484375
-0.0186767578125
0.026763916015625
-0.0142822265625
-0.00146484375
0.0157470703125
-0.009521484375
0.029296875
-0.005859375
0.00146484375
-0.00439453125
0.0084228515625
-0.00146484375
0.01025390625
-0.005126953125
-0.0032958984375
-0.013214111328125
-0.008056640625
-0.002960205078125
-0.005126953125
0.016510009765625
-0.01025390625
0.012847900390625
-0.0029296875
0.000732421875
0.0054931640625
0.0142822265625
0.0003662109375
0.0091552734375
-0.0018310546875
-0.000732421875
-0.0032958984375
0.0040283203125
0.0087890625
0.0010986328125
0.01171875
-0.0091552734375
-0.008056640625
-0.0010986328125
-0.019775390625
0.046142578125
-0.031494140625
0.0128173828125
0.010986328125
-0.03076171875
0.0391845703125
-0.009521484375
0.0003662109375
-0.003662109375
-0.0025634765625
-0.0032958984375
0.0054931640625
-0.0054931640625
-0.0062255859375
-0.01025390625
-0.0205078125
-0.0047607421875
-0.01025390625
0.0135498046875
-0.00146484375
0.015380859375
-0.0069580078125
0.0025634765625
-0.0146484375
0.0084228515625
-0.028564453125
0.0091552734375
-0.0289306640625
-0.00146484375
0.0201416015625
0.0032958984375
0.0355224609375
0.0032958984375
0.0106201171875
-0.0029296875
0.0164794921875
0.0054931640625
-0.01025390625
0.071044921875
-0.019775390625
0.002197265625
0.027099609375
-0.059326171875
0.0325927734375
0.0142822265625
-0.00146484375
0.01611328125
-0.0062255859375
-0.0003662109375
0.0084228515625
-0.009521484375
0.0069580078125
-0.01171875
-0.0113525390625
-0.008056640625
-0.0157470703125
0.0047607421875
-0.01025390625
0.0146484375
-0.01025390625
0.00146484375
-0.00439453125
-0.005126953125
-0.0003662109375
0.0062255859375
-0.0040283203125
0.0
-0.0029296875
-0.002197265625
0.0025634765625
-0.0010986328125
-0.000732421875
-0.0047607421875
-0.003662109375
-0.006591796875
-0.01171875
0.0194091796875
-0.0164794921875
0.0135498046875
-0.0135498046875
-0.017578125
0.018310546875
-0.010986328125
0.0296630859375
-0.01025390625
0.0069580078125
-0.01025390625
0.0150146484375
-0.006591796875
0.01318359375
-0.00732421875
-0.0040283203125
-0.013916015625
-0.0128173828125
-0.0029296875
-0.0084228515625
0.0120849609375
-0.0150146484375
0.0062255859375
-0.005859375
-0.0018310546875
0.006591796875
0.0098876953125
-0.0047607421875
0.0076904296875
-0.0018310546875
-0.002197265625
0.00439453125
0.003662109375
0.0003662109375
0.0018310546875
0.0029296875
-0.0091552734375
0.0018310546875
-0.0018310546875
-0.0157470703125
0.0509033203125
-0.0260009765625
0.009521484375
0.0216064453125
-0.0384521484375
0.0377197265625
-0.00439453125
-0.0025634765625
0.0
0.0076904296875
-0.003662109375
0.0230712890625
-0.0091552734375
0.0054931640625
-0.0128173828125
-0.0084228515625
-0.00732421875
-0.006591796875
0.0091552734375
-0.0120849609375
0.0142822265625
-0.0098876953125
-0.00146484375
0.005859375
0.000732421875
-0.000732421875
0.008056640625
-0.008056640625
0.00146484375
0.000732421875
0.005126953125
-0.000732421875
0.0040283203125
-0.00439453125
0.000732421875
0.000732421875
-0.0040283203125
-0.019775390625
0.050537109375
-0.019775390625
0.005859375
0.008056640625
-0.0450439453125
0.024169921875
0.0018310546875
0.01611328125
-0.0025634765625
0.003662109375
-0.0032958984375
0.0150146484375
-0.0062255859375
0.0091552734375
-0.01025390625
-0.0040283203125
-0.0120849609375
-0.0113525390625
0.0032958984375
-0.0106201171875
0.016845703125
-0.01171875
0.0091552734375
-0.005126953125
0.0
0.002197265625
0.0087890625
-0.0047607421875
0.0062255859375
-0.0018310546875
-0.0029296875
0.002197265625
0.0032958984375
0.0003662109375
0.0003662109375
0.0025634765625
-0.012451171875
-0.0032958984375
-0.0025634765625
-0.0142822265625
0.046142578125
-0.0230712890625
0.009521484375
0.01904296875
-0.034423828125
0.035888671875
-0.000732421875
-0.0025634765625
0.00439453125
0.005126953125
0.00146484375
0.01611328125
-0.0029296875
0.0029296875
-0.01171875
-0.0076904296875
-0.008056640625
-0.0091552734375
0.0091552734375
-0.0113525390625
0.0120849609375
-0.0069580078125
-0.0054931640625
0.002197265625
-0.0018310546875
0.0
0.006591796875
-0.0040283203125
0.0003662109375
-0.0010986328125
0.00146484375
0.0018310546875
0.0003662109375
-0.0010986328125
-0.00146484375
-0.002197265625
-0.0040283203125
-0.0146484375
0.035888671875
-0.0146484375
0.0054931640625
-0.0003662109375
-0.03515625
0.0186767578125
-0.002197265625
0.0186767578125
-0.003662109375
0.002197265625
-0.005859375
0.012451171875
-0.005126953125
0.01318359375
-0.0087890625
0.000732421875
-0.0164794921875
-0.0113525390625
-0.0003662109375
-0.0087890625
0.0157470703125
-0.009521484375
0.005859375
-0.005859375
-0.0069580078125
0.0018310546875
0.005126953125
-0.003662109375
0.0098876953125
-0.0029296875
-0.002197265625
-0.0025634765625
0.0032958984375
-0.003662109375
0.00146484375
-0.0010986328125
-0.0062255859375
-0.000732421875
-0.0003662109375
-0.0230712890625
0.0633544921875
-0.0223388671875
-0.0047607421875
0.0230712890625
-0.0640869140625
0.0289306640625
0.006591796875
0.0018310546875
0.0047607421875
0.0062255859375
-0.0040283203125
0.0238037109375
-0.006591796875
0.0113525390625
-0.0084228515625
-0.0091552734375
-0.0091552734375
-0.0128173828125
0.0069580078125
-0.0091552734375
0.01611328125
-0.0106201171875
0.00439453125
0.0
-0.0069580078125
0.005859375
0.0010986328125
-0.0054931640625
0.010986328125
-0.003662109375
0.0047607421875
0.0029296875
0.0018310546875
0.0018310546875
0.002197265625
0.0
-0.0029296875
-0.00146484375
-0.002197265625
-0.0234375
0.0574951171875
-0.021240234375
-0.0010986328125
0.0098876953125
-0.0516357421875
0.02490234375
0.0047607421875
0.0098876953125
-0.000732421875
0.0018310546875
-0.00439453125
0.0157470703125
-0.005126953125
0.01171875
-0.01025390625
-0.000732421875
-0.01171875
-0.005859375
0.0029296875
-0.00732421875
0.015380859375
-0.009521484375
0.0087890625
0.0029296875
-0.0091552734375
0.00439453125
0.0029296875
-0.0069580078125
0.01025390625
-0.0003662109375
0.0032958984375
0.0029296875
0.00732421875
-0.0029296875
0.006591796875
-0.0003662109375
-0.0003662109375
0.0003662109375
-0.002197265625
-0.0252685546875
0.0626220703125
-0.021240234375
-0.0047607421875
0.0157470703125
-0.0626220703125
0.0263671875
0.0054931640625
0.009521484375
0.00146484375
0.0025634765625
-0.0040283203125
0.015380859375
-0.005126953125
0.0062255859375
-0.0098876953125
-0.0084228515625
-0.012451171875
-0.008056640625
0.003662109375
-0.005859375
0.0146484375
-0.0087890625
0.005126953125
-0.0032958984375
-0.005126953125
0.0025634765625
0.006591796875
-0.0010986328125
0.0087890625
-0.000732421875
-0.00146484375
0.0010986328125
0.00146484375
0.00146484375
-0.000732421875
0.002197265625
-0.005859375
0.0018310546875
-0.003662109375
-0.0245361328125
0.0743408203125
-0.0267333984375
0.022705078125
0.0186767578125
-0.0296630859375
0.027099609375
0.0435791015625
0.00146484375
0.041015625
0.0018310546875
0.0421142578125
0.0120849609375
0.0487060546875
0.0069580078125
0.0501708984375
-0.0025634765625
0.0457763671875
-0.0084228515625
0.054962158203125
-0.010986328125
0.068145751953125
-0.013916015625
0.0596923828125
-0.00439453125
0.046142578125
-0.0003662109375
0.0523681640625
-0.006591796875
0.049072265625
-0.0040283203125
0.035888671875
-0.000732421875
0.032958984375
-0.00146484375
0.01025390625
0.000732421875
-0.010986328125
-0.00146484375
0.0054931640625
-0.0252685546875
0.084228515625
-0.0263671875
0.0216064453125
0.0252685546875
-0.0413818359375
0.0380859375
0.017578125
0.0025634765625
0.00732421875
0.000732421875
-0.0091552734375
0.0164794921875
-0.0157470703125
0.0087890625
-0.0150146484375
-0.0047607421875
-0.0120849609375
-0.00732421875
0.0047607421875
-0.0091552734375
0.017578125
-0.01318359375
0.008056640625
-0.0029296875
0.0047607421875
0.005859375
0.015380859375
-0.003662109375
0.0106201171875
0.002197265625
0.0010986328125
0.0098876953125
-0.0010986328125
0.0029296875
-0.0146484375
0.0087890625
-0.03662109375
0.0029296875
-0.035888671875
-0.0157470703125
0.0201416015625
-0.017578125
-0.0150146484375
0.027099609375
-0.054931640625
0.0443115234375
-0.00146484375
0.005859375
0.0062255859375
0.01171875
0.0069580078125
0.0234375
0.0113525390625
0.015380859375
0.0054931640625
0.0040283203125
0.0098876953125
0.0018310546875
0.024169921875
0.005859375
0.02783203125
-0.002197265625
0.0029296875
0.015380859375
-0.009521484375
0.0098876953125
0.006591796875
0.0029296875
0.00439453125
0.0106201171875
-0.0010986328125
0.01171875
-0.002197265625
0.0146484375
-0.005126953125
0.009521484375
-0.0172119140625
0.005126953125
-0.0087890625
-0.00732421875
0.030029296875
-0.0084228515625
0.0032958984375
0.0234375
-0.0267333984375
0.0450439453125
-0.006591796875
0.0106201171875
0.005126953125
0.0135498046875
0.012451171875
0.029296875
0.01025390625
0.0054931640625
-0.0040283203125
0.002197265625
-0.00732421875
-0.00439453125
0.0
-0.0010986328125
-0.0010986328125
-0.003662109375
-0.0106201171875
0.0062255859375
-0.01904296875
0.009521484375
-0.0260009765625
-0.000732421875
-0.0428466796875
0.01025390625
-0.047607421875
-0.0054931640625
-0.0428466796875
0.0091552734375
-0.0391845703125
0.0076904296875
-0.0391845703125
-0.0040283203125
-0.02197265625
-0.005859375
-0.0087890625
-0.005859375
-0.0267333984375
0.0340576171875
-0.03076171875
0.030029296875
-0.024200439453125
0.008056640625
-0.022003173828125
0.0146484375
-0.0216064453125
0.0311279296875
-0.022705078125
0.0025634765625
-0.0263671875
-0.00439453125
-0.0164794921875
0.0047607421875
0.0062255859375
-0.01318359375
0.006591796875
0.0113525390625
-0.002197265625
0.012451171875
0.0062255859375
0.0091552734375
0.009521484375
-0.000732421875
0.00439453125
0.013214111328125
0.0069580078125
0.0032958984375
0.0
-0.005889892578125
-0.01025390625
0.0087890625
-0.009521484375
-0.02197265625
0.03369140625
-0.0003662109375
-0.0274658203125
0.034454345703125
-0.0908203125
0.048004150390625
-0.0333251953125
0.0098876953125
-0.0194091796875
-0.0029296875
-0.0179443359375
0.009521484375
-0.009521484375
-0.0029296875
-0.0150146484375
-0.0113525390625
-0.016845703125
-0.0260009765625
-0.0054931640625
-0.006591796875
0.00732421875
-0.013946533203125
0.0032958984375
0.005859375
-0.008056640625
0.00439453125
0.0076904296875
-0.020904541015625
0.0076904296875
-0.005859375
-0.0054931640625
0.0010986328125
-0.0040283203125
0.005859375
0.0
-0.01171875
-0.00732421875
-0.0032958984375
-0.0018310546875
-0.0263671875
0.052001953125
-0.040283203125
0.002197265625
0.0172119140625
-0.047607421875
0.030029296875
-0.0029296875
-0.00439453125
0.006591796875
-0.0157470703125
0.0010986328125
0.0113525390625
-0.00146484375
-0.002197265625
-0.005859375
-0.013916015625
-0.0084228515625
-0.0142822265625
0.0098876953125
-0.0069580078125
0.0128173828125
-0.0062255859375
0.006591796875
-0.0179443359375
0.0
0.0003662109375
0.008056640625
-0.01171875
0.0087890625
-0.00732421875
0.000732421875
-0.012451171875
0.002197265625
-0.01025390625
0.0
-0.009521484375
-0.0076904296875
-0.0384521484375
-0.005126953125
-0.0303955078125
0.041015625
-0.02197265625
0.0128173828125
0.0311279296875
-0.0238037109375
0.0384521484375
-0.0018310546875
0.006591796875
0.0
0.009521484375
0.0018310546875
0.0216064453125
-0.0047607421875
0.0179443359375
-0.0054931640625
-0.012451171875
0.00146484375
-0.0029296875
0.0084228515625
-0.0084228515625
0.008056640625
0.000732421875
0.0003662109375
0.000732421875
0.0032958984375
0.000732421875
0.009521484375
0.0003662109375
0.009521484375
-0.000732421875
0.006591796875
0.0047607421875
0.0098876953125
-0.01171875
0.002197265625
0.0040283203125
-0.0032958984375
-0.01904296875
0.0263671875
-0.0146484375
0.0098876953125
-0.003662109375
-0.0150146484375
0.0164794921875
-0.0047607421875
0.03076171875
-0.0018310546875
-0.00146484375
0.0
0.0120849609375
0.0040283203125
0.00732421875
-0.0032958984375
-0.00146484375
-0.013916015625
-0.0245361328125
0.000732421875
-0.0018310546875
0.0098876953125
0.028564453125
0.0047607421875
0.049072265625
-0.0087890625
0.090118408203125
-0.0003662109375
0.049835205078125
0.0010986328125
0.0516357421875
-0.0047607421875
0.0538330078125
0.0
0.027099609375
-0.005126953125
0.0296630859375
-0.0150146484375
0.0289306640625
-0.0069580078125
-0.000732421875
0.063720703125
-0.005859375
-0.0010986328125
0.0164794921875
-0.0545654296875
-0.0164794921875
0.0135498046875
-0.005126953125
0.0223388671875
-0.0047607421875
0.0201416015625
-0.02490234375
0.0201416015625
-0.0238037109375
0.0076904296875
-0.0208740234375
-0.00732421875
-0.0205078125
0.0113525390625
-0.028564453125
0.0179443359375
-0.015380859375
0.0062255859375
-0.0201416015625
-0.0087890625
-0.01904296875
0.0084228515625
-0.0106201171875
0.0201416015625
-0.006591796875
0.0047607421875
-0.0069580078125
0.0025634765625
0.1138916015625
-0.005859375
0.140625
-0.0076904296875
0.015380859375
0.0025634765625
-0.013916015625
0.055694580078125
-0.03662109375
0.000732421875
0.0076904296875
-0.046905517578125
0.025634765625
0.005126953125
-0.00146484375
0.0032958984375
0.0076904296875
0.000732421875
0.0076904296875
-0.0098876953125
0.01171875
-0.01025390625
-0.017578125
-0.0076904296875
-0.0164794921875
-0.0003662109375
-0.013916015625
0.01171875
-0.0234375
0.002197265625
-0.0054931640625
-0.0032958984375
-0.0029296875
0.0032958984375
0.000732421875
0.0025634765625
-0.0120849609375
-0.0029296875
-0.0113525390625
0.0025634765625
-0.01318359375
0.002197265625
-0.002197265625
-0.009521484375
-0.01318359375
-0.0040283203125
-0.0296630859375
0.0303955078125
-0.0274658203125
0.0098876953125
0.005859375
-0.019775390625
0.0333251953125
-0.0018310546875
-0.012451171875
-0.0003662109375
-0.008056640625
-0.0029296875
-0.0032958984375
-0.0076904296875
-0.008056640625
-0.0087890625
-0.015380859375
0.0
-0.0234375
0.0120849609375
-0.0146484375
0.016845703125
-0.0186767578125
-0.002197265625
-0.0069580078125
-0.0025634765625
-0.0113525390625
0.00732421875
-0.0047607421875
0.0047607421875
-0.006591796875
0.005126953125
-0.0106201171875
0.0018310546875
0.0010986328125
0.0025634765625
-0.0047607421875
-0.0047607421875
-0.014678955078125
0.01171875
-0.026763916015625
0.015380859375
-0.0091552734375
-0.0091552734375
0.014312744140625
-0.0091552734375
0.021636962890625
-0.005859375
-0.002593994140625
-0.003662109375
-0.003662109375
-0.0062255859375
0.011749267578125
-0.006591796875
-0.008819580078125
-0.0032958984375
-0.006591796875
-0.00146484375
-0.010986328125
0.0084228515625
-0.009185791015625
0.0069580078125
-0.0084228515625
-0.0062255859375
-0.0010986328125
-0.005859375
0.006591796875
0.0047607421875
-0.0106201171875
0.0087890625
0.000732421875
0.0091552734375
-0.0084228515625
0.0069580078125
-0.006591796875
0.0098876953125
-0.00732421875
0.0054931640625
-0.0205078125
0.035919189453125
-0.005859375
0.014678955078125
0.005859375
-0.031524658203125
0.0274658203125
-0.003662109375
0.025634765625
-0.0003662109375
0.016510009765625
-0.004425048828125
0.012847900390625
-0.0025634765625
0.01318359375
-0.0091552734375
-0.005889892578125
-0.006591796875
-0.019805908203125
0.002197265625
-0.0120849609375
0.005859375
-0.0201416015625
0.0018310546875
-0.0029296875
-0.0047607421875
-0.000732421875
-0.0010986328125
0.0032958984375
0.00439453125
-0.0025634765625
0.0069580078125
-0.0032958984375
0.00439453125
-0.002197265625
-0.000732421875
-0.01025390625
-0.0054931640625
0.0025634765625
-0.0040283203125
-0.018310546875
0.042877197265625
-0.017578125
-0.00439453125
0.0003662109375
-0.043975830078125
0.02783203125
0.0029296875
0.0223388671875
0.0010986328125
-0.0025634765625
-0.0003662109375
0.01025390625
-0.0047607421875
0.000732421875
-0.0106201171875
-0.0040283203125
-0.008056640625
-0.0146484375
0.0025634765625
-0.00732421875
0.0113525390625
-0.0087890625
0.008056640625
-0.0047607421875
-0.009521484375
0.0040283203125
0.0003662109375
-0.0047607421875
0.0098876953125
0.005126953125
0.0
-0.0076904296875
-0.000732421875
0.0018310546875
0.0018310546875
-0.0018310546875
-0.0025634765625
-0.0018310546875
-0.0054931640625
-0.0216064453125
0.047637939453125
-0.0355224609375
-0.0025634765625
0.0054931640625
-0.047637939453125
0.0252685546875
0.000732421875
0.0201416015625
-0.0025634765625
-0.0018310546875
0.0003662109375
0.0087890625
0.0
0.005859375
-0.008056640625
0.000732421875
-0.0098876953125
-0.0047607421875
0.0025634765625
-0.0113525390625
0.0091552734375
0.005126953125
0.0040283203125
-0.003662109375
-0.01025390625
-0.002197265625
-0.0018310546875
0.0010986328125
0.005126953125
0.0098876953125
-0.0032958984375
0.0091552734375
-0.002197265625
0.0054931640625
-0.0018310546875
0.005859375
0.0032958984375
-0.006591796875
-0.00732421875
-0.0150146484375
0.042877197265625
-0.0245361328125
0.000732421875
0.017578125
-0.052398681640625
0.032958984375
-0.000732421875
0.01904296875
-0.0018310546875
0.0157470703125
-0.005859375
0.006988525390625
-0.0128173828125
0.014312744140625
-0.010986328125
0.00439453125
-0.00732421875
-0.00439453125
0.0018310546875
-0.012115478515625
0.0098876953125
0.0032958984375
0.0029296875
0.016876220703125
-0.0084228515625
0.015380859375
-0.002197265625
0.018310546875
0.0087890625
0.0003662109375
0.0010986328125
0.0025634765625
-0.0010986328125
-0.00732421875
-0.00146484375
-0.002197265625
-0.000732421875
-0.0010986328125
-0.0010986328125
-0.0179443359375
0.03955078125
-0.0135498046875
0.0010986328125
-0.0003662109375
-0.041015625
0.0263671875
0.00439453125
0.0150146484375
0.00146484375
0.003662109375
-0.0029296875
-0.00146484375
-0.00146484375
0.0047607421875
-0.0069580078125
-0.000732421875
-0.008056640625
-0.01171875
-0.000732421875
-0.012451171875
0.013916015625
-0.0120849609375
0.013916015625
-0.0025634765625
-0.0018310546875
-0.0087890625
-0.000732421875
0.002197265625
0.0076904296875
-0.006622314453125
0.0032958984375
-0.0062255859375
0.0
-0.0029296875
0.005126953125
-0.008453369140625
0.003662109375
0.0025634765625
0.000732421875
-0.0223388671875
0.030792236328125
-0.018310546875
0.005859375
-0.0120849609375
-0.026763916015625
0.0172119140625
0.0025634765625
0.024169921875
0.0069580078125
-0.0047607421875
-0.0018310546875
0.00146484375
-0.0029296875
0.0018310546875
-0.0069580078125
0.012451171875
-0.012451171875
-0.0084228515625
-0.0010986328125
-0.0054931640625
0.0120849609375
-0.00439453125
0.0084228515625
-0.0054931640625
-0.0040283203125
0.0032958984375
0.00439453125
-0.005126953125
0.010986328125
0.0025634765625
0.0040283203125
-0.0040283203125
-0.0003662109375
0.0040283203125
0.002197265625
-0.003662109375
-0.0003662109375
-0.0010986328125
-0.00439453125
-0.013916015625
0.020172119140625
-0.02197265625
0.013580322265625
-0.0087890625
-0.009185791015625
0.0164794921875
-0.008087158203125
0.03955078125
-0.0025634765625
-0.0018310546875
-0.00439453125
0.009185791015625
-0.00439453125
0.0113525390625
-0.005126953125
0.002197265625
-0.013916015625
-0.008056640625
0.0010986328125
-0.020172119140625
0.010986328125
0.002197265625
0.0113525390625
-0.005859375
-0.0029296875
0.0084228515625
-0.00439453125
0.00146484375
0.006591796875
-0.0003662109375
0.0003662109375
-0.00146484375
0.0032958984375
-0.008056640625
0.0047607421875
0.00439453125
0.003662109375
-0.0076904296875
-0.0076904296875
-0.0054931640625
0.0
-0.018310546875
0.019439697265625
-0.016845703125
0.007354736328125
0.0172119140625
-0.012115478515625
0.031494140625
-0.006988525390625
0.00146484375
-0.0003662109375
-0.0091552734375
-0.0032958984375
0.0087890625
0.000732421875
0.0025634765625
-0.0106201171875
0.0003662109375
-0.0032958984375
-0.0172119140625
0.0120849609375
-0.010986328125
0.011016845703125
-0.0084228515625
0.0029296875
-0.005859375
-0.009185791015625
0.00439453125
0.012481689453125
-0.010986328125
0.009552001953125
0.006591796875
-0.00439453125
-0.00732421875
0.0010986328125
-0.0010986328125
-0.0025634765625
0.0054931640625
-0.010284423828125
-0.005859375
-0.008087158203125
-0.01171875
0.032989501953125
-0.030029296875
0.005889892578125
0.025634765625
-0.0263671875
0.03369140625
-0.003326416015625
0.0069580078125
0.000732421875
0.0025634765625
-0.0029296875
0.0135498046875
-0.006256103515625
0.0128173828125
-0.010986328125
-0.0091552734375
-0.009521484375
-0.0025634765625
0.0098876953125
-0.0076904296875
0.008056640625
0.0040283203125
0.00146484375
-0.002197265625
-0.00146484375
0.008056640625
0.006256103515625
0.003662109375
0.002197265625
0.0010986328125
-0.005157470703125
0.003662109375
0.000732421875
-0.0040283203125
-0.00732421875
0.008056640625
-0.0120849609375
-0.010986328125
-0.005859375
-0.0087890625
0.045440673828125
-0.0281982421875
0.0040283203125
0.022735595703125
-0.040313720703125
0.044677734375
0.0032958984375
-0.002197265625
-0.0003662109375
0.007720947265625
-0.0040283203125
-0.002593994140625
-0.005859375
0.010986328125
-0.0069580078125
-0.0047607421875
-0.005859375
-0.0062255859375
0.0032958984375
-0.006591796875
0.0128173828125
-0.007354736328125
-0.0018310546875
0.009521484375
-0.0069580078125
-0.0040283203125
0.0098876953125
0.00146484375
0.00732421875
-0.00439453125
-0.005126953125
0.004058837890625
0.003662109375
-0.005859375
0.0047607421875
0.0
-0.00732421875
-0.0025634765625
-0.00146484375
-0.028961181640625
0.052764892578125
-0.027099609375
0.006591796875
0.01611328125
-0.049835205078125
0.046173095703125
-0.00146484375
-0.0029296875
0.005859375
0.0025634765625
0.003662109375
-0.002197265625
0.0018310546875
-0.0029296875
-0.01025390625
0.00439453125
-0.0076904296875
-0.017608642578125
0.00732421875
-0.0106201171875
0.018341064453125
-0.01611328125
0.004425048828125
0.0025634765625
-0.00439453125
-0.005859375
0.0135498046875
-0.0010986328125
0.01025390625
0.00146484375
0.0029296875
-0.0087890625
0.0040283203125
0.003662109375
0.0010986328125
-0.0087890625
-0.0076904296875
0.0032958984375
-0.0010986328125
-0.0260009765625
0.0589599609375
-0.0296630859375
0.0003662109375
0.0201416015625
-0.0567626953125
0.0325927734375
-0.0003662109375
0.0113525390625
0.0069580078125
-0.0010986328125
-0.0054931640625
0.0091552734375
-0.00439453125
-0.0010986328125
-0.012115478515625
0.0098876953125
-0.0113525390625
-0.012451171875
0.008819580078125
-0.01171875
0.01611328125
0.003662109375
0.005126953125
0.0029296875
-0.01171875
0.0084228515625
0.003662109375
-0.0029296875
0.0054931640625
0.0120849609375
-0.000732421875
-0.0047607421875
0.000732421875
0.0062255859375
0.000732421875
-0.005126953125
-0.0010986328125
-0.0091552734375
-0.00439453125
-0.017578125
0.0556640625
-0.03076171875
-0.0062255859375
0.0311279296875
-0.059326171875
0.03515625
0.0003662109375
0.027496337890625
-0.00439453125
0.015380859375
-0.011383056640625
0.0179443359375
-0.009918212890625
0.015045166015625
-0.006591796875
0.006591796875
-0.0106201171875
0.0062255859375
0.006591796875
-0.0113525390625
0.015380859375
0.0087890625
0.0032958984375
-0.0010986328125
-0.009521484375
0.010986328125
0.001861572265625
0.005126953125
0.012847900390625
0.002197265625
0.000732421875
0.009521484375
0.00146484375
-0.005859375
-0.003692626953125
0.010986328125
-0.00146484375
-0.0032958984375
-0.000732421875
-0.01171875
0.0421142578125
-0.028564453125
0.0025634765625
0.005126953125
-0.045440673828125
0.0391845703125
-0.000732421875
0.0179443359375
-0.003662109375
0.0069580078125
-0.0032958984375
0.0040283203125
-0.0091552734375
0.0194091796875
-0.012451171875
-0.0062255859375
-0.0076904296875
-0.0062255859375
0.005126953125
-0.01318359375
0.016845703125
-0.01318359375
0.0084228515625
-0.0062255859375
-0.0032958984375
-0.008056640625
-0.0003662109375
0.005859375
0.010284423828125
-0.009521484375
0.005889892578125
0.0040283203125
0.005126953125
-0.010986328125
0.002197265625
-0.0025634765625
-0.0029296875
-0.000732421875
-0.000732421875
-0.0216064453125
0.0164794921875
-0.0150146484375
0.0150146484375
-0.023834228515625
-0.0128173828125
0.0274658203125
-0.0106201171875
0.022003173828125
-0.0040283203125
0.0018310546875
-0.000732421875
0.002197265625
-0.003662109375
0.0047607421875
-0.011749267578125
0.00732421875
-0.007720947265625
-0.015380859375
-0.000732421875
-0.0029296875
0.008819580078125
-0.010986328125
0.006256103515625
0.0054931640625
-0.000732421875
0.0018310546875
0.000732421875
0.0018310546875
0.003662109375
0.0018310546875
0.0025634765625
-0.00439453125
0.0003662109375
-0.0018310546875
0.0029296875
-0.009521484375
-0.005523681640625
0.00732421875
-0.015045166015625
-0.015380859375
-0.00439453125
-0.006591796875
0.024566650390625
-0.019439697265625
0.0040283203125
0.0164794921875
-0.018341064453125
0.035186767578125
-0.0025634765625
-0.0098876953125
-0.0062255859375
0.0091552734375
-0.0054931640625
-0.0032958984375
-0.005859375
0.008056640625
-0.012451171875
-0.00732421875
-0.0084228515625
-0.0025634765625
0.005126953125
-0.0029296875
0.0098876953125
-0.0135498046875
-0.00146484375
0.0091552734375
-0.005126953125
-0.0029296875
0.0069580078125
0.0040283203125
0.0047607421875
-0.003662109375
-0.0032958984375
0.00732421875
-0.0029296875
0.000732421875
-0.0010986328125
0.0029296875
-0.01025390625
-0.0025634765625
-0.0018310546875
-0.027099609375
0.045074462890625
-0.017608642578125
-0.002197265625
0.01171875
-0.045074462890625
0.048370361328125
0.0010986328125
0.0010986328125
0.0003662109375
0.005126953125
-0.005859375
0.0128173828125
-0.0025634765625
0.00146484375
-0.0091552734375
0.013916015625
-0.005859375
-0.0135498046875
0.000732421875
-0.0062255859375
0.010986328125
-0.0142822265625
0.0040283203125
0.0054931640625
-0.005859375
0.0018310546875
0.0106201171875
-0.0098876953125
0.008056640625
-0.0029296875
0.005126953125
-0.0135498046875
0.0054931640625
0.002197265625
0.0025634765625
-0.013916015625
-0.003662109375
-0.0084228515625
0.000732421875
-0.037384033203125
0.061553955078125
-0.030426025390625
-0.0032958984375
0.0069580078125
-0.052032470703125
0.017578125
0.0084228515625
0.01318359375
0.012847900390625
-0.01318359375
0.0018310546875
0.00439453125
-0.0010986328125
-0.0040283203125
-0.0029296875
0.0003662109375
-0.008819580078125
-0.0150146484375
0.0003662109375
-0.0146484375
0.009185791015625
-0.0010986328125
0.011383056640625
-0.010986328125
-0.005157470703125
0.0087890625
-0.0010986328125
-0.005126953125
0.007354736328125
0.0032958984375
0.00146484375
-0.0087890625
0.002197265625
-0.0029296875
0.0
0.002197265625
0.0025634765625
-0.0054931640625
-0.0025634765625
-0.006591796875
0.02490234375
-0.021240234375
0.0106201171875
0.002197265625
-0.0252685546875
0.0157470703125
-0.0054931640625
0.0263671875
0.0029296875
-0.000732421875
0.00146484375
0.0025634765625
-0.000732421875
0.005126953125
-0.0054931640625
-0.0025634765625
-0.013214111328125
0.005859375
-0.0003662109375
-0.012451171875
0.006988525390625
0.005859375
0.00439453125
-0.005859375
-0.00439453125
0.000732421875
-0.005126953125
0.008056640625
0.005126953125
0.0003662109375
0.0
0.0087890625
0.00439453125
-0.0040283203125
0.0
0.006591796875
-0.0010986328125
-0.0047607421875
-0.005523681640625
-0.005126953125
-0.00146484375
-0.013916015625
0.021270751953125
-0.0157470703125
0.002197265625
0.0274658203125
-0.0164794921875
0.0260009765625
-0.011383056640625
0.008056640625
0.000732421875
-0.0003662109375
0.002960205078125
0.010284423828125
-0.005523681640625
-0.00146484375
-0.013214111328125
-0.005889892578125
0.0003662109375
-0.0076904296875
0.016876220703125
-0.0098876953125
0.007354736328125
0.003662109375
-0.0018310546875
-0.0018310546875
-0.00439453125
0.0106201171875
0.01171875
-0.0032958984375
0.0029296875
0.0032958984375
-0.00146484375
-0.0047607421875
0.006591796875
-0.0025634765625
-0.003662109375
0.0032958984375
-0.0076904296875
-0.01025390625
-0.0091552734375
-0.0029296875
0.03662109375
-0.0267333984375
0.005859375
0.030426025390625
-0.03955078125
0.0369873046875
-0.010650634765625
0.00732421875
-0.002593994140625
0.008453369140625
0.0
0.000732421875
-0.0084228515625
0.013916015625
-0.006591796875
-0.0047607421875
-0.0040283203125
-0.0018310546875
0.0062255859375
-0.012451171875
0.012451171875
0.000732421875
-0.00146484375
0.0032958984375
-0.0069580078125
0.0047607421875
0.0018310546875
0.0091552734375
0.0025634765625
0.0029296875
-0.00439453125
0.0146484375
0.0
-0.006591796875
0.0
0.00439453125
-0.0062255859375
-0.0047607421875
-0.00146484375
-0.0205078125
0.053131103515625
-0.027496337890625
-0.002197265625
0.0179443359375
-0.058990478515625
0.048370361328125
0.0054931640625
-0.0018310546875
0.00732421875
0.0062255859375
0.0010986328125
0.0010986328125
-0.0018310546875
0.012451171875
-0.01171875
0.00439453125
-0.005126953125
-0.0128173828125
0.008056640625
-0.005859375
0.0157470703125
-0.0084228515625
0.006591796875
0.0032958984375
-0.00146484375
-0.005126953125
-0.003662109375
0.01025390625
0.004058837890625
-0.0032958984375
0.007354736328125
-0.0029296875
0.0029296875
0.0032958984375
-0.002593994140625
-0.0025634765625
-0.002197265625
0.0010986328125
0.002593994140625
-0.019775390625
0.01318359375
-0.0029296875
0.010986328125
-0.01318359375
-0.01318359375
0.0186767578125
-0.0084228515625
0.02490234375
0.003662109375
-0.005126953125
-0.0010986328125
-0.002197265625
0.00146484375
-0.0040283203125
-0.005157470703125
0.0128173828125
-0.009918212890625
-0.01025390625
0.0
-0.0047607421875
0.010650634765625
-0.0106201171875
0.011016845703125
-0.0010986328125
0.0
0.0025634765625
-0.0003662109375
-0.01025390625
0.009521484375
-0.0003662109375
0.0076904296875
-0.0113525390625
-0.00146484375
0.002197265625
0.003662109375
-0.0062255859375
-0.0047607421875
0.0010986328125
-0.0091552734375
-0.013580322265625
0.0047607421875
-0.023468017578125
0.040283203125
-0.0260009765625
0.005859375
0.009552001953125
-0.0377197265625
0.041778564453125
-0.0040283203125
-0.0029296875
0.0025634765625
0.0047607421875
0.0040283203125
-0.003326416015625
-0.0029296875
0.0106201171875
-0.01171875
-0.0029296875
-0.0032958984375
-0.021240234375
0.0062255859375
-0.0003662109375
0.01318359375
-0.010650634765625
0.0032958984375
0.0018310546875
-0.006591796875
-0.0062255859375
0.002197265625
0.006256103515625
0.00732421875
0.003662109375
0.002197265625
-0.0003662109375
-0.00439453125
0.0018310546875
-0.0010986328125
-0.004791259765625
-0.002197265625
0.0069580078125
-0.0025634765625
-0.0245361328125
0.03515625
-0.0157470703125
0.0025634765625
0.0
-0.041748046875
0.029327392578125
-0.009521484375
0.0245361328125
0.0
0.0003662109375
-0.00146484375
0.009552001953125
-0.000732421875
-0.00146484375
-0.0091552734375
0.00732421875
-0.010650634765625
-0.010650634765625
-0.002197265625
-0.0040283203125
0.010650634765625
-0.0018310546875
0.00732421875
-0.000732421875
-0.009918212890625
0.007354736328125
-0.005126953125
-0.0040283203125
0.008087158203125
0.006591796875
0.005859375
-0.0010986328125
-0.008087158203125
0.0054931640625
-0.0010986328125
-0.006622314453125
0.003326416015625
0.0018310546875
-0.011016845703125
0.001861572265625
-0.00146484375
-0.0120849609375
0.038116455078125
-0.020904541015625
0.0098876953125
0.00439453125
-0.0234375
0.024566650390625
0.0113525390625
-0.033721923828125
0.027099609375
-0.019073486328125
0.028564453125
-0.0186767578125
0.017578125
-0.028564453125
0.0003662109375
-0.0369873046875
0.0047607421875
-0.0439453125
0.0120849609375
-0.018310546875
0.016845703125
-0.0208740234375
0.013916015625
0.002197265625
0.0018310546875
-0.0025634765625
0.0087890625
-0.006591796875
0.01171875
-0.0054931640625
0.0069580078125
-0.006591796875
0.0032958984375
0.0054931640625
0.0025634765625
-0.008056640625
0.000732421875
-0.0003662109375
-0.002197265625
-0.01611328125
0.02490234375
0.0018310546875
0.000732421875
0.0113525390625
-0.034423828125
0.0355224609375
-0.008056640625
0.0479736328125
0.0
0.0135498046875
-0.0135498046875
0.0260009765625
-0.01611328125
0.0234375
-0.0179443359375
0.0340576171875
-0.0238037109375
0.013916015625
-0.0135498046875
0.01318359375
-0.0025634765625
0.01611328125
-0.00146484375
0.001861572265625
-0.0032958984375
0.013946533203125
-0.0128173828125
0.0098876953125
-0.00439453125
0.019775390625
0.003662109375
0.005859375
-0.00732421875
0.0054931640625
-0.0003662109375
0.0029296875
-0.0032958984375
0.00732421875
-0.0150146484375
0.0120849609375
-0.0047607421875
-0.0128173828125
0.04541015625
-0.0194091796875
-0.003662109375
0.024169921875
-0.05419921875
0.0509033203125
-0.002197265625
0.000732421875
0.0029296875
0.003662109375
-0.0040283203125
0.005126953125
-0.0091552734375
0.0029296875
-0.012847900390625
0.0062255859375
-0.006256103515625
-0.0120849609375
0.003326416015625
-0.0062255859375
0.016510009765625
-0.01025390625
0.0062255859375
0.0040283203125
-0.0069580078125
-0.0076904296875
-0.0025634765625
-0.0040283203125
0.0091552734375
-0.0029296875
0.005859375
-0.0157470703125
-0.002197265625
0.00439453125
0.0047607421875
-0.0091552734375
-0.0010986328125
0.00146484375
-0.0128173828125
-0.0146484375
-0.0032958984375
-0.0069580078125
0.0205078125
-0.012451171875
0.0032958984375
0.0098876953125
-0.0172119140625
0.0384521484375
-0.0025634765625
-0.0054931640625
-0.0003662109375
0.0040283203125
0.0
0.00146484375
-0.006256103515625
0.01025390625
-0.010284423828125
-0.006591796875
-0.0025634765625
-0.0113525390625
0.003692626953125
0.01318359375
0.005889892578125
0.0179443359375
-0.004425048828125
0.0263671875
-0.011749267578125
0.0029296875
-0.0091552734375
-0.01025390625
-0.003662109375
-0.025634765625
-0.009521484375
0.024169921875
-0.0172119140625
0.07177734375
-0.0157470703125
-0.231475830078125
0.127105712890625
0.49371337890625
0.048370361328125
0.748992919921875
-0.09375
-0.0003662109375
-0.078765869140625
-1.0
0.013916015625
-1.0
0.109893798828125
1.0
-0.066680908203125
1.0
-0.650848388671875
-1.0
0.648651123046875
-1.0
1.0
1.0
-1.0
1.0
-1.0
-1.0
1.0
-0.9947509765625
0.0
0.0
-0.54791259765625
-0.50469970703125
1.0
0.0
-0.093414306640625
0.0
0.006591796875
1.0
-0.851165771484375
1.0
-1.0
-0.0003662109375
0.0
0.0
0.0
0.0
0.0
-0.0003662109375
0.0
0.0
0.0
0.0003662109375
0.0
0.0
0.0
0.0
0.0
0.0003662109375
0.0
0.0
0.0
0.0
0.0
0.0
0.0
-0.0003662109375
0.0003662109375
0.0
0.0
0.0
-0.0003662109375
0.0
0.0
0.0003662109375
0.0
0.0
0.0
-0.0003662109375
0.0
0.0
0.0
-1.0
1.0
-1.0
1.0
0.0
-1.0
0.0
0.0062255859375
0.0
1.0
0.0
-0.0062255859375
0.0
0.0
0.0
0.0
0.0
0.0
0.0
0.0
0.0
0.0
0.0
0.0
0.0
0.0
0.0
0.0
0.0
0.0
0.0
0.0
0.0
0.0
0.0
0.0
0.0
0.0
0.0
0.0
0.0
0.0
0.0
0.0
0.0
0.0
0.094512939453125
0.0
0.0
0.0
-0.094512939453125
0.0
0.0
0.0
0.0
0.0
0.0
0.0
0.0
-0.265899658203125
0.0
-0.742034912109375
0.111358642578125
-0.39190673828125
0.277618408203125
0.0208740234375
0.344268798828125
-0.245391845703125
0.253082275390625
-0.62994384765625
0.1175537109375
-0.58892822265625
0.159698486328125
-0.0142822265625
-0.280181884765625
0.209503173828125
-0.351959228515625
0.231842041015625
-0.292999267578125
0.195953369140625
-0.33843994140625
-0.012451171875
0.0
-0.100006103515625
0.0
-0.096710205078125
0.053497314453125
-0.071044921875
0.067413330078125
0.0325927734375
-0.053497314453125
-0.0205078125
-0.067413330078125
-0.0611572265625
0.0
0.034423828125
0.0003662109375
0.0322265625
0.0274658203125
0.0098876953125
-0.0003662109375
0.0443115234375
-0.0274658203125
0.081695556640625
0.0
0.058258056640625
0.0
0.0234375
0.072540283203125
0.0113525390625
0.201446533203125
0.028564453125
0.2420654296875
-0.0413818359375
-0.201446533203125
0.249053955078125
0.595916748046875
0.0025634765625
1.0
-0.45928955078125
0.146484375
-0.146514892578125
-0.02490234375
0.0787353515625
-0.0487060546875
0.1131591796875
-0.1043701171875
0.0582275390625
-0.129302978515625
0.065948486328125
0.0146484375
-0.0516357421875
0.298858642578125
-0.195953369140625
0.56585693359375
-0.2025146484375
0.32159423828125
-0.164825439453125
0.0003662109375
-0.064483642578125
-0.0003662109375
0.0
0.0
0.0
0.0003662109375
0.0
-0.0003662109375
0.0
-0.0003662109375
0.0
0.0003662109375
0.0
-0.0047607421875
0.0
-0.176177978515625
0.0
0.0047607421875
0.0
-1.0
1.0
-0.681610107421875
0.49261474609375
1.0
-1.0
0.681976318359375
-0.49261474609375
0.0003662109375
0.0
-0.0003662109375
0.0
0.0
0.0
0.0003662109375
0.0
0.0
0.0
0.0
0.0
-0.0003662109375
0.0
-0.0003662109375
0.0
-0.223419189453125
0.0
-0.37396240234375
0.0
0.0780029296875
0.0
0.37396240234375
0.0
0.145782470703125
0.0
-0.149444580078125
0.0
-0.0003662109375
0.0
0.149810791015625
0.0
0.0
0.0
-0.0003662109375
0.0
-0.01904296875
0.0234375
-0.079132080078125
0.0032958984375
0.0194091796875
-0.0234375
0.079498291015625
-0.0025634765625
-0.0003662109375
0.0
-0.0003662109375
-0.000732421875
0.0
0.0
0.0
0.0
-0.044342041015625
0.0
0.0
0.0
-0.097412109375
0.0
-0.35382080078125
1.0
0.141754150390625
1.0
-0.922576904296875
0.45123291015625
-1.0
-0.0003662109375
1.0
-1.0
1.0
-1.0
-1.0
1.0
-1.0
1.0
0.268096923828125
0.0003662109375
1.0
0.0003662109375
-0.268096923828125
0.0
-1.0
-0.0003662109375
0.0
0.0
0.757781982421875
0.0003662109375
0.037750244140625
0.0
-0.757781982421875
-0.0003662109375
1.0
0.000732421875
1.0
0.000732421875
0.0
0.0
0.0003662109375
0.0
0.0
0.0
0.0
0.0
-0.0003662109375
0.0
0.0
0.0
0.0003662109375
0.0
-0.00146484375
-1.0
-1.0
-0.8980712890625
-1.0
0.0
0.684539794921875
-0.59478759765625
0.838348388671875
1.0
0.391876220703125
1.0
-0.838348388671875
0.0003662109375
-1.0
-0.0003662109375
0.0
0.0
0.0
0.0
0.0
0.0
0.0
0.0
0.0
0.0
0.0
0.0
0.0
0.0
0.0
0.0
0.0
0.0
0.0
0.0
1.0
-1.0
1.0
-1.0
0.0003662109375
-0.00146484375
-1.0
1.0
-1.0
1.0
1.0
-1.0
0.864349365234375
-1.0
-1.0
1.0
-0.864349365234375
1.0
0.0
-0.113922119140625
0.0
-0.40142822265625
0.0
-0.68267822265625
0.0
-0.58892822265625
0.0
0.796600341796875
0.0
0.9903564453125
0.0
-1.0
0.0
-1.0
1.0
1.0
1.0
1.0
0.0
-1.0
-1.0
-1.0
-1.0
-0.0003662109375
0.0
0.0
0.0
0.0
1.0
1.0
1.0
1.0
0.0
0.0
-0.0003662109375
0.0
-1.0
-1.0
-1.0
-1.0
-0.0087890625
0.0
0.0
0.0
1.0
0.074371337890625
0.0
1.0
-1.0
1.0
0.0
-0.0062255859375
0.0
0.0
0.0
0.0
0.0
0.0
0.0
0.0
1.0
-1.0
1.0
-1.0
0.0
0.0
0.0
0.0
0.0
0.0
0.0
0.0
0.0003662109375
0.0
0.0
0.0
0.0
0.0
-0.0003662109375
0.0
0.0
0.0
0.0
0.0
-0.0003662109375
0.0
0.0003662109375
0.0
0.0
0.0
-0.0003662109375
0.0
0.0
0.0
0.0
0.0
0.0003662109375
0.0
0.0003662109375
0.0
-0.0003662109375
0.0
0.0
0.0
-1.0
1.0
-1.0
1.0
-0.35235595703125
0.44207763671875
0.0
0.0
0.0
0.0
0.0
0.0
0.0
0.0
0.0
0.0
0.0
0.0
0.0
0.0
0.0
0.0
0.0
0.0
0.876434326171875
-1.0
1.0
-1.0
0.623016357421875
-0.43365478515625
0.0
0.0
-0.0003662109375
0.0
0.0
0.0003662109375
0.0003662109375
0.0
-0.0003662109375
-0.0003662109375
-0.0003662109375
0.0
0.0003662109375
0.0
-1.0
1.0
-1.0
1.0
1.0
-1.0
1.0
-1.0
0.0
-0.0010986328125
0.0003662109375
0.0
0.0
0.0
-1.0
1.0
-1.0
1.0
0.0
-0.0062255859375
0.0
0.0
0.0
0.0
0.0
0.0
1.0
-1.0
1.0
-1.0
0.0003662109375
-0.000732421875
0.0003662109375
0.0
0.0
0.0
-0.0003662109375
0.0
0.0
0.0
0.0
0.0
0.0
0.0
0.0
0.0
0.0
0.0
0.0
0.0
-0.0003662109375
0.0
0.0003662109375
0.0
0.0
0.0
0.0
0.0
0.0
0.0
0.0
0.0
0.0003662109375
0.0
-0.0003662109375
0.0
0.0
0.0
-1.0
1.0
-1.0
1.0
0.0
0.051666259765625
0.0
0.0
0.0
0.0
0.0
0.0
0.0
0.0
0.0
0.0
0.0
0.0
0.0
0.0
0.0
0.0
0.0
0.0
0.0
0.0
0.0
0.0
0.0
0.0
0.0
0.0
0.0
0.0
0.0
0.0
0.0
0.0
0.0
0.0
0.0
0.0
0.0
0.0
0.0
0.0
0.0
0.0
0.0
0.0
0.0
0.0
0.0
0.0
0.0
0.0
0.0
0.0
0.0
0.0
0.0
0.0
0.0
0.0
0.0
0.0
0.0
0.0
0.0
0.0
0.0
0.0
0.0
0.0
0.0
0.0
0.0
0.0
0.0
0.0
0.0
0.0
0.0
0.0
0.0
-0.0003662109375
0.0
0.0
0.0
0.0003662109375
0.0
0.0
0.0
0.0
0.0
0.0
0.0
0.0
0.0
0.0
0.0
0.0
0.0
0.0
0.0
0.0
0.0
0.0
0.0
0.0
0.0
0.0
0.0
0.0
0.0
0.0
0.0
0.0
0.0
0.0
0.0
0.0
0.0
0.0
0.0
0.0
0.0
0.0
0.0
0.0
0.0
0.0
0.0
0.0
0.0
0.0
0.0
0.0
0.0
0.0
0.0
0.0
0.0
0.0
0.0
0.0
0.0
0.0
0.0
0.0
0.0
0.0
0.0
0.0
0.0
0.0
0.0
0.0
0.0
0.0
0.0
0.0
0.0
0.0
0.0
0.0
0.0
0.0
0.0
0.0
0.0
0.0
0.0
0.0
0.0
0.0
0.0
0.0
0.0
0.0
0.0
0.0
0.0
0.0
0.0
0.0
0.0
0.0
0.0
0.0
0.0
0.0
0.0
0.0
0.0
0.0
0.0
0.0
0.0
0.0
0.0
0.0
0.0
0.0
0.0
0.0
0.0
0.0
0.0
0.0
0.0
0.0
0.0
0.0
0.0
0.0
0.0
0.0
0.0
0.0
0.0
0.0
0.0
0.0
0.0
0.0
0.0
0.0
0.0
0.0
0.0
0.0
0.0
0.0
0.0
0.0
0.0
0.0
0.0
0.0
0.0
0.0
0.0
0.0
0.0
0.0
0.0
0.0
0.0
0.0
0.0
0.0
0.0
0.0
0.0
0.0
0.0
0.0
0.0
0.0
0.0
-0.0003662109375
0.0
-0.0054931640625
0.0
-0.0146484375
0.0
-0.030059814453125
0.0
-0.018341064453125
0.0
-0.0062255859375
0.0
-0.0216064453125
0.0076904296875
-0.024169921875
0.0186767578125
-0.0208740234375
0.0062255859375
-0.0340576171875
0.000732421875
-0.0391845703125
0.016845703125
-0.0223388671875
0.030792236328125
-0.006591796875
0.017974853515625
-0.019775390625
0.01171875
-0.02490234375
0.0186767578125
-0.017578125
0.01025390625
-0.025634765625
0.00732421875
-0.0263671875
0.0047607421875
-0.0281982421875
0.00732421875
-0.0260009765625
0.012451171875
-0.019775390625
0.017578125
-0.01318359375
0.0179443359375
-0.0135498046875
0.0186767578125
-0.012451171875
0.0201416015625
-0.009521484375
0.0146484375
-0.0146484375
0.01318359375
-0.0157470703125
0.0142822265625
-0.0135498046875
0.0164794921875
-0.0106201171875
0.012451171875
-0.015380859375
0.0113525390625
-0.0142822265625
0.03369140625
0.0076904296875
0.0146484375
-0.0113525390625
0.0062255859375
-0.01904296875
0.02490234375
-0.0003662109375
0.0135498046875
-0.0106201171875
0.0146484375
-0.0106201171875
0.0142822265625
-0.0091552734375
0.0076904296875
-0.013946533203125
0.0069580078125
-0.015777587890625
0.012451171875
-0.0113525390625
0.0146484375
-0.0069580078125
0.0091552734375
-0.01171875
0.0120849609375
-0.0084228515625
0.01318359375
-0.006591796875
0.0091552734375
-0.012451171875
0.0087890625
-0.0113525390625
0.0113525390625
-0.008056640625
0.0091552734375
-0.0113525390625
0.0069580078125
-0.0120849609375
0.0303955078125
0.0120849609375
0.00146484375
-0.01611328125
-0.00732421875
-0.0267333984375
0.02197265625
0.003662109375
0.01025390625
-0.00732421875
0.008056640625
-0.01025390625
0.008819580078125
-0.0084228515625
0.008087158203125
-0.01025390625
0.005126953125
-0.0120849609375
0.005126953125
-0.0098876953125
0.009521484375
-0.005859375
0.010986328125
-0.00439453125
0.0128173828125
-0.002197265625
0.010986328125
-0.0040283203125
0.0069580078125
-0.008056640625
0.008056640625
-0.00732421875
0.009521484375
-0.005126953125
0.0091552734375
-0.00439453125
0.006591796875
-0.0076904296875
0.0260009765625
0.009521484375
0.000732421875
-0.012451171875
-0.01025390625
-0.0223388671875
0.018310546875
0.0054931640625
0.010986328125
-0.0029296875
0.0069580078125
-0.0076904296875
0.005859375
-0.0062255859375
0.0054931640625
-0.00732421875
0.0029296875
-0.009521484375
0.005859375
-0.0054931640625
0.0098876953125
-0.0025634765625
0.006591796875
-0.0062255859375
0.0087890625
-0.0032958984375
0.009521484375
-0.0018310546875
0.0069580078125
-0.00439453125
0.005859375
-0.0047607421875
0.0047607421875
-0.005859375
0.0062255859375
-0.005126953125
0.005126953125
-0.0069580078125
0.0157470703125
0.003662109375
0.0062255859375
-0.0032958984375
-0.0069580078125
-0.016845703125
0.0087890625
-0.0018310546875
0.0113525390625
0.00146484375
0.0054931640625
-0.0047607421875
0.00439453125
-0.005859375
0.0018310546875
-0.0084228515625
0.0003662109375
-0.009521484375
0.00146484375
-0.00732421875
0.0069580078125
-0.002197265625
0.006591796875
-0.0029296875
0.0025634765625
-0.006591796875
0.006591796875
-0.0025634765625
0.0069580078125
-0.0018310546875
0.00439453125
-0.0040283203125
0.003662109375
-0.005126953125
0.00439453125
-0.0047607421875
0.002197265625
-0.006591796875
0.000732421875
-0.00732421875
0.0084228515625
0.000732421875
0.002197265625
-0.00732421875
0.0029296875
-0.005859375
0.009521484375
0.00146484375
0.0025634765625
-0.005859375
0.002197265625
-0.0062255859375
-0.003662109375
-0.0113525390625
-0.0194091796875
-0.0263671875
-0.0201416015625
-0.02783203125
0.0018310546875
-0.0062255859375
0.0487060546875
0.0391845703125
0.09228515625
0.08203125
0.0692138671875
0.0604248046875
0.097076416015625
0.087158203125
0.90283203125
-1.0
-0.647552490234375
0.42303466796875
-1.0
1.0
1.0
-0.005859375
1.0
-0.0040283203125
0.069244384765625
0.0
0.049835205078125
0.0
0.0
0.0
0.0003662109375
-1.0
0.0
0.0
-0.0142822265625
0.190093994140625
0.0
-1.0
-1.0
1.0
-1.0
1.0
0.0
0.0
0.0
0.0
0.0
0.0
1.0
-1.0
1.0
-1.0
-1.0
-0.0010986328125
-1.0
-0.0003662109375
1.0
0.0234375
1.0
0.0018310546875
0.0
-0.0234375
-1.0
1.0
-0.0003662109375
0.0
1.0
-1.0
0.0
0.0
0.0
0.0
0.0003662109375
0.0
0.0
0.0
-0.0003662109375
0.0
-0.316802978515625
0.0
-1.0
0.0
-1.0
0.0
0.0
0.0
1.0
0.0
0.0
0.0
-1.0
0.0
0.0
0.0
1.0
0.0
0.0
0.0
-1.0
0.0
0.0
0.0
0.0
0.0
0.0
0.0
0.0
0.0
1.0
0.0
1.0
0.0
0.0
1.0
0.0003662109375
0.9039306640625
0.0
-1.0
0.0
-0.9039306640625
0.0
0.0
-0.0003662109375
0.0
0.0
0.0
0.0
0.0
-0.0003662109375
0.0
0.0003662109375
0.0
0.0
0.0
-0.0003662109375
0.0
0.0
1.0
0.0
1.0
0.0003662109375
0.0
0.0
0.0
-0.0003662109375
0.0
0.0003662109375
0.0
0.0
0.0
0.0
0.0
0.0
0.0
0.0
0.0
0.0003662109375
0.0
-0.0003662109375
0.0
-0.0003662109375
0.0
0.0003662109375
0.0
0.0
0.0
-0.0003662109375
0.0
0.0003662109375
0.0
0.0
0.0
-0.0003662109375
0.0
0.0
0.0
0.0003662109375
0.0
0.0
0.0
0.0
-0.305084228515625
0.0003662109375
-0.751922607421875
-0.0003662109375
-0.776092529296875
0.0
-0.193389892578125
0.0003662109375
1.0
-0.0003662109375
0.40948486328125
0.0
-0.9705810546875
0.0
-0.696990966796875
-0.0003662109375
-0.401397705078125
0.0003662109375
-0.213134765625
0.0
-0.117584228515625
-0.0003662109375
-0.046905517578125
0.0003662109375
0.041046142578125
0.0003662109375
0.161529541015625
0.0
0.440582275390625
0.0
0.54754638671875
0.0
0.353057861328125
0.0
0.343170166015625
-0.0003662109375
0.39959716796875
-0.0003662109375
0.237701416015625
0.0003662109375
0.059326171875
0.0003662109375
0.00146484375
-0.0003662109375
0.0047607421875
0.0
0.0263671875
0.0003662109375
0.0223388671875
-0.0003662109375
-0.016845703125
0.0
-0.038818359375
0.0003662109375
-0.0208740234375
-0.0003662109375
-0.0091552734375
-0.0003662109375
-0.0128173828125
0.0003662109375
-0.016845703125
0.0
-0.034423828125
0.0
-0.04248046875
0.0
-0.037353515625
-0.0003662109375
-0.034820556640625
0.0003662109375
-0.034454345703125
0.0003662109375
-0.035888671875
-0.0003662109375
0.01611328125
-0.0003662109375
-0.04833984375
0.0003662109375
-0.112060546875
0.0
-0.0538330078125
0.0
-0.038818359375
0.0
-0.0303955078125
-0.0003662109375
-0.030029296875
0.0
-0.041748046875
0.0
-0.03515625
0.0003662109375
-0.0135498046875
0.0003662109375
-0.01318359375
-0.0003662109375
-0.0128173828125
0.0
-0.00439453125
-0.0179443359375
-0.0098876953125
-0.049468994140625
-0.0234375
-0.063385009765625
-0.0194091796875
-0.0640869140625
-0.0142822265625
-0.0501708984375
-0.027130126953125
-0.043212890625
-0.032623291015625
-0.065185546875
0.027862548828125
-0.0633544921875
-0.027099609375
-0.0362548828125
-0.068878173828125
-0.02783203125
-0.0047607421875
-0.0311279296875
-0.012451171875
-0.0238037109375
-0.0281982421875
-0.0238037109375
-0.030029296875
-0.0347900390625
-0.0201416015625
-0.042877197265625
-0.015380859375
-0.048736572265625
-0.0069580078125
-0.04833984375
-0.0003662109375
-0.0439453125
-0.0040283203125
-0.0399169921875
-0.0010986328125
-0.035888671875
-0.0003662109375
-0.029296875
-0.008056640625
-0.03076171875
-0.0032958984375
-0.03369140625
-0.000732421875
-0.0362548828125
-0.00146484375
-0.03662109375
-0.0029296875
-0.0435791015625
0.03662109375
-0.04248046875
0.0032958984375
-0.02197265625
-0.03955078125
-0.009521484375
0.0010986328125
-0.016845703125
0.0054931640625
-0.0274658203125
0.0029296875
-0.024200439453125
0.0003662109375
-0.020904541015625
-0.003662109375
-0.024169921875
-0.005859375
-0.0311279296875
0.0040283203125
-0.0325927734375
0.0142822265625
-0.0252685546875
0.0047607421875
-0.021240234375
0.0029296875
-0.0216064453125
0.0084228515625
-0.01904296875
0.003662109375
-0.016845703125
0.0029296875
-0.019775390625
0.005859375
-0.0201416015625
0.0040283203125
-0.0142822265625
-0.0062255859375
-0.0172119140625
0.0087890625
-0.021240234375
0.0238037109375
-0.018310546875
-0.0025634765625
0.0025634765625
-0.0076904296875
0.0062255859375
0.0047607421875
-0.015380859375
0.0087890625
-0.01318359375
0.005859375
-0.0054931640625
-0.0029296875
-0.0054931640625
-0.0062255859375
-0.0128173828125
0.002197265625
-0.019775390625
0.0142822265625
-0.015380859375
0.0062255859375
-0.01025390625
0.00439453125
-0.008056640625
0.01318359375
-0.00439453125
0.0032958984375
-0.0040283203125
-0.000732421875
-0.006591796875
0.00732421875
-0.0084228515625
0.008056640625
-0.005859375
-0.0018310546875
-0.0054931640625
-0.003662109375
-0.013916015625
0.0311279296875
-0.021240234375
0.0128173828125
0.0062255859375
-0.0150146484375
0.016845703125
0.0032958984375
-0.0047607421875
0.00732421875
-0.00439453125
0.005859375
-0.0003662109375
-0.000732421875
0.000732421875
-0.00439453125
-0.0047607421875
0.000732421875
-0.0106201171875
0.0128173828125
-0.008056640625
0.0113525390625
-0.0025634765625
0.0032958984375
-0.00439453125
0.0135498046875
-0.0029296875
0.0098876953125
0.0003662109375
-0.0003662109375
-0.0029296875
0.0054931640625
-0.005126953125
0.005126953125
-0.003662109375
-0.00439453125
-0.002197265625
-0.00146484375
-0.0164794921875
0.048370361328125
-0.022705078125
0.004425048828125
0.01318359375
-0.037353515625
0.0223388671875
0.0069580078125
-0.0018310546875
0.0087890625
-0.0018310546875
0.00439453125
0.0018310546875
-0.0018310546875
0.0025634765625
-0.0062255859375
0.0010986328125
-0.0047607421875
-0.0076904296875
0.008056640625
-0.00732421875
0.0091552734375
-0.000732421875
-0.000732421875
-0.0003662109375
0.0076904296875
0.0018310546875
0.005126953125
0.000732421875
-0.00146484375
0.0
0.003662109375
0.0010986328125
0.000732421875
0.0010986328125
-0.005126953125
0.000732421875
-0.00146484375
-0.0150146484375
0.053466796875
-0.017578125
-0.006591796875
0.016845703125
-0.053466796875
0.024169921875
0.0084228515625
0.0029296875
0.0084228515625
-0.00146484375
0.005859375
0.0018310546875
-0.00146484375
0.0047607421875
-0.0091552734375
0.00146484375
-0.0084228515625
-0.0062255859375
0.005126953125
-0.0062255859375
0.01025390625
-0.00146484375
-0.00146484375
0.00146484375
0.0003662109375
0.0003662109375
0.005859375
-0.000732421875
0.0010986328125
-0.0003662109375
0.0018310546875
0.0010986328125
0.0018310546875
0.0003662109375
-0.0003662109375
-0.00146484375
-0.0025634765625
-0.01025390625
0.0322265625
-0.010986328125
0.0032958984375
0.0062255859375
-0.037353515625
0.018310546875
-0.000732421875
0.012451171875
0.0047607421875
0.0003662109375
0.000732421875
0.002197265625
-0.00146484375
0.005126953125
-0.0076904296875
0.0040283203125
-0.009521484375
-0.0032958984375
-0.0003662109375
-0.0076904296875
0.0091552734375
-0.000732421875
-0.000732421875
0.0018310546875
-0.002197265625
-0.0003662109375
0.008056640625
0.0010986328125
0.000732421875
0.000732421875
-0.00146484375
-0.0003662109375
0.002197265625
0.000732421875
0.0003662109375
0.0018310546875
-0.008056640625
-0.002197265625
-0.00439453125
-0.005859375
0.0201416015625
-0.010986328125
0.0018310546875
0.01318359375
-0.013916015625
0.02197265625
0.0010986328125
-0.0029296875
0.0054931640625
0.00146484375
0.00146484375
0.0047607421875
-0.0054931640625
0.0029296875
-0.006591796875
-0.0018310546875
-0.000732421875
-0.00732421875
0.0091552734375
-0.002197265625
0.003662109375
0.00146484375
-0.0029296875
-0.000732421875
0.009521484375
0.0
0.00439453125
0.0029296875
-0.0062255859375
0.0010986328125
0.002197265625
0.000732421875
0.000732421875
0.002197265625
-0.0106201171875
-0.0010986328125
-0.00732421875
-0.01171875
0.0428466796875
-0.0179443359375
0.002197265625
0.0150146484375
-0.03662109375
0.024169921875
0.002197265625
-0.0010986328125
0.0032958984375
-0.0010986328125
0.0003662109375
0.0032958984375
-0.0076904296875
0.0029296875
-0.009521484375
-0.0025634765625
-0.0054931640625
-0.0084228515625
0.0047607421875
-0.005859375
0.005126953125
0.0010986328125
-0.0047607421875
0.0
0.0032958984375
-0.0010986328125
0.0047607421875
0.000732421875
-0.0032958984375
-0.0010986328125
0.00146484375
0.0
0.0003662109375
0.0003662109375
-0.005126953125
-0.000732421875
-0.003662109375
-0.0172119140625
0.052001953125
-0.0186767578125
-0.0069580078125
0.0157470703125
-0.0567626953125
0.021240234375
0.006591796875
0.00146484375
0.0054931640625
-0.00146484375
-0.0003662109375
0.0029296875
-0.003662109375
0.0018310546875
-0.006591796875
0.000732421875
-0.0091552734375
-0.0062255859375
0.002197265625
-0.0084228515625
0.010986328125
-0.0025634765625
-0.000732421875
-0.000732421875
-0.002197265625
-0.0003662109375
0.006591796875
-0.0003662109375
0.003662109375
0.0
-0.000732421875
-0.0025634765625
0.002197265625
-0.00146484375
0.00146484375
0.0003662109375
-0.005859375
-0.00732421875
0.012451171875
-0.010986328125
0.0135498046875
-0.0069580078125
-0.0146484375
0.0150146484375
-0.0091552734375
0.0172119140625
0.0025634765625
-0.00146484375
0.0018310546875
0.00146484375
-0.0029296875
0.00439453125
-0.0076904296875
0.002197265625
-0.0087890625
-0.0040283203125
-0.0029296875
-0.0076904296875
0.0076904296875
-0.0025634765625
0.0029296875
0.0010986328125
-0.0025634765625
-0.0010986328125
0.0084228515625
0.000732421875
0.00146484375
0.000732421875
-0.0047607421875
-0.0018310546875
0.0025634765625
-0.000732421875
-0.0010986328125
-0.0003662109375
-0.0098876953125
-0.0018310546875
-0.0084228515625
-0.0098876953125
0.0340576171875
-0.016845703125
0.003662109375
0.012451171875
-0.03076171875
0.0245361328125
-0.002197265625
-0.0003662109375
0.000732421875
-0.0018310546875
0.0
0.005126953125
-0.0091552734375
0.00439453125
-0.0106201171875
-0.00146484375
-0.00732421875
-0.0084228515625
0.003662109375
-0.0047607421875
0.0032958984375
0.0003662109375
-0.0062255859375
0.00146484375
0.0029296875
0.0010986328125
0.00439453125
0.0003662109375
-0.003662109375
0.002197265625
-0.0029296875
0.0003662109375
-0.0010986328125
0.0010986328125
-0.008453369140625
0.0
-0.006622314453125
-0.0146484375
0.049102783203125
-0.013916015625
-0.0120849609375
0.0201416015625
-0.059356689453125
0.0230712890625
0.00439453125
0.00146484375
0.005126953125
0.0
-0.0032958984375
0.002197265625
-0.0098876953125
0.0040283203125
-0.01318359375
0.000732421875
-0.0146484375
-0.00732421875
-0.0025634765625
-0.0069580078125
0.0018310546875
-0.0018310546875
-0.008056640625
0.0003662109375
-0.00732421875
-0.0010986328125
-0.00146484375
-0.000732421875
-0.0047607421875
0.0
-0.005859375
-0.0010986328125
-0.0032958984375
-0.0003662109375
-0.005859375
-0.0018310546875
-0.008056640625
-0.0106201171875
0.0223388671875
-0.012451171875
0.0025634765625
-0.0010986328125
-0.034423828125
0.0146484375
-0.0084228515625
0.01318359375
-0.00146484375
-0.000732421875
-0.0032958984375
0.0010986328125
-0.0062255859375
0.0029296875
-0.0128173828125
0.000732421875
-0.0113525390625
-0.005859375
-0.0029296875
-0.0098876953125
0.0040283203125
-0.0040283203125
-0.002197265625
-0.000732421875
-0.0054931640625
-0.0018310546875
0.006591796875
-0.0003662109375
0.0
0.0010986328125
-0.0091552734375
-0.0003662109375
-0.0032958984375
0.0
-0.0047607421875
0.000732421875
-0.0142822265625
-0.0032958984375
-0.010986328125
-0.0098876953125
0.029296875
-0.0157470703125
0.000732421875
0.0128173828125
-0.0303955078125
0.0216064453125
-0.000732421875
-0.00146484375
0.0
0.000732421875
-0.005126953125
0.0029296875
-0.0087890625
0.0047607421875
-0.0128173828125
-0.000732421875
-0.0087890625
-0.00732421875
0.003662109375
-0.005126953125
0.003662109375
0.0010986328125
-0.0040283203125
0.0010986328125
0.003662109375
0.0
0.0025634765625
0.0025634765625
-0.005126953125
0.0
-0.0010986328125
0.00146484375
-0.0029296875
0.002197265625
-0.009521484375
-0.0010986328125
-0.0040283203125
-0.0150146484375
0.0487060546875
-0.01611328125
-0.0106201171875
0.0172119140625
-0.05419921875
0.02197265625
0.0076904296875
0.00146484375
0.006591796875
-0.0003662109375
-0.0003662109375
0.0040283203125
-0.0032958984375
0.005126953125
-0.00732421875
0.002197265625
-0.0098876953125
-0.005126953125
0.0032958984375
-0.0054931640625
0.0098876953125
0.000732421875
-0.0029296875
0.0018310546875
-0.003662109375
0.000732421875
0.00439453125
-0.0018310546875
0.003662109375
-0.000732421875
0.0010986328125
0.0
0.0
0.0
-0.00146484375
-0.000732421875
-0.0047607421875
-0.01025390625
0.022705078125
-0.010986328125
0.00732421875
-0.0010986328125
-0.028564453125
0.0157470703125
-0.005859375
0.0135498046875
0.0047607421875
-0.00146484375
0.00146484375
0.0010986328125
-0.002197265625
0.0032958984375
-0.0062255859375
0.002197265625
-0.0069580078125
-0.003662109375
-0.00146484375
-0.008056640625
0.0076904296875
-0.0047607421875
0.0025634765625
0.0010986328125
-0.00146484375
0.0018310546875
0.008056640625
0.0
0.0029296875
0.0003662109375
-0.0025634765625
0.0
0.0025634765625
0.0003662109375
-0.0003662109375
0.0010986328125
-0.009521484375
-0.0029296875
-0.0054931640625
-0.0120849609375
0.0369873046875
-0.0164794921875
0.005859375
0.0135498046875
-0.029296875
0.0216064453125
0.00146484375
-0.0010986328125
0.003662109375
0.0
0.0
0.0029296875
-0.005859375
0.0029296875
-0.0087890625
-0.00146484375
-0.0047607421875
-0.0087890625
0.0076904296875
-0.0054931640625
0.006591796875
0.0010986328125
-0.003662109375
-0.00146484375
0.005859375
0.0003662109375
0.005126953125
0.0010986328125
-0.002197265625
0.0
0.002197265625
0.0
0.000732421875
0.0
-0.0040283203125
0.0
-0.002197265625
-0.0179443359375
0.0523681640625
-0.017578125
-0.005859375
0.017578125
-0.0552978515625
0.0234375
0.006591796875
0.0029296875
0.006591796875
-0.00146484375
0.0010986328125
0.0025634765625
-0.00439453125
0.0032958984375
-0.008056640625
0.000732421875
-0.0076904296875
-0.0069580078125
0.0040283203125
-0.0069580078125
0.01025390625
-0.000732421875
-0.00146484375
0.0025634765625
-0.0018310546875
0.0003662109375
0.00439453125
-0.0010986328125
0.002197265625
0.0010986328125
0.0003662109375
0.0010986328125
0.0
0.002197265625
-0.0025634765625
0.0
-0.005126953125
-0.0076904296875
0.01611328125
-0.0106201171875
0.0106201171875
-0.0040283203125
-0.0205078125
0.0142822265625
-0.0076904296875
0.015380859375
0.005859375
-0.000732421875
0.0025634765625
0.0003662109375
-0.00146484375
0.00439453125
-0.0069580078125
0.0029296875
-0.009521484375
-0.003662109375
-0.00146484375
-0.0076904296875
0.009521484375
-0.0032958984375
0.0029296875
0.00146484375
-0.00439453125
-0.0003662109375
0.0091552734375
0.0
0.005859375
0.0010986328125
-0.0047607421875
-0.0003662109375
0.0025634765625
0.0
0.002197265625
0.0003662109375
-0.0084228515625
-0.0025634765625
-0.00439453125
-0.0120849609375
0.0443115234375
-0.0172119140625
-0.000732421875
0.0142822265625
-0.0384521484375
0.0234375
0.005126953125
-0.000732421875
0.0040283203125
0.0010986328125
0.000732421875
0.0029296875
-0.0040283203125
0.0032958984375
-0.0087890625
0.000732421875
-0.0069580078125
-0.0076904296875
0.0062255859375
-0.0062255859375
0.0091552734375
0.0003662109375
-0.0040283203125
0.0025634765625
-0.0003662109375
0.0003662109375
0.006591796875
0.0003662109375
0.00146484375
0.000732421875
0.0010986328125
0.0
0.0010986328125
0.0003662109375
-0.0003662109375
-0.00146484375
-0.0029296875
-0.01171875
0.03515625
-0.01171875
0.0003662109375
0.0062255859375
-0.0399169921875
0.0179443359375
0.00146484375
0.0106201171875
0.0047607421875
-0.000732421875
0.0010986328125
0.0018310546875
-0.0025634765625
0.0062255859375
-0.0076904296875
0.0018310546875
-0.0076904296875
-0.0054931640625
0.0
-0.00732421875
0.0098876953125
-0.002197265625
0.0032958984375
0.0010986328125
-0.00146484375
-0.00146484375
0.01025390625
0.0
0.0029296875
0.000732421875
-0.0032958984375
0.0
0.0010986328125
-0.000732421875
0.0
0.000732421875
-0.008056640625
-0.0010986328125
-0.0069580078125
-0.0113525390625
0.037353515625
-0.0172119140625
0.005859375
0.013916015625
-0.029296875
0.0234375
0.000732421875
-0.0018310546875
0.0029296875
0.0003662109375
-0.0003662109375
0.00439453125
-0.005859375
0.0032958984375
-0.0091552734375
-0.0025634765625
-0.005126953125
-0.0087890625
0.0084228515625
-0.005126953125
0.0084228515625
0.0
-0.0040283203125
0.0003662109375
0.0018310546875
-0.000732421875
0.006591796875
0.0
0.0
-0.0003662109375
0.0018310546875
-0.0010986328125
0.0018310546875
0.0
-0.0010986328125
-0.0003662109375
-0.003662109375
-0.013916015625
0.04248046875
-0.0146484375
-0.0010986328125
0.0106201171875
-0.046875
0.01904296875
0.0040283203125
0.0084228515625
0.005126953125
-0.0003662109375
0.0003662109375
0.0010986328125
-0.0029296875
0.005126953125
-0.0084228515625
0.0032958984375
-0.009521484375
-0.003662109375
0.0010986328125
-0.0069580078125
0.010986328125
-0.002197265625
0.0025634765625
0.00146484375
-0.0029296875
0.000732421875
0.0069580078125
0.0010986328125
0.0018310546875
0.002197265625
-0.0040283203125
0.0018310546875
0.000732421875
0.000732421875
-0.000732421875
0.0029296875
-0.01025390625
-0.0010986328125
-0.0069580078125
-0.01025390625
0.0303955078125
-0.0146484375
0.003662109375
0.0120849609375
-0.024169921875
0.021240234375
0.0010986328125
-0.0018310546875
0.003662109375
0.0
-0.000732421875
0.0029296875
-0.0047607421875
0.003662109375
-0.0087890625
-0.00146484375
-0.005126953125
-0.00732421875
0.0084228515625
-0.0040283203125
0.005859375
-0.0010986328125
-0.003662109375
0.0010986328125
0.0010986328125
0.0
0.00439453125
0.0
0.0003662109375
-0.0010986328125
0.002197265625
0.0
0.00146484375
0.000732421875
-0.00146484375
-0.0018310546875
-0.0025634765625
-0.0135498046875
0.0435791015625
-0.0135498046875
-0.003662109375
0.0106201171875
-0.0487060546875
0.01904296875
0.0054931640625
0.0084228515625
0.005859375
0.000732421875
-0.0010986328125
0.0032958984375
-0.0040283203125
0.003662109375
-0.0054931640625
0.0010986328125
-0.0069580078125
-0.005859375
0.0018310546875
-0.009521484375
0.010986328125
-0.002197265625
0.0018310546875
0.0018310546875
-0.0032958984375
0.0
0.0098876953125
0.000732421875
0.0040283203125
0.0003662109375
-0.0032958984375
-0.0010986328125
0.002197265625
0.0
0.0003662109375
0.0018310546875
-0.0087890625
-0.002197265625
-0.006591796875
-0.0113525390625
0.037353515625
-0.0157470703125
0.003662109375
0.01611328125
-0.031494140625
0.0245361328125
0.0003662109375
-0.0010986328125
0.0029296875
0.000732421875
-0.000732421875
0.003662109375
-0.005859375
0.0047607421875
-0.0091552734375
-0.0010986328125
-0.0054931640625
-0.0076904296875
0.0069580078125
-0.0040283203125
0.0084228515625
0.0010986328125
-0.0029296875
0.000732421875
0.0003662109375
0.0
0.005126953125
0.000732421875
0.0
-0.0010986328125
0.0025634765625
0.0
0.002197265625
0.0
-0.000732421875
-0.00146484375
-0.0040283203125
-0.0106201171875
0.028564453125
-0.012451171875
0.003662109375
0.002197265625
-0.03369140625
0.01611328125
-0.000732421875
0.01171875
0.0054931640625
-0.0018310546875
0.002197265625
0.000732421875
-0.00146484375
0.003662109375
-0.005859375
0.0010986328125
-0.008056640625
-0.0054931640625
0.0003662109375
-0.008056640625
0.010986328125
-0.0018310546875
0.002197265625
0.0003662109375
-0.0047607421875
-0.000732421875
0.0084228515625
0.000732421875
0.003662109375
0.0018310546875
-0.0054931640625
-0.0003662109375
0.00146484375
-0.000732421875
0.0
0.00146484375
-0.009521484375
-0.00146484375
-0.005126953125
-0.0135498046875
0.0439453125
-0.018310546875
-0.0025634765625
0.017578125
-0.043212890625
0.024169921875
0.003662109375
-0.000732421875
0.00439453125
0.000732421875
-0.000732421875
0.0029296875
-0.00439453125
0.0040283203125
-0.00732421875
-0.0003662109375
-0.006591796875
-0.0062255859375
0.005126953125
-0.0054931640625
0.0087890625
-0.0010986328125
-0.002197265625
-0.0003662109375
-0.000732421875
-0.000732421875
0.0062255859375
0.0
0.002197265625
-0.000732421875
0.0010986328125
0.0
0.0018310546875
-0.0010986328125
0.00146484375
-0.0018310546875
-0.0040283203125
-0.00732421875
0.01025390625
-0.01025390625
0.012451171875
-0.005859375
-0.0157470703125
0.013916015625
-0.009521484375
0.016845703125
0.0029296875
-0.0018310546875
0.000732421875
0.000732421875
-0.0025634765625
0.0032958984375
-0.0062255859375
0.002197265625
-0.0091552734375
-0.0032958984375
-0.0025634765625
-0.008056640625
0.009521484375
-0.0032958984375
0.005126953125
0.000732421875
-0.0040283203125
0.0003662109375
0.00439453125
-0.000732421875
0.0062255859375
0.0003662109375
0.0003662109375
0.0
0.000732421875
0.0
0.0010986328125
0.00146484375
-0.005126953125
-0.0003662109375
-0.0025634765625
-0.015380859375
0.0509033203125
-0.0186767578125
-0.00732421875
0.0157470703125
-0.05126953125
0.02197265625
0.0084228515625
-0.0003662109375
0.0076904296875
-0.00146484375
0.00146484375
0.000732421875
-0.002197265625
0.0003662109375
-0.006591796875
-0.0025634765625
-0.0054931640625
-0.01025390625
0.00732421875
-0.0098876953125
0.01171875
-0.0003662109375
-0.002197265625
0.0025634765625
-0.0040283203125
-0.0003662109375
0.0084228515625
0.000732421875
0.0025634765625
0.0003662109375
-0.002197265625
0.000732421875
0.0
0.0025634765625
-0.00146484375
0.0029296875
-0.01025390625
0.0
-0.008056640625
-0.00732421875
0.021240234375
-0.0113525390625
0.0
0.013916015625
-0.019775390625
0.0205078125
0.0
0.0
0.000732421875
0.000732421875
-0.0018310546875
0.0029296875
-0.003662109375
0.0040283203125
-0.009521484375
-0.0025634765625
-0.00439453125
-0.0087890625
0.0091552734375
-0.00439453125
0.0054931640625
-0.0003662109375
-0.0040283203125
0.0
0.0029296875
-0.0029296875
0.0087890625
-0.0029296875
0.0047607421875
-0.00146484375
0.0025634765625
0.0
-0.00146484375
0.00146484375
-0.0032958984375
0.0
0.000732421875
-0.0146484375
0.050537109375
-0.01611328125
-0.0040283203125
0.0157470703125
-0.05419921875
0.0216064453125
0.0032958984375
0.0047607421875
0.0069580078125
0.0003662109375
0.000732421875
0.002197265625
-0.005126953125
0.005126953125
-0.0098876953125
0.0010986328125
-0.0076904296875
-0.0062255859375
0.005126953125
-0.005859375
0.0113525390625
-0.0003662109375
0.0
0.0010986328125
-0.00439453125
-0.00146484375
0.0084228515625
-0.00146484375
0.003662109375
0.0
-0.002197265625
0.0
0.0047607421875
0.0
0.0
0.0010986328125
-0.01025390625
-0.003662109375
-0.0054931640625
-0.0098876953125
0.0263671875
-0.0146484375
0.003662109375
0.0120849609375
-0.0186767578125
0.02197265625
0.0040283203125
-0.000732421875
0.0032958984375
0.0003662109375
-0.00146484375
0.002197265625
-0.00439453125
0.003662109375
-0.008056640625
-0.0018310546875
-0.002197265625
-0.0087890625
0.0076904296875
-0.00439453125
0.003662109375
0.0
-0.0018310546875
-0.00146484375
0.00732421875
-0.000732421875
0.005859375
0.0018310546875
-0.0018310546875
-0.000732421875
0.002197265625
0.0010986328125
-0.0003662109375
0.000732421875
-0.005859375
-0.0025634765625
-0.002197265625
-0.0164794921875
0.05419921875
-0.0172119140625
-0.006591796875
0.018310546875
-0.05712890625
0.02197265625
0.0091552734375
0.0018310546875
0.0084228515625
-0.000732421875
0.0
0.0040283203125
-0.0054931640625
0.0062255859375
-0.0098876953125
0.002197265625
-0.0091552734375
-0.0054931640625
0.002197265625
-0.0076904296875
0.0106201171875
-0.0003662109375
-0.00146484375
0.000732421875
-0.000732421875
0.00146484375
0.005859375
0.0018310546875
0.000732421875
0.0003662109375
0.000732421875
-0.0003662109375
0.00146484375
-0.000732421875
-0.000732421875
0.00146484375
-0.0091552734375
-0.005126953125
0.0029296875
-0.0098876953125
0.0194091796875
-0.0087890625
-0.0047607421875
0.0146484375
-0.013916015625
0.0205078125
0.0
0.0
0.002197265625
0.002197265625
-0.0018310546875
0.0047607421875
-0.0084228515625
0.0047607421875
-0.0120849609375
-0.00146484375
-0.0032958984375
-0.00732421875
0.0098876953125
-0.0029296875
0.0029296875
0.000732421875
-0.0029296875
-0.000732421875
0.00732421875
0.0
0.0029296875
0.002197265625
-0.0040283203125
-0.0010986328125
0.0010986328125
0.0010986328125
-0.0003662109375
0.003662109375
-0.0069580078125
0.0003662109375
-0.005126953125
-0.01611328125
0.0501708984375
-0.0186767578125
-0.003662109375
0.0216064453125
-0.0531005859375
0.025634765625
0.005126953125
0.002197265625
0.0040283203125
0.0010986328125
-0.0010986328125
0.0040283203125
-0.0047607421875
0.006591796875
-0.0120849609375
0.002197265625
-0.0098876953125
-0.0054931640625
0.0047607421875
-0.0047607421875
0.00732421875
0.0003662109375
-0.0032958984375
-0.000732421875
0.0010986328125
0.0
0.0054931640625
-0.0003662109375
0.000732421875
0.000732421875
-0.0010986328125
0.00146484375
0.0
0.0010986328125
-0.0018310546875
0.0003662109375
-0.006591796875
-0.009521484375
0.02197265625
-0.009521484375
0.0076904296875
-0.0010986328125
-0.0296630859375
0.015380859375
-0.0062255859375
0.0157470703125
0.005859375
0.0
0.0010986328125
0.0010986328125
-0.002197265625
0.00439453125
-0.006591796875
0.00439453125
-0.0091552734375
-0.0032958984375
-0.0010986328125
-0.00732421875
0.0091552734375
-0.0029296875
0.00439453125
0.0025634765625
-0.005126953125
0.0
0.0069580078125
-0.000732421875
0.005859375
0.002197265625
-0.0047607421875
0.0
0.0018310546875
0.0010986328125
0.0
0.0010986328125
-0.0076904296875
0.0
-0.0047607421875
-0.01318359375
0.046142578125
-0.0179443359375
-0.00146484375
0.0172119140625
-0.0435791015625
0.0234375
0.0062255859375
0.00146484375
0.0047607421875
-0.0010986328125
0.000732421875
0.0018310546875
-0.00439453125
0.0047607421875
-0.0087890625
0.0
-0.0062255859375
-0.0069580078125
0.005859375
-0.0054931640625
0.0091552734375
0.0003662109375
-0.003662109375
0.000732421875
0.000732421875
0.0
0.0062255859375
-0.00146484375
0.00146484375
-0.000732421875
0.0018310546875
0.0003662109375
0.00146484375
-0.0003662109375
0.000732421875
-0.0010986328125
-0.0029296875
-0.0091552734375
0.0223388671875
-0.0120849609375
0.01025390625
-0.0025634765625
-0.0252685546875
0.0179443359375
-0.006591796875
0.0157470703125
0.005126953125
-0.000732421875
0.0018310546875
0.0010986328125
-0.002197265625
0.003662109375
-0.00732421875
0.0032958984375
-0.009521484375
-0.0054931640625
0.000732421875
-0.009521484375
0.01171875
-0.0040283203125
0.0047607421875
0.0
-0.0032958984375
-0.002197265625
0.00732421875
-0.0025634765625
0.005126953125
-0.00146484375
-0.0029296875
-0.002197265625
0.00146484375
0.0
0.0003662109375
-0.0003662109375
-0.0047607421875
-0.00146484375
-0.0029296875
-0.016845703125
0.0498046875
-0.019775390625
-0.0025634765625
0.0179443359375
-0.04833984375
0.0238037109375
0.0047607421875
0.0010986328125
0.0025634765625
-0.00146484375
0.000732421875
0.0025634765625
-0.0032958984375
0.0040283203125
-0.009521484375
0.0003662109375
-0.006591796875
-0.00732421875
0.0054931640625
-0.0062255859375
0.0098876953125
-0.00146484375
-0.000732421875
-0.0003662109375
0.0
0.00146484375
0.0040283203125
-0.002197265625
0.0018310546875
-0.002197265625
0.0018310546875
-0.000732421875
0.0010986328125
-0.0003662109375
0.0018310546875
0.0003662109375
-0.0069580078125
-0.005859375
0.0084228515625
-0.0091552734375
0.01318359375
-0.0069580078125
-0.01318359375
0.0150146484375
-0.0087890625
0.017578125
0.0029296875
-0.0003662109375
0.002197265625
0.0010986328125
-0.0018310546875
0.003662109375
-0.0076904296875
0.0040283203125
-0.0091552734375
-0.00439453125
-0.0003662109375
-0.009521484375
0.0091552734375
-0.0062255859375
0.005126953125
-0.000732421875
-0.0054931640625
-0.000732421875
0.0040283203125
-0.0010986328125
0.008056640625
0.0
-0.000732421875
-0.00146484375
0.00146484375
0.0
0.0003662109375
0.0
-0.002197265625
-0.0010986328125
-0.000732421875
-0.0157470703125
0.0498046875
-0.0150146484375
-0.006591796875
0.0120849609375
-0.052734375
0.0194091796875
0.008056640625
0.006591796875
0.005859375
-0.002197265625
0.000732421875
0.000732421875
-0.00146484375
0.003662109375
-0.005126953125
0.0032958984375
-0.0091552734375
-0.005126953125
0.0003662109375
-0.0087890625
0.01025390625
-0.002197265625
0.0018310546875
0.00146484375
-0.0025634765625
0.0
0.0084228515625
-0.0010986328125
0.0040283203125
0.00146484375
-0.0040283203125
-0.0003662109375
0.0018310546875
-0.0010986328125
0.00146484375
0.00146484375
-0.0076904296875
-0.00146484375
-0.005126953125
-0.0128173828125
0.041015625
-0.017578125
0.0029296875
0.0150146484375
-0.0340576171875
0.022705078125
0.002197265625
0.000732421875
0.00146484375
-0.0003662109375
0.000732421875
0.0029296875
-0.003662109375
0.00439453125
-0.0098876953125
-0.00146484375
-0.0062255859375
-0.0076904296875
0.0076904296875
-0.005859375
0.0098876953125
0.0010986328125
-0.0029296875
0.000732421875
-0.00146484375
0.0
0.0062255859375
-0.0018310546875
0.0029296875
-0.0010986328125
0.00146484375
0.0018310546875
0.000732421875
0.0003662109375
0.0003662109375
0.000732421875
-0.00732421875
-0.005126953125
0.000732421875
-0.0113525390625
0.0201416015625
-0.01025390625
-0.0025634765625
0.015380859375
-0.0142822265625
0.0194091796875
0.000732421875
-0.00146484375
0.0025634765625
0.0010986328125
-0.00146484375
0.003662109375
-0.0069580078125
0.003662109375
-0.0106201171875
-0.0029296875
-0.0029296875
-0.00732421875
0.009521484375
-0.0032958984375
0.005859375
-0.000732421875
-0.0032958984375
0.0003662109375
0.002197265625
0.00146484375
0.00439453125
0.0
0.0
-0.00146484375
0.0029296875
0.0
0.00146484375
0.0
-0.0010986328125
-0.000732421875
-0.0025634765625
-0.0135498046875
0.040283203125
-0.0142822265625
-0.000732421875
0.009521484375
-0.0443115234375
0.0186767578125
0.0032958984375
0.0084228515625
0.005859375
-0.0010986328125
0.00146484375
0.00146484375
-0.003662109375
0.00439453125
-0.0087890625
0.002197265625
-0.0087890625
-0.0054931640625
0.0025634765625
-0.008056640625
0.01025390625
-0.0010986328125
0.0010986328125
0.00146484375
-0.005126953125
-0.000732421875
0.0069580078125
-0.000732421875
0.0054931640625
0.0010986328125
-0.005126953125
0.0003662109375
-0.0010986328125
0.0003662109375
0.0003662109375
0.000732421875
-0.005859375
-0.002197265625
-0.0029296875
-0.0142822265625
0.0479736328125
-0.0164794921875
-0.006591796875
0.016845703125
-0.047607421875
0.0230712890625
0.0091552734375
0.0
0.006591796875
0.0
0.0
0.0032958984375
-0.00439453125
0.003662109375
-0.0076904296875
-0.000732421875
-0.0062255859375
-0.006591796875
0.00439453125
-0.0069580078125
0.01025390625
-0.002197265625
-0.0010986328125
0.0010986328125
-0.0032958984375
-0.0003662109375
0.009521484375
-0.0003662109375
0.0029296875
0.000732421875
-0.0025634765625
0.000732421875
0.0025634765625
-0.000732421875
0.00146484375
0.0010986328125
-0.0087890625
-0.0018310546875
-0.0076904296875
-0.01025390625
0.0333251953125
-0.0146484375
0.0032958984375
0.0135498046875
-0.0252685546875
0.022705078125
0.00439453125
0.0
0.0025634765625
0.00146484375
0.0
0.003662109375
-0.0040283203125
0.005126953125
-0.0084228515625
0.00146484375
-0.0062255859375
-0.005859375
0.005859375
-0.003662109375
0.009521484375
0.0010986328125
-0.0018310546875
0.0029296875
-0.00146484375
0.00146484375
0.005126953125
0.0018310546875
0.00146484375
0.0018310546875
0.000732421875
0.0010986328125
0.002197265625
0.00146484375
0.0
0.000732421875
-0.0054931640625
-0.0040283203125
0.00732421875
-0.008056640625
0.015380859375
-0.0054931640625
-0.0087890625
0.0150146484375
-0.01171875
0.019775390625
0.000732421875
0.000732421875
0.000732421875
0.0
-0.002197265625
0.0032958984375
-0.0069580078125
0.0018310546875
-0.0091552734375
-0.003662109375
-0.0018310546875
-0.0076904296875
0.0106201171875
-0.003662109375
0.005859375
-0.002197265625
-0.005126953125
-0.0010986328125
0.0018310546875
0.000732421875
0.005126953125
-0.00146484375
0.000732421875
-0.0018310546875
0.0018310546875
-0.00146484375
0.0010986328125
0.0
-0.00146484375
-0.0018310546875
-0.0029296875
-0.0135498046875
0.0355224609375
-0.0128173828125
0.0010986328125
0.0054931640625
-0.038818359375
0.0186767578125
-0.00146484375
0.009521484375
0.0029296875
-0.00146484375
0.0
-0.000732421875
-0.002197265625
0.0025634765625
-0.006591796875
0.0025634765625
-0.0106201171875
-0.005859375
0.0010986328125
-0.008056640625
0.0113525390625
-0.0032958984375
0.0025634765625
0.0003662109375
-0.0047607421875
-0.00146484375
0.00732421875
-0.0010986328125
0.0040283203125
0.0010986328125
-0.0040283203125
0.0
0.0025634765625
0.0
0.0010986328125
0.0
-0.005859375
-0.000732421875
-0.002197265625
-0.0157470703125
0.0523681640625
-0.0172119140625
-0.006591796875
0.0186767578125
-0.0545654296875
0.024169921875
0.0069580078125
0.0032958984375
0.005859375
0.000732421875
-0.000732421875
0.0032958984375
-0.003662109375
0.00439453125
-0.0076904296875
0.0018310546875
-0.0087890625
-0.0054931640625
0.0032958984375
-0.0062255859375
0.0113525390625
-0.0018310546875
0.002197265625
0.00146484375
-0.00439453125
-0.000732421875
0.0076904296875
-0.000732421875
0.0054931640625
0.0010986328125
-0.0047607421875
-0.0010986328125
0.0018310546875
0.0
-0.000732421875
0.0
-0.009521484375
-0.0018310546875
-0.00439453125
-0.0135498046875
0.043212890625
-0.017578125
-0.000732421875
0.013916015625
-0.0391845703125
0.0208740234375
0.0047607421875
0.0
0.0032958984375
-0.0010986328125
0.0003662109375
0.002197265625
-0.003662109375
0.003662109375
-0.008056640625
0.0
-0.00732421875
-0.0076904296875
0.005126953125
-0.00732421875
0.0120849609375
-0.0018310546875
-0.0003662109375
0.0003662109375
-0.0032958984375
0.000732421875
0.0084228515625
-0.00146484375
0.0032958984375
0.0
-0.0025634765625
-0.000732421875
0.0018310546875
-0.000732421875
0.0003662109375
0.0018310546875
-0.0098876953125
-0.003662109375
-0.0069580078125
-0.0113525390625
0.0303955078125
-0.01611328125
0.006591796875
0.012451171875
-0.0223388671875
0.0208740234375
0.0003662109375
-0.000732421875
0.0018310546875
0.000732421875
-0.0003662109375
0.0032958984375
-0.005126953125
0.005126953125
-0.010986328125
-0.00146484375
-0.005126953125
-0.008056640625
0.008056640625
-0.005859375
0.0098876953125
-0.0010986328125
-0.002197265625
0.000732421875
-0.002197265625
0.0003662109375
0.0062255859375
0.0
0.002197265625
-0.0003662109375
0.0003662109375
0.0
0.00146484375
0.0
-0.000732421875
0.0003662109375
-0.0076904296875
-0.005859375
0.0018310546875
-0.0106201171875
0.0186767578125
-0.0084228515625
-0.003662109375
0.0146484375
-0.012451171875
0.0186767578125
0.0010986328125
-0.0003662109375
0.0
0.0025634765625
-0.002197265625
0.00439453125
-0.0062255859375
0.005126953125
-0.009521484375
-0.0010986328125
-0.00439453125
-0.00732421875
0.0091552734375
-0.0029296875
0.0076904296875
0.0
-0.0032958984375
0.002197265625
-0.0010986328125
0.0010986328125
0.0032958984375
-0.0003662109375
0.00146484375
0.0
0.00146484375
0.0010986328125
0.002197265625
0.000732421875
-0.0010986328125
-0.000732421875
-0.006591796875
-0.0062255859375
0.0128173828125
-0.0098876953125
0.012451171875
-0.0054931640625
-0.0164794921875
0.015380859375
-0.01025390625
0.0186767578125
0.0018310546875
-0.0003662109375
0.0018310546875
0.000732421875
-0.0010986328125
0.00439453125
-0.008056640625
0.002197265625
-0.01025390625
-0.0029296875
-0.0029296875
-0.0069580078125
0.0087890625
-0.003662109375
0.0084228515625
-0.0003662109375
-0.0040283203125
0.000732421875
-0.000732421875
0.0003662109375
0.0047607421875
-0.000732421875
0.0003662109375
-0.000732421875
0.0010986328125
-0.000732421875
0.00146484375
0.0
0.000732421875
-0.0018310546875
-0.0025634765625
-0.0087890625
0.02490234375
-0.0098876953125
0.0054931640625
-0.0010986328125
-0.0311279296875
0.0150146484375
-0.0047607421875
0.0135498046875
0.0047607421875
0.0003662109375
0.0
0.002197265625
-0.0025634765625
0.005126953125
-0.0069580078125
0.0029296875
-0.0091552734375
-0.00439453125
-0.000732421875
-0.008056640625
0.009521484375
-0.0040283203125
0.0069580078125
0.0003662109375
-0.006591796875
0.0
0.0
-0.0003662109375
0.006591796875
-0.0010986328125
0.00146484375
-0.0010986328125
0.0032958984375
-0.000732421875
0.000732421875
0.0
-0.00146484375
-0.00146484375
-0.000732421875
-0.0120849609375
0.0355224609375
-0.0113525390625
0.000732421875
0.003662109375
-0.037353515625
0.0172119140625
-0.0010986328125
0.01171875
0.0029296875
0.0003662109375
0.0003662109375
0.0010986328125
-0.0018310546875
0.0047607421875
-0.006591796875
0.0047607421875
-0.01025390625
-0.003662109375
-0.0010986328125
-0.005859375
0.009521484375
-0.0029296875
0.0062255859375
0.000732421875
-0.0054931640625
0.0025634765625
0.0
0.000732421875
0.008056640625
-0.0010986328125
0.0025634765625
-0.00146484375
0.0029296875
0.0
0.0010986328125
0.0
-0.0003662109375
-0.0010986328125
-0.00146484375
-0.01318359375
0.0362548828125
-0.012451171875
0.0018310546875
0.005126953125
-0.0406494140625
0.0164794921875
0.00146484375
0.010986328125
0.005126953125
-0.0003662109375
0.0
0.0018310546875
-0.002197265625
0.0032958984375
-0.0069580078125
0.002197265625
-0.009521484375
-0.00439453125
-0.0003662109375
-0.0084228515625
0.0106201171875
-0.003662109375
0.005859375
0.0
-0.005859375
0.000732421875
0.0003662109375
-0.0010986328125
0.006591796875
-0.000732421875
0.0010986328125
0.0
0.0018310546875
0.0003662109375
0.0
0.0
-0.0018310546875
-0.0018310546875
-0.0018310546875
-0.010986328125
0.03369140625
-0.01318359375
0.0032958984375
0.0047607421875
-0.038818359375
0.0186767578125
-0.002197265625
0.0113525390625
0.005126953125
0.000732421875
-0.000732421875
0.0018310546875
-0.002197265625
0.0040283203125
-0.00732421875
0.0025634765625
-0.01025390625
-0.0029296875
0.0003662109375
-0.006591796875
0.0098876953125
-0.002197265625
0.0040283203125
0.0010986328125
-0.005126953125
0.0003662109375
0.0010986328125
-0.0003662109375
0.0047607421875
0.0
0.000732421875
0.0003662109375
0.0018310546875
0.0
0.0010986328125
0.00146484375
0.0
0.0
-0.0025634765625
-0.01171875
0.0325927734375
-0.0135498046875
0.0040283203125
0.005126953125
-0.037353515625
0.019775390625
-0.0025634765625
0.01171875
0.003662109375
0.0
0.0
0.000732421875
-0.00146484375
0.00439453125
-0.008056640625
0.0029296875
-0.0106201171875
-0.0054931640625
0.0
-0.0087890625
0.010986328125
-0.003662109375
0.0069580078125
0.0003662109375
-0.0054931640625
0.0003662109375
0.0003662109375
0.0
0.005859375
-0.0010986328125
0.0
-0.0003662109375
0.0003662109375
-0.00146484375
0.000732421875
-0.00146484375
-0.0003662109375
-0.0010986328125
-0.0040283203125
-0.0113525390625
0.0281982421875
-0.01318359375
0.005859375
0.0003662109375
-0.032958984375
0.016845703125
-0.0040283203125
0.01318359375
0.003662109375
0.0
0.0003662109375
0.000732421875
-0.0025634765625
0.003662109375
-0.0087890625
0.0032958984375
-0.01025390625
-0.005126953125
0.000732421875
-0.0076904296875
0.0106201171875
-0.0032958984375
0.005126953125
0.0003662109375
-0.0062255859375
0.0
0.0003662109375
-0.0003662109375
0.0054931640625
-0.000732421875
0.000732421875
-0.0025634765625
0.0040283203125
0.0018310546875
0.000732421875
0.0003662109375
-0.002197265625
-0.0025634765625
-0.00439453125
-0.0091552734375
0.02490234375
-0.01025390625
0.0087890625
-0.002197265625
-0.03076171875
0.0146484375
-0.00439453125
0.0164794921875
0.0047607421875
0.0
-0.000732421875
0.0018310546875
-0.00146484375
0.00439453125
-0.008056640625
0.0032958984375
-0.0098876953125
-0.0029296875
-0.000732421875
-0.008056640625
0.009521484375
-0.00439453125
0.0062255859375
0.0
-0.0032958984375
0.0018310546875
0.0010986328125
0.0
0.006591796875
-0.000732421875
0.0018310546875
0.0
0.0010986328125
0.0003662109375
0.0018310546875
0.0
0.0003662109375
-0.0018310546875
-0.003662109375
-0.0087890625
0.019775390625
-0.01025390625
0.013916015625
-0.005126953125
-0.021240234375
0.0128173828125
-0.008056640625
0.016845703125
0.0032958984375
-0.0010986328125
0.0029296875
-0.0010986328125
0.000732421875
0.0040283203125
-0.00732421875
0.00439453125
-0.0106201171875
-0.00146484375
-0.0029296875
-0.008056640625
0.0098876953125
-0.003662109375
0.00732421875
-0.0003662109375
-0.003662109375
0.0018310546875
-0.0018310546875
0.002197265625
0.0054931640625
0.0003662109375
0.0029296875
0.0010986328125
0.0
0.0
0.000732421875
0.00146484375
-0.0010986328125
0.000732421875
-0.0054931640625
-0.0054931640625
0.0098876953125
-0.0076904296875
0.0146484375
-0.005859375
-0.01171875
0.0146484375
-0.0120849609375
0.0208740234375
0.0003662109375
0.0029296875
0.0003662109375
0.0003662109375
-0.0010986328125
0.0047607421875
-0.006591796875
0.00439453125
-0.01025390625
-0.0025634765625
-0.0032958984375
-0.0076904296875
0.009521484375
-0.0040283203125
0.008056640625
-0.0018310546875
-0.0025634765625
-0.0025634765625
0.0003662109375
0.00146484375
0.003662109375
-0.000732421875
0.0018310546875
-0.0010986328125
0.0025634765625
0.0
0.0010986328125
-0.000732421875
-0.000732421875
-0.000732421875
-0.0062255859375
-0.0062255859375
0.005126953125
-0.012451171875
0.0201416015625
-0.0106201171875
-0.005126953125
0.015380859375
-0.01611328125
0.018310546875
-0.000732421875
-0.00146484375
0.0018310546875
-0.0003662109375
-0.00146484375
0.00439453125
-0.0076904296875
0.00439453125
-0.01171875
-0.0032958984375
-0.003662109375
-0.0087890625
0.010986328125
-0.0054931640625
0.009521484375
0.0003662109375
-0.003662109375
0.000732421875
-0.002197265625
0.0010986328125
0.002197265625
0.000732421875
0.0003662109375
-0.00146484375
0.0025634765625
0.0
0.00146484375
0.0
-0.000732421875
0.0
-0.008056640625
-0.0062255859375
0.0032958984375
-0.012451171875
0.0216064453125
-0.0091552734375
-0.0040283203125
0.015380859375
-0.015380859375
0.019775390625
-0.0003662109375
-0.000732421875
0.002197265625
0.0
-0.000732421875
0.0032958984375
-0.006591796875
0.00439453125
-0.0113525390625
-0.0029296875
-0.0032958984375
-0.0076904296875
0.01025390625
-0.002197265625
0.0062255859375
-0.0003662109375
-0.0032958984375
0.0010986328125
0.000732421875
0.00146484375
0.005859375
0.0010986328125
0.0003662109375
0.000732421875
0.000732421875
0.0003662109375
0.0025634765625
0.000732421875
-0.0003662109375
0.0018310546875
-0.009521484375
-0.0029296875
0.00146484375
-0.0084228515625
0.0201416015625
-0.0087890625
-0.00439453125
0.0120849609375
-0.0120849609375
0.019775390625
0.0025634765625
0.0010986328125
0.000732421875
0.0010986328125
-0.00146484375
0.005126953125
-0.0054931640625
0.00439453125
-0.009521484375
-0.00146484375
-0.003662109375
-0.00732421875
0.010986328125
-0.00439453125
0.0084228515625
-0.0010986328125
-0.005126953125
0.0010986328125
-0.0025634765625
-0.0003662109375
0.0062255859375
-0.0025634765625
0.0029296875
-0.0003662109375
0.0
0.0
0.0
0.0
-0.000732421875
-0.00146484375
-0.0069580078125
-0.005859375
0.0018310546875
-0.01025390625
0.0205078125
-0.0106201171875
-0.00439453125
0.0120849609375
-0.013916015625
0.0179443359375
0.000732421875
-0.0003662109375
0.0
0.0003662109375
-0.000732421875
0.003662109375
-0.005859375
0.0018310546875
-0.009521484375
-0.002197265625
-0.0047607421875
-0.0076904296875
0.0076904296875
-0.0062255859375
0.0087890625
0.0
-0.0032958984375
0.0003662109375
-0.0003662109375
0.0
0.00732421875
-0.000732421875
0.0010986328125
-0.00146484375
0.0003662109375
-0.0003662109375
0.00146484375
0.000732421875
-0.0010986328125
0.0
-0.0087890625
-0.00439453125
0.0010986328125
-0.01025390625
0.02197265625
-0.012451171875
-0.0003662109375
0.01318359375
-0.0146484375
0.018310546875
0.0003662109375
-0.0010986328125
0.002197265625
-0.000732421875
-0.0003662109375
0.0025634765625
-0.0047607421875
0.005859375
-0.0106201171875
-0.0018310546875
-0.0040283203125
-0.0069580078125
0.0084228515625
-0.0025634765625
0.0076904296875
-0.0003662109375
-0.0025634765625
0.0003662109375
-0.00146484375
0.0010986328125
0.0040283203125
-0.0003662109375
0.000732421875
-0.0010986328125
0.0018310546875
-0.0003662109375
0.002197265625
-0.0003662109375
0.0003662109375
0.0010986328125
-0.0084228515625
-0.0054931640625
0.002197265625
-0.0113525390625
0.0208740234375
-0.009521484375
-0.00439453125
0.0142822265625
-0.013916015625
0.0186767578125
0.00146484375
-0.000732421875
0.0018310546875
0.002197265625
-0.0018310546875
0.0047607421875
-0.0069580078125
0.003662109375
-0.0106201171875
-0.003662109375
-0.0025634765625
-0.008056640625
0.0087890625
-0.0029296875
0.0054931640625
0.0
-0.0040283203125
0.0
-0.0010986328125
-0.000732421875
0.0069580078125
-0.0010986328125
0.00146484375
-0.000732421875
0.000732421875
-0.0003662109375
0.002197265625
-0.0010986328125
-0.0003662109375
0.0
-0.0087890625
-0.0040283203125
0.0
-0.010986328125
0.0201416015625
-0.010986328125
-0.0025634765625
0.0128173828125
-0.013916015625
0.0194091796875
0.000732421875
-0.0003662109375
0.002197265625
-0.0003662109375
-0.00146484375
0.0029296875
-0.005859375
0.0032958984375
-0.009521484375
-0.00146484375
-0.0047607421875
-0.0084228515625
0.009521484375
-0.0047607421875
0.008056640625
-0.0003662109375
-0.0029296875
0.0
-0.0003662109375
-0.00146484375
0.0062255859375
-0.0010986328125
0.0018310546875
0.0
-0.0003662109375
0.0
0.002197265625
0.0010986328125
-0.00146484375
-0.00146484375
-0.0069580078125
-0.005859375
0.00732421875
-0.009521484375
0.0179443359375
-0.008056640625
-0.0084228515625
0.013916015625
-0.0128173828125
0.017578125
0.0025634765625
0.0010986328125
0.0010986328125
0.0003662109375
-0.00146484375
0.0032958984375
-0.005859375
0.0047607421875
-0.009521484375
-0.002197265625
-0.0040283203125
-0.008056640625
0.0076904296875
-0.0047607421875
0.0084228515625
0.0
-0.002197265625
0.00146484375
-0.0018310546875
0.000732421875
0.0054931640625
-0.0010986328125
0.0029296875
0.00146484375
0.0
0.000732421875
0.000732421875
-0.000732421875
0.0
0.0
-0.0062255859375
-0.006591796875
0.0091552734375
-0.009521484375
0.0172119140625
-0.00732421875
-0.0106201171875
0.0142822265625
-0.01171875
0.017578125
0.002197265625
-0.0003662109375
0.00146484375
0.000732421875
-0.0018310546875
0.0032958984375
-0.0062255859375
0.003662109375
-0.0091552734375
-0.0040283203125
-0.002197265625
-0.0087890625
0.009521484375
-0.005126953125
0.0084228515625
-0.0003662109375
-0.003662109375
0.0003662109375
-0.0025634765625
0.0
0.005859375
-0.0003662109375
0.002197265625
-0.000732421875
0.0
0.0003662109375
0.00146484375
-0.000732421875
0.0010986328125
0.0003662109375
-0.0069580078125
-0.005859375
0.005126953125
-0.010986328125
0.018310546875
-0.0084228515625
-0.00732421875
0.01318359375
-0.0120849609375
0.0179443359375
0.00146484375
0.0
0.00146484375
0.0010986328125
-0.00146484375
0.0032958984375
-0.006591796875
0.005126953125
-0.01025390625
-0.0010986328125
-0.003662109375
-0.0076904296875
0.0098876953125
-0.0040283203125
0.0076904296875
0.0010986328125
-0.0047607421875
0.0029296875
-0.0025634765625
0.0018310546875
0.0047607421875
0.0
0.0018310546875
-0.0018310546875
0.0018310546875
0.0003662109375
0.000732421875
0.000732421875
-0.0018310546875
0.0
-0.006591796875
-0.00439453125
0.003662109375
-0.010986328125
0.019775390625
-0.0091552734375
-0.003662109375
0.015380859375
-0.0135498046875
0.0194091796875
0.0003662109375
-0.00146484375
0.000732421875
0.0003662109375
-0.0003662109375
0.005126953125
-0.006591796875
0.0047607421875
-0.010986328125
-0.0018310546875
-0.003662109375
-0.0084228515625
0.01025390625
-0.0032958984375
0.008056640625
-0.0003662109375
-0.0029296875
0.00146484375
-0.0003662109375
0.0010986328125
0.003662109375
-0.0010986328125
0.000732421875
-0.0003662109375
0.0010986328125
-0.00146484375
0.003662109375
0.002197265625
-0.0010986328125
-0.0010986328125
-0.006591796875
-0.00732421875
0.005859375
-0.0106201171875
0.0157470703125
-0.009521484375
-0.006591796875
0.015380859375
-0.0135498046875
0.018310546875
0.000732421875
-0.000732421875
0.002197265625
-0.0003662109375
-0.00146484375
0.0040283203125
-0.006591796875
0.0029296875
-0.01025390625
-0.0032958984375
-0.003662109375
-0.0084228515625
0.0087890625
-0.005126953125
0.0087890625
0.0003662109375
-0.0040283203125
0.0010986328125
-0.0029296875
-0.0003662109375
0.005859375
-0.0025634765625
0.0029296875
-0.0003662109375
0.00146484375
0.0
0.00146484375
-0.0010986328125
0.0003662109375
-0.0003662109375
-0.0076904296875
-0.005859375
0.006591796875
-0.0098876953125
0.0179443359375
-0.0087890625
-0.009521484375
0.0135498046875
-0.010986328125
0.018310546875
0.00439453125
0.002197265625
0.0003662109375
0.0040283203125
-0.0047607421875
0.0047607421875
-0.0062255859375
0.0040283203125
-0.0091552734375
-0.0029296875
-0.00439453125
-0.00732421875
0.0076904296875
-0.00439453125
0.0084228515625
0.0003662109375
-0.003662109375
0.000732421875
-0.00146484375
-0.0003662109375
0.0069580078125
0.0
0.0010986328125
0.0
-0.0003662109375
0.0003662109375
0.002197265625
-0.000732421875
0.00146484375
0.0003662109375
-0.0069580078125
-0.005126953125
0.00732421875
-0.009521484375
0.016845703125
-0.00732421875
-0.010986328125
0.013916015625
-0.0120849609375
0.018310546875
0.0018310546875
0.0003662109375
0.0010986328125
0.002197265625
-0.00146484375
0.0040283203125
-0.0062255859375
0.0047607421875
-0.010986328125
-0.00146484375
-0.003662109375
-0.00732421875
0.009521484375
-0.0040283203125
0.0084228515625
0.0
-0.0029296875
0.0018310546875
-0.0018310546875
-0.000732421875
0.006591796875
-0.0003662109375
0.0018310546875
0.0
0.0
-0.000732421875
0.00146484375
-0.0010986328125
0.0003662109375
-0.0010986328125
-0.0062255859375
-0.0047607421875
0.0062255859375
-0.0113525390625
0.0172119140625
-0.0084228515625
-0.009521484375
0.013916015625
-0.0113525390625
0.016845703125
0.0018310546875
-0.0003662109375
0.000732421875
0.0010986328125
-0.0010986328125
0.0040283203125
-0.005859375
0.0040283203125
-0.01025390625
-0.00146484375
-0.0047607421875
-0.008056640625
0.009521484375
-0.003662109375
0.0076904296875
0.0003662109375
-0.0032958984375
0.00146484375
-0.00146484375
0.0003662109375
0.00439453125
-0.00146484375
0.003662109375
-0.000732421875
0.00146484375
0.0
0.00146484375
0.0
-0.000732421875
-0.0018310546875
-0.00732421875
-0.005859375
0.0076904296875
-0.01025390625
0.01611328125
-0.008056640625
-0.01025390625
0.0135498046875
-0.0106201171875
0.0164794921875
0.0029296875
-0.000732421875
0.00146484375
0.0
-0.0010986328125
0.0040283203125
-0.00732421875
0.003662109375
-0.0106201171875
-0.0025634765625
-0.0032958984375
-0.0084228515625
0.0091552734375
-0.005126953125
0.0091552734375
0.0
-0.003662109375
0.000732421875
-0.0032958984375
0.000732421875
0.00439453125
-0.002197265625
0.0029296875
-0.000732421875
0.0010986328125
0.0003662109375
0.0003662109375
0.0
0.0003662109375
0.0
-0.008056640625
-0.0054931640625
0.0018310546875
-0.0087890625
0.0201416015625
-0.0106201171875
-0.003662109375
0.0120849609375
-0.01318359375
0.0179443359375
0.0010986328125
-0.0003662109375
0.0003662109375
0.0010986328125
-0.0003662109375
0.0029296875
-0.005859375
0.0032958984375
-0.0098876953125
-0.0018310546875
-0.0040283203125
-0.0076904296875
0.00732421875
-0.0062255859375
0.01025390625
-0.000732421875
-0.002197265625
0.000732421875
-0.002197265625
-0.0003662109375
0.0054931640625
-0.00146484375
0.0029296875
-0.002197265625
0.0029296875
0.0
0.000732421875
-0.0003662109375
-0.00146484375
0.0
-0.006591796875
-0.0047607421875
0.006591796875
-0.0098876953125
0.017578125
-0.0076904296875
-0.01025390625
0.013916015625
-0.01318359375
0.0179443359375
0.002197265625
0.000732421875
0.0
0.00146484375
-0.0010986328125
0.0029296875
-0.0054931640625
0.0040283203125
-0.0113525390625
-0.0029296875
-0.0029296875
-0.0076904296875
0.0091552734375
-0.00439453125
0.0084228515625
-0.000732421875
-0.0029296875
0.002197265625
-0.0025634765625
0.0
0.005859375
-0.0010986328125
0.0029296875
-0.0003662109375
0.0003662109375
-0.0003662109375
0.0010986328125
0.0
0.0010986328125
0.000732421875
-0.00732421875
-0.0047607421875
0.005126953125
-0.0113525390625
0.019775390625
-0.0084228515625
-0.008056640625
0.0142822265625
-0.0128173828125
0.018310546875
0.0025634765625
0.000732421875
0.0
0.0010986328125
-0.0010986328125
0.003662109375
-0.0054931640625
0.003662109375
-0.01025390625
-0.0010986328125
-0.0032958984375
-0.0069580078125
0.0091552734375
-0.003662109375
0.0087890625
0.0
-0.0029296875
0.000732421875
-0.002197265625
0.0
0.005126953125
0.0
0.0018310546875
0.0003662109375
0.00146484375
-0.0010986328125
0.002197265625
0.0003662109375
-0.000732421875
0.000732421875
-0.0069580078125
-0.005126953125
0.006591796875
-0.0120849609375
0.0179443359375
-0.0087890625
-0.0087890625
0.0150146484375
-0.01171875
0.017578125
0.0018310546875
0.000732421875
0.0
0.000732421875
-0.0003662109375
0.00439453125
-0.00732421875
0.0032958984375
-0.010986328125
-0.0032958984375
-0.00146484375
-0.0084228515625
0.01025390625
-0.00439453125
0.0076904296875
0.0
-0.0047607421875
-0.000732421875
-0.0010986328125
0.0010986328125
0.005126953125
0.0
0.0018310546875
-0.0010986328125
0.0025634765625
-0.0003662109375
0.0010986328125
0.0003662109375
-0.002197265625
0.0
-0.008056640625
-0.005126953125
0.0032958984375
-0.01025390625
0.018310546875
-0.01171875
-0.0040283203125
0.01318359375
-0.012451171875
0.0186767578125
0.00146484375
0.0
0.000732421875
0.000732421875
-0.0018310546875
0.0029296875
-0.00439453125
0.0032958984375
-0.0091552734375
-0.0029296875
-0.005126953125
-0.0062255859375
0.00732421875
-0.00439453125
0.0084228515625
0.0
-0.0029296875
0.00146484375
-0.002197265625
0.0
0.005859375
-0.0010986328125
0.0032958984375
-0.00146484375
0.0003662109375
0.0
0.000732421875
0.0003662109375
-0.0010986328125
0.0010986328125
-0.0076904296875
-0.0062255859375
0.005859375
-0.0113525390625
0.018310546875
-0.0098876953125
-0.0076904296875
0.0128173828125
-0.0128173828125
0.0186767578125
0.00146484375
0.0
0.0003662109375
0.002197265625
-0.0025634765625
0.0040283203125
-0.0062255859375
0.003662109375
-0.0091552734375
-0.002197265625
-0.00439453125
-0.00732421875
0.0084228515625
-0.005126953125
0.0091552734375
0.0
-0.003662109375
0.0018310546875
-0.0029296875
-0.0018310546875
0.0069580078125
-0.000732421875
0.00439453125
-0.000732421875
0.0003662109375
-0.002197265625
0.0018310546875
-0.0003662109375
0.0003662109375
0.0003662109375
-0.006591796875
-0.0040283203125
0.00439453125
-0.0091552734375
0.016845703125
-0.009521484375
-0.0062255859375
0.0128173828125
-0.0128173828125
0.0186767578125
0.000732421875
0.0010986328125
0.000732421875
0.002197265625
-0.0025634765625
0.003662109375
-0.0069580078125
0.0032958984375
-0.0087890625
-0.000732421875
-0.00439453125
-0.0076904296875
0.0087890625
-0.005126953125
0.0106201171875
-0.0010986328125
-0.0029296875
0.000732421875
-0.0025634765625
-0.0032958984375
0.0069580078125
-0.003662109375
0.0029296875
0.0010986328125
-0.000732421875
-0.0010986328125
0.0029296875
0.0003662109375
0.000732421875
0.0003662109375
-0.0076904296875
-0.0040283203125
0.0018310546875
-0.0098876953125
0.0194091796875
-0.0106201171875
-0.0025634765625
0.013916015625
-0.0135498046875
0.0186767578125
0.00146484375
0.0
0.000732421875
0.0010986328125
-0.0018310546875
0.0040283203125
-0.0062255859375
0.003662109375
-0.010986328125
-0.00146484375
-0.0040283203125
-0.008056640625
0.0098876953125
-0.005859375
0.0087890625
0.0003662109375
-0.0040283203125
0.00146484375
-0.0018310546875
0.0018310546875
0.0054931640625
0.0
0.0029296875
0.0
0.000732421875
0.0
-0.0003662109375
0.0003662109375
-0.0010986328125
0.002197265625
-0.0069580078125
-0.005859375
0.005126953125
-0.010986328125
0.017578125
-0.0084228515625
-0.00732421875
0.015380859375
-0.01171875
0.0186767578125
0.00146484375
0.0
0.0003662109375
0.0018310546875
-0.0010986328125
0.003662109375
-0.005859375
0.0040283203125
-0.010986328125
-0.00146484375
-0.0054931640625
-0.00732421875
0.009521484375
-0.00439453125
0.0087890625
0.0003662109375
-0.0047607421875
0.0010986328125
-0.0018310546875
0.0
0.005859375
-0.000732421875
0.0029296875
0.0003662109375
0.0010986328125
0.0010986328125
0.0
0.0003662109375
-0.000732421875
-0.000732421875
-0.0040283203125
-0.008056640625
0.0142822265625
-0.0106201171875
0.0120849609375
-0.005126953125
-0.0172119140625
0.0142822265625
-0.0087890625
0.01611328125
0.0032958984375
-0.0010986328125
0.00146484375
0.00146484375
-0.00146484375
0.0040283203125
-0.0062255859375
0.00439453125
-0.0113525390625
-0.0018310546875
-0.003662109375
-0.0084228515625
0.010986328125
-0.0032958984375
0.0076904296875
0.0010986328125
-0.00439453125
0.0010986328125
-0.0003662109375
-0.000732421875
0.0062255859375
0.0
0.0003662109375
-0.000732421875
0.0003662109375
-0.0010986328125
0.0018310546875
0.0
-0.0010986328125
-0.002197265625
-0.0018310546875
-0.0087890625
0.0234375
-0.0106201171875
0.0084228515625
-0.002197265625
-0.0281982421875
0.0146484375
-0.006591796875
0.0142822265625
0.005859375
0.0
0.0
0.000732421875
-0.0018310546875
0.003662109375
-0.0062255859375
0.00439453125
-0.0106201171875
-0.0032958984375
-0.0032958984375
-0.010986328125
0.012451171875
-0.003662109375
0.0076904296875
0.00146484375
-0.005859375
-0.0003662109375
0.0029296875
-0.00146484375
0.009521484375
-0.0025634765625
0.0032958984375
-0.0018310546875
0.0047607421875
0.0010986328125
0.005859375
0.0029296875
0.003662109375
0.0
0.00146484375
-0.0087890625
0.0340576171875
-0.0087890625
0.0098876953125
0.0018310546875
-0.029296875
0.0186767578125
-0.00146484375
0.017578125
0.0032958984375
0.0018310546875
0.0010986328125
0.0029296875
-0.0032958984375
0.008056640625
-0.010986328125
0.005859375
-0.01318359375
-0.0010986328125
-0.006591796875
-0.0047607421875
0.005859375
0.000732421875
0.0
0.005859375
-0.0128173828125
0.0025634765625
-0.0032958984375
0.00146484375
0.00146484375
-0.0003662109375
0.0010986328125
0.0
0.0025634765625
0.0010986328125
-0.002197265625
0.00146484375
-0.0040283203125
0.0
-0.005126953125
-0.01171875
0.0311279296875
-0.0091552734375
0.0010986328125
0.005126953125
-0.041748046875
0.016845703125
-0.0040283203125
0.01171875
0.0062255859375
-0.000732421875
0.0010986328125
0.00146484375
-0.0047607421875
0.00439453125
-0.01171875
0.0025634765625
-0.010986328125
-0.005859375
0.000732421875
-0.0076904296875
0.009521484375
-0.003662109375
0.0047607421875
-0.000732421875
-0.005126953125
-0.0010986328125
0.000732421875
-0.0018310546875
0.005126953125
-0.0003662109375
0.0
-0.0018310546875
0.00146484375
-0.00146484375
0.0003662109375
-0.0010986328125
-0.00146484375
0.000732421875
-0.0054931640625
-0.0106201171875
0.0318603515625
0.0223388671875
0.0040283203125
0.0347900390625
-0.0322265625
