-0.748260498046875
-0.749359130859375
-0.748260498046875
-0.749725341796875
0.0
-0.0003662109375
0.0
0.0003662109375
-0.0003662109375
0.0
0.0
0.120513916015625
-0.0003662109375
0.52374267578125
-0.0003662109375
0.66583251953125
0.0003662109375
0.43511962890625
0.0003662109375
0.326690673828125
0.0003662109375
0.324493408203125
-0.0003662109375
0.348663330078125
-0.0003662109375
0.209136962890625
0.0
0.030426025390625
0.0
0.0
0.0003662109375
0.0
0.0003662109375
0.0
0.0
0.0
-0.0003662109375
0.0
-0.0003662109375
0.0
0.0
0.0
0.0003662109375
0.0
0.0003662109375
0.0
0.0
0.0
0.0
0.0
-0.0003662109375
0.0003662109375
-0.0003662109375
0.0
0.0003662109375
-0.0003662109375
0.0
0.0
0.0
0.0
0.0003662109375
0.0
-0.0003662109375
0.0
-0.0003662109375
0.0
0.0
0.0
0.0003662109375
0.0
0.0003662109375
-1.0
-0.0003662109375
-1.0
-0.0003662109375
1.0
0.0003662109375
1.0
0.0
0.1468505859375
0.0
-0.173980712890625
0.0
-0.1629638671875
-0.0003662109375
-0.02197265625
0.0
0.073974609375
0.0003662109375
0.09814453125
0.0003662109375
0.144317626953125
-0.0003662109375
0.097808837890625
-0.0003662109375
0.0
0.0
0.0
0.0
0.0
0.0003662109375
0.0
0.0
0.0
-0.0003662109375
0.0
0.0
0.0
0.0003662109375
0.0
0.0
0.0
0.0
0.0
0.0003662109375
0.0
-0.0003662109375
0.0
0.0
0.0
0.0
0.0
-0.0003662109375
0.0
0.0003662109375
0.0
0.0
0.0
0.0
0.0
0.0003662109375
0.0
0.0
0.0
0.0
0.0
-0.0003662109375
0.0
-0.0003662109375
0.0
0.0003662109375
0.0
0.0
0.0
-0.0003662109375
0.0
0.0
0.0
0.0003662109375
0.0
0.0003662109375
0.0
-0.0003662109375
0.0
0.0
0.0
0.0
0.0
-0.0003662109375
0.0
0.0003662109375
0.0
0.0003662109375
0.0
-0.0003662109375
0.0
0.0
0.0
0.0
0.0
-0.0003662109375
0.0
0.0003662109375
0.0
0.0003662109375
0.0
0.0
0.0
0.0
0.0
-0.0003662109375
0.0
0.0
-0.032989501953125
0.0
-0.45635986328125
-0.0003662109375
-0.449005126953125
0.0003662109375
0.0596923828125
0.0003662109375
-0.002197265625
0.0
-0.235504150390625
-0.0003662109375
-0.022705078125
-0.0003662109375
0.35198974609375
0.0003662109375
0.50762939453125
0.0003662109375
0.280181884765625
0.0
-0.000732421875
-0.0003662109375
0.0
-0.0003662109375
0.0
0.0003662109375
0.0
0.0
0.0
-0.0003662109375
0.0
0.0
0.0
0.0
0.0
0.0
0.0
0.0003662109375
0.0
0.0003662109375
0.0003662109375
-0.0003662109375
0.0
-0.0003662109375
-0.0003662109375
0.0
0.0
0.0
0.0
0.0003662109375
0.0
0.0003662109375
0.0
-0.0003662109375
0.0
-0.0003662109375
0.0
0.0
0.0
0.0
0.0
0.0
0.0
0.0
0.0
0.0
0.0
0.0
0.0003662109375
0.0003662109375
0.0
0.0
-0.0003662109375
-0.0003662109375
0.0
0.0003662109375
0.0
0.0
0.0
0.0
0.0
0.0003662109375
0.0
-0.0003662109375
-0.0003662109375
0.000732421875
-0.083160400390625
0.122711181640625
-0.202911376953125
0.179473876953125
-0.1812744140625
0.134033203125
-0.127105712890625
0.175079345703125
-0.160064697265625
0.173248291015625
-0.16552734375
0.106201171875
-0.1007080078125
0.0391845703125
-0.0428466796875
0.0069580078125
-0.0179443359375
0.0582275390625
-0.0333251953125
0.0911865234375
-0.159698486328125
-0.0648193359375
0.00146484375
-0.1138916015625
0.160430908203125
-0.0296630859375
0.03369140625
-0.024169921875
0.00732421875
-0.0263671875
0.009521484375
-0.0296630859375
0.009521484375
-0.0296630859375
0.0106201171875
-0.02197265625
0.0150146484375
-0.005859375
0.0238037109375
-0.01171875
0.0479736328125
-0.02197265625
0.032958984375
-0.019775390625
0.0062255859375
-0.02197265625
0.01171875
-0.025665283203125
0.01318359375
-0.031524658203125
0.0087890625
-0.032958984375
0.0076904296875
-0.0205078125
0.0091552734375
-0.0054931640625
-0.059326171875
-0.008056640625
-0.282745361328125
-0.0142822265625
-0.340606689453125
-0.0194091796875
-0.0208740234375
0.067779541015625
0.2303466796875
0.0267333984375
0.0472412109375
-0.138458251953125
0.022003173828125
-0.123046875
0.098175048828125
-0.0062255859375
-0.002197265625
0.0531005859375
0.0399169921875
0.0311279296875
0.0618896484375
0.018310546875
-0.065582275390625
0.0164794921875
-0.107696533203125
0.0325927734375
-0.013916015625
0.049072265625
0.0234375
0.03369140625
0.034088134765625
0.015380859375
0.041778564453125
0.0128173828125
0.0501708984375
0.0164794921875
0.0545654296875
0.0172119140625
0.0911865234375
0.010650634765625
0.1197509765625
-0.0003662109375
0.1109619140625
0.0
0.080596923828125
0.006256103515625
0.041778564453125
-0.000732421875
0.0260009765625
0.002197265625
0.0238037109375
0.00732421875
0.0234375
0.11865234375
-0.01171875
0.0391845703125
-0.120880126953125
-0.114990234375
0.0062255859375
-0.037353515625
0.094146728515625
0.0010986328125
-0.015380859375
0.002197265625
-0.021240234375
0.002197265625
-0.020538330078125
0.0
-0.010650634765625
-0.0040283203125
-0.002197265625
0.0076904296875
-0.0054931640625
0.0245361328125
-0.0106201171875
0.0157470703125
-0.0010986328125
0.003662109375
0.00732421875
0.0084228515625
-0.000732421875
0.0098876953125
-0.00146484375
0.0087890625
0.0010986328125
0.012451171875
-0.0054931640625
0.0091552734375
-0.0010986328125
0.0069580078125
-0.0032958984375
0.0069580078125
-0.01318359375
0.0032958984375
-0.009521484375
0.016845703125
-0.0087890625
0.030029296875
0.100006103515625
-0.006591796875
0.253082275390625
-0.05859375
-0.071075439453125
-0.031494140625
-0.266998291015625
0.0084228515625
-0.057861328125
-0.00146484375
-0.01171875
-0.00439453125
-0.0172119140625
-0.000732421875
-0.0421142578125
0.0018310546875
-0.0538330078125
0.00146484375
-0.0205078125
0.002197265625
0.0538330078125
0.005859375
0.094482421875
0.005126953125
0.0574951171875
0.000732421875
0.0091552734375
-0.00146484375
-0.002197265625
-0.0025634765625
-0.002197265625
-0.005859375
-0.01025390625
-0.003662109375
-0.0172119140625
-0.000732421875
-0.0201416015625
-0.0018310546875
-0.02197265625
0.00439453125
-0.0267333984375
0.0087890625
-0.0267333984375
-0.0032958984375
-0.0157470703125
-0.00732421875
-0.005126953125
0.0421142578125
-0.015380859375
0.10986328125
-0.1376953125
-0.044677734375
-0.012451171875
-0.119384765625
0.1461181640625
-0.0054931640625
0.0377197265625
0.006591796875
0.0054931640625
0.003662109375
0.0106201171875
-0.0047607421875
0.0135498046875
-0.0076904296875
0.012451171875
0.0018310546875
0.0069580078125
0.0150146484375
0.0018310546875
0.0087890625
0.0146484375
-0.005126953125
0.022705078125
-0.0054931640625
0.0172119140625
-0.0040283203125
0.0172119140625
-0.00732421875
0.0164794921875
-0.0029296875
0.012451171875
-0.0029296875
0.013580322265625
-0.0040283203125
0.008453369140625
0.002197265625
-0.0018310546875
-0.0003662109375
0.005126953125
-0.0084228515625
0.0128173828125
-0.0069580078125
0.0098876953125
0.0556640625
-0.015777587890625
0.0845947265625
-0.131500244140625
-0.06298828125
0.010284423828125
-0.099609375
0.151275634765625
-0.0098876953125
0.0311279296875
-0.0040283203125
0.0040283203125
-0.0062255859375
0.0025634765625
-0.005859375
-0.00146484375
-0.0032958984375
-0.0040283203125
0.00439453125
-0.0076904296875
0.0142822265625
-0.0076904296875
0.009521484375
0.0032958984375
-0.003662109375
0.01171875
-0.0040283203125
0.0098876953125
-0.0029296875
0.0106201171875
-0.0054931640625
0.0142822265625
-0.00146484375
0.010986328125
-0.002197265625
0.0106201171875
-0.0054931640625
0.01171875
0.0040283203125
0.00146484375
0.0098876953125
-0.0029296875
-0.000732421875
0.0040283203125
-0.0025634765625
0.003662109375
0.016845703125
-0.0003662109375
0.1453857421875
-0.116119384765625
-0.0113525390625
-0.0531005859375
-0.1519775390625
0.120880126953125
-0.0091552734375
0.06005859375
0.0040283203125
0.000732421875
0.0032958984375
-0.00146484375
-0.000732421875
0.0
-0.0029296875
-0.0003662109375
0.0010986328125
-0.003662109375
0.0146484375
-0.00732421875
0.01318359375
0.0003662109375
-0.0029296875
0.008056640625
-0.0040283203125
0.0032958984375
-0.0010986328125
0.000732421875
-0.0010986328125
0.0
0.0
0.0018310546875
-0.0003662109375
0.0025634765625
0.0003662109375
0.002197265625
0.005126953125
-0.0040283203125
0.0106201171875
-0.009521484375
0.00146484375
0.0025634765625
-0.002197265625
0.0029296875
0.008056640625
0.00439453125
0.1475830078125
-0.0413818359375
0.0234375
-0.096710205078125
-0.1343994140625
0.031494140625
-0.010986328125
0.081329345703125
0.0087890625
0.0010986328125
0.010986328125
-0.0076904296875
0.0087890625
-0.0084228515625
0.0025634765625
-0.003662109375
0.0025634765625
-0.003662109375
0.013916015625
-0.0040283203125
0.0205078125
0.0003662109375
0.0128173828125
0.00732421875
0.015380859375
-0.00146484375
0.0208740234375
-0.012451171875
0.01904296875
-0.0146484375
0.0164794921875
-0.0194091796875
0.01318359375
-0.016845703125
0.01171875
-0.008056640625
0.0106201171875
-0.005126953125
0.005859375
-0.0018310546875
-0.000732421875
0.0084228515625
-0.003662109375
0.0135498046875
0.0
0.010986328125
0.11572265625
-0.0281982421875
0.03955078125
-0.125274658203125
-0.111328125
0.015380859375
-0.0325927734375
0.105133056640625
0.00732421875
-0.00732421875
0.010986328125
-0.0135498046875
0.0091552734375
-0.01025390625
0.0106201171875
-0.013580322265625
0.0186767578125
-0.024932861328125
0.02490234375
-0.0267333984375
0.0296630859375
-0.02197265625
0.0120849609375
-0.0084228515625
-0.005126953125
0.0040283203125
-0.0098876953125
0.008056640625
-0.0098876953125
0.0084228515625
-0.0087890625
0.010986328125
-0.01171875
0.0098876953125
-0.0106201171875
0.0084228515625
-0.01318359375
0.0120849609375
-0.008056640625
0.002197265625
-0.0032958984375
-0.002197265625
-0.0084228515625
0.006591796875
-0.0087890625
0.0047607421875
0.012451171875
-0.0018310546875
0.158233642578125
-0.1182861328125
-0.0146484375
-0.0567626953125
-0.172515869140625
0.119384765625
-0.0194091796875
0.0626220703125
-0.0047607421875
-0.000732421875
-0.0040283203125
-0.0032958984375
-0.0032958984375
-0.0018310546875
-0.0047607421875
-0.0025634765625
0.0
-0.0069580078125
0.0164794921875
-0.013916015625
0.0164794921875
-0.01025390625
0.012451171875
-0.01171875
0.01171875
-0.0150146484375
0.0032958984375
-0.0087890625
-0.00146484375
-0.00732421875
-0.0032958984375
-0.0098876953125
-0.0032958984375
-0.010986328125
-0.0054931640625
-0.006591796875
-0.0010986328125
-0.0084228515625
0.0018310546875
-0.009521484375
-0.006591796875
-0.0018310546875
-0.0084228515625
0.0010986328125
0.000732421875
0.005859375
0.147979736328125
-0.0699462890625
-0.0003662109375
-0.0721435546875
-0.162261962890625
0.076171875
-0.0205078125
0.076171875
-0.002197265625
0.00146484375
-0.0003662109375
-0.0025634765625
-0.003662109375
0.0
-0.005859375
0.0010986328125
-0.0018310546875
-0.0025634765625
0.01025390625
-0.00439453125
0.0113525390625
-0.0010986328125
0.0
0.0010986328125
-0.0032958984375
-0.0010986328125
-0.0032958984375
-0.0010986328125
-0.008056640625
0.0029296875
-0.0087890625
0.003662109375
-0.0062255859375
-0.00146484375
-0.00439453125
0.0
0.0018310546875
-0.0029296875
0.005859375
-0.0128173828125
-0.00146484375
-0.003662109375
-0.00439453125
0.000732421875
0.00146484375
0.0003662109375
0.1285400390625
-0.03662109375
0.0135498046875
-0.0955810546875
-0.1358642578125
0.0347900390625
-0.0216064453125
0.091552734375
0.002197265625
-0.0018310546875
0.00146484375
-0.0040283203125
0.0010986328125
-0.0018310546875
-0.000732421875
-0.0018310546875
0.0
-0.0047607421875
0.0106201171875
-0.013916015625
0.0172119140625
-0.0164794921875
0.0087890625
-0.0084228515625
0.0029296875
-0.008056640625
0.0047607421875
-0.0106201171875
0.0047607421875
-0.0106201171875
0.006591796875
-0.0087890625
0.0047607421875
-0.0069580078125
0.0025634765625
-0.00732421875
0.002197265625
-0.0076904296875
0.0076904296875
-0.0120849609375
0.009521484375
-0.0098876953125
-0.000732421875
-0.0025634765625
-0.000732421875
-0.002197265625
0.0289306640625
-0.006591796875
0.1300048828125
-0.1395263671875
-0.027099609375
-0.024169921875
-0.1351318359375
0.148681640625
-0.0029296875
0.0377197265625
0.003662109375
-0.002197265625
0.003662109375
-0.0062255859375
0.0018310546875
-0.00439453125
-0.0003662109375
-0.0025634765625
0.0040283203125
-0.0040283203125
0.0164794921875
-0.006591796875
0.01611328125
-0.0003662109375
0.005859375
0.0025634765625
0.00732421875
-0.0084228515625
0.0069580078125
-0.010986328125
0.00732421875
-0.010986328125
0.0084228515625
-0.015380859375
0.002197265625
-0.0263671875
0.000732421875
0.028564453125
0.0831298828125
0.188232421875
0.104766845703125
0.0794677734375
-0.031494140625
-0.1787109375
-0.072540283203125
-0.199951171875
-0.00732421875
-0.111724853515625
0.0223388671875
-0.050201416015625
0.0172119140625
-0.0501708984375
0.0120849609375
-0.0582275390625
0.008056640625
-0.0439453125
0.0120849609375
0.0018310546875
0.035552978515625
0.027099609375
0.041412353515625
0.028564453125
0.0245361328125
0.025634765625
0.0150146484375
0.0010986328125
0.017578125
-0.0205078125
0.015380859375
-0.0238037109375
0.0128173828125
-0.02197265625
0.01025390625
-0.0142822265625
0.003662109375
-0.0062255859375
0.0040283203125
-0.0040283203125
0.0040283203125
-0.003662109375
0.0047607421875
-0.0040283203125
0.00146484375
0.0003662109375
-0.0032958984375
0.0076904296875
0.00146484375
0.0029296875
0.003662109375
-0.0018310546875
-0.005859375
0.003662109375
-0.006591796875
0.0040283203125
0.0091552734375
0.0018310546875
0.1483154296875
-0.087158203125
-0.006591796875
-0.049072265625
-0.1611328125
0.097412109375
-0.018310546875
0.0626220703125
-0.0047607421875
0.009521484375
-0.0062255859375
0.0087890625
-0.0087890625
0.01025390625
-0.010986328125
0.0128173828125
-0.0087890625
0.01025390625
0.0076904296875
0.000732421875
0.0186767578125
-0.0029296875
0.0054931640625
0.00439453125
-0.0047607421875
0.0062255859375
-0.00439453125
0.0054931640625
-0.0076904296875
0.0069580078125
-0.0062255859375
0.006591796875
-0.0040283203125
0.0069580078125
-0.00439453125
0.0098876953125
-0.0003662109375
0.003662109375
0.0054931640625
-0.0069580078125
-0.00146484375
-0.0025634765625
-0.0087890625
0.006591796875
-0.0062255859375
0.01171875
0.09521484375
-0.0120849609375
0.03076171875
-0.107666015625
-0.113525390625
0.02783203125
-0.046142578125
0.1190185546875
-0.000732421875
0.0054931640625
-0.0010986328125
0.00146484375
-0.002197265625
0.0
-0.0062255859375
0.0025634765625
-0.008453369140625
0.0025634765625
0.0018310546875
-0.0032958984375
0.017608642578125
-0.005126953125
0.008056640625
0.002197265625
-0.003662109375
0.00439453125
0.0010986328125
0.002197265625
-0.000732421875
0.0018310546875
-0.0025634765625
0.0018310546875
-0.000732421875
0.000732421875
-0.0018310546875
0.002197265625
-0.0032958984375
-0.000732421875
0.00439453125
-0.0076904296875
0.005859375
-0.0003662109375
-0.002197265625
0.0062255859375
-0.002197265625
0.002197265625
0.0684814453125
-0.027099609375
0.0882568359375
-0.145751953125
-0.0714111328125
0.0084228515625
-0.0955810546875
0.1475830078125
-0.00439453125
0.022705078125
0.0010986328125
0.0018310546875
0.00146484375
0.001861572265625
-0.0018310546875
0.004058837890625
-0.005126953125
0.0029296875
0.00146484375
-0.002197265625
0.018310546875
-0.010650634765625
0.0146484375
-0.008087158203125
0.0025634765625
-0.002197265625
0.0040283203125
-0.002197265625
0.00439453125
-0.0032958984375
0.0040283203125
-0.0032958984375
0.0047607421875
-0.0040283203125
0.005126953125
-0.003662109375
0.00146484375
-0.0025634765625
0.006591796875
-0.0098876953125
0.0069580078125
-0.0040283203125
-0.0018310546875
0.002197265625
-0.0010986328125
0.0010986328125
0.0552978515625
-0.019775390625
0.1116943359375
-0.14794921875
-0.052001953125
-0.00146484375
-0.1124267578125
0.15673828125
-0.0003662109375
0.034423828125
0.0146484375
-0.0029296875
0.03369140625
-0.0164794921875
0.0538330078125
-0.0333251953125
0.0703125
-0.052734375
0.049072265625
-0.04541015625
0.0318603515625
-0.0267333984375
0.029296875
-0.0128173828125
0.0135498046875
0.00439453125
-0.0003662109375
0.012451171875
-0.0098876953125
0.0135498046875
-0.0069580078125
0.0146484375
-0.003662109375
0.0146484375
-0.00439453125
0.0142822265625
-0.00146484375
0.0047607421875
0.009521484375
-0.0128173828125
0.0003662109375
-0.0106201171875
0.0062255859375
-0.0135498046875
0.0574951171875
-0.044677734375
0.116485595703125
-0.072509765625
0.0311279296875
-0.1402587890625
-0.139190673828125
0.0516357421875
-0.0655517578125
0.14208984375
0.0252685546875
-0.006591796875
-0.0054931640625
0.0018310546875
-0.0399169921875
0.0234375
-0.0758056640625
0.0498046875
-0.0501708984375
0.0413818359375
-0.015380859375
0.02197265625
0.0076904296875
0.0098876953125
-0.0029296875
0.01318359375
-0.010986328125
0.01025390625
-0.005859375
0.00439453125
-0.005126953125
0.0054931640625
0.0029296875
0.002197265625
0.0010986328125
0.0010986328125
0.0
0.0062255859375
-0.002197265625
0.005859375
-0.0029296875
-0.0029296875
0.0018310546875
-0.0010986328125
0.0029296875
0.000732421875
0.0062255859375
0.002197265625
0.12890625
-0.0289306640625
0.040283203125
-0.1234130859375
-0.14208984375
0.041748046875
-0.0589599609375
0.1380615234375
-0.018310546875
0.017242431640625
-0.01904296875
0.016510009765625
-0.0091552734375
0.0113525390625
-0.0135498046875
0.0098876953125
-0.0120849609375
0.0062255859375
0.0010986328125
-0.0025634765625
0.0040283203125
0.0018310546875
-0.0128173828125
0.021240234375
-0.0128173828125
0.022705078125
0.00146484375
0.012451171875
0.00146484375
0.005126953125
-0.0091552734375
0.008056640625
-0.012451171875
0.0128173828125
-0.0040283203125
0.009521484375
0.003662109375
-0.0003662109375
0.0040283203125
-0.005126953125
-0.0032958984375
0.0018310546875
0.0003662109375
-0.0029296875
0.0076904296875
0.003662109375
0.147216796875
-0.0333251953125
0.017578125
-0.091217041015625
-0.1475830078125
0.049072265625
-0.02197265625
0.105499267578125
-0.006591796875
0.01904296875
-0.006591796875
0.01611328125
-0.005859375
0.009521484375
-0.0087890625
0.005859375
-0.002197265625
-0.0010986328125
0.019775390625
-0.0098876953125
0.0296630859375
-0.00732421875
0.0311279296875
0.0003662109375
0.0263671875
0.00732421875
0.0025634765625
0.0230712890625
0.003662109375
0.0234375
0.03369140625
0.002197265625
0.0113525390625
0.002197265625
-0.0465087890625
0.0340576171875
-0.037353515625
0.0322265625
-0.0142822265625
0.0113525390625
-0.013916015625
0.0106201171875
-0.009521484375
0.0069580078125
0.0076904296875
0.0040283203125
0.16259765625
-0.1094970703125
0.0047607421875
-0.08349609375
-0.1593017578125
0.0867919921875
-0.0040283203125
0.046875
0.0201416015625
-0.0260009765625
0.019775390625
-0.030029296875
0.0172119140625
-0.0274658203125
0.0135498046875
-0.022705078125
0.013916015625
-0.0281982421875
0.029296875
-0.041015625
0.031494140625
-0.0439453125
0.010986328125
-0.0457763671875
-0.0010986328125
-0.055694580078125
-0.0029296875
-0.061187744140625
-0.0098876953125
-0.0615234375
-0.016845703125
-0.05859375
-0.0076904296875
-0.0443115234375
0.050537109375
0.143951416015625
0.1424560546875
0.1102294921875
0.031494140625
-0.151275634765625
-0.0897216796875
-0.1915283203125
-0.02783203125
-0.1175537109375
0.005859375
-0.0428466796875
0.01025390625
-0.0362548828125
0.006591796875
-0.044708251953125
0.0
-0.036285400390625
0.0003662109375
0.01025390625
0.03076171875
0.041412353515625
0.093017578125
0.011383056640625
0.159332275390625
-0.036651611328125
0.099273681640625
-0.043609619140625
0.00146484375
-0.0179443359375
-0.0428466796875
0.016845703125
-0.074005126953125
0.046539306640625
-0.013916015625
0.024566650390625
0.056060791015625
-0.018341064453125
0.101806640625
-0.051666259765625
0.010986328125
-0.01025390625
-0.0941162109375
0.050567626953125
-0.075103759765625
0.052398681640625
-0.085723876953125
0.062255859375
-0.062255859375
0.0498046875
-0.0303955078125
0.02783203125
-0.0318603515625
0.0274658203125
-0.02197265625
0.0201416015625
-0.0018310546875
0.0164794921875
0.138092041015625
-0.032958984375
-0.0025634765625
-0.06591796875
-0.141021728515625
0.046875
-0.0003662109375
0.0714111328125
0.0084228515625
0.00146484375
-0.0062255859375
0.008056640625
-0.0091552734375
0.0142822265625
-0.0010986328125
0.0120849609375
-0.00146484375
0.0113525390625
0.0062255859375
0.0040283203125
0.0150146484375
-0.0047607421875
0.0084228515625
-0.000732421875
-0.005859375
0.0062255859375
-0.0069580078125
0.01904296875
0.09814453125
-0.10546875
0.030029296875
-0.06005859375
-0.11279296875
0.097412109375
-0.043212890625
0.060791015625
0.0018310546875
0.0216064453125
-0.00732421875
-0.00146484375
-0.0128173828125
0.002197265625
-0.0194091796875
0.0091552734375
-0.01318359375
0.0113525390625
0.0142822265625
0.002197265625
0.022705078125
-0.0069580078125
0.0091552734375
-0.0084228515625
-0.00439453125
-0.0025634765625
-0.005126953125
0.002197265625
-0.003662109375
0.0029296875
-0.006591796875
0.003662109375
-0.009521484375
0.0076904296875
-0.0062255859375
0.00732421875
-0.0018310546875
0.0047607421875
-0.0032958984375
0.005126953125
-0.003662109375
0.0069580078125
-0.003662109375
0.0054931640625
0.0
0.00146484375
-0.0040283203125
0.0047607421875
-0.002197265625
0.0
0.0032958984375
-0.009521484375
0.0025634765625
-0.0025634765625
-0.003662109375
0.002197265625
-0.006591796875
-0.0018310546875
0.065185546875
-0.0208740234375
0.0040283203125
-0.1402587890625
-0.1761474609375
-0.000732421875
-0.146514892578125
0.135498046875
-0.037750244140625
0.0157470703125
-0.0157470703125
0.0003662109375
-0.0208740234375
0.000732421875
-0.0157470703125
0.00146484375
-0.016845703125
0.0
-0.0216064453125
0.0
-0.0098876953125
-0.002197265625
-0.003662109375
-0.0029296875
-0.0186767578125
-0.00146484375
-0.02197265625
0.0
-0.0076904296875
0.0018310546875
0.00146484375
0.0018310546875
0.00146484375
0.0029296875
-0.0120849609375
0.0040283203125
-0.01904296875
0.0098876953125
-0.00439453125
0.00439453125
0.0120849609375
-0.0010986328125
0.0106201171875
0.01025390625
0.010986328125
0.01025390625
0.021240234375
0.008056640625
0.150909423828125
-0.0281982421875
0.0172119140625
-0.08056640625
-0.226715087890625
0.03662109375
-0.1519775390625
0.0889892578125
-0.0025634765625
0.0076904296875
0.0794677734375
0.00146484375
0.052001953125
0.0047607421875
-0.013916015625
-0.0113525390625
-0.223419189453125
-0.08935546875
-0.288604736328125
-0.290802001953125
-0.1688232421875
-0.068115234375
-0.0604248046875
0.216094970703125
-0.0384521484375
0.223052978515625
-0.108795166015625
0.392608642578125
-0.057159423828125
0.535430908203125
0.0
0.35638427734375
0.0
0.057159423828125
0.0
0.0
-0.0003662109375
0.0
0.0
0.0
0.0
0.0
0.0
0.0
0.0
0.0
0.0003662109375
0.0
0.0
0.0
0.0
0.0
0.0003662109375
0.0003662109375
0.0
0.0
-0.0003662109375
-0.0003662109375
-0.0003662109375
0.0
0.0003662109375
0.0
0.0
0.0
1.0
-1.0
1.0
-1.0
-0.0040283203125
0.000732421875
0.0
-0.0003662109375
0.0
-0.0003662109375
0.0
0.0
-0.0003662109375
0.0
0.0
0.0
0.0
0.0
0.0
0.0
0.0
0.0
0.0
0.0003662109375
0.0003662109375
0.0003662109375
0.0003662109375
-0.0003662109375
0.0
0.0
-0.0003662109375
0.0
-0.0003662109375
0.0
0.0
0.0003662109375
0.0
-0.0003662109375
0.0
0.0
0.0
0.0003662109375
0.0
0.0
0.0003662109375
-0.0003662109375
0.0
-0.0003662109375
-0.0003662109375
0.0003662109375
0.0
0.0
0.0
0.0
0.0
0.0003662109375
0.0
-0.0003662109375
0.0
-0.0003662109375
0.0
0.0
0.0
0.0003662109375
0.0
0.0003662109375
0.0003662109375
-0.0003662109375
0.0
-0.0003662109375
-0.0003662109375
0.0
0.0003662109375
0.0003662109375
0.0
0.0
-0.0003662109375
-0.0003662109375
0.0
0.0
0.0
0.0
0.0
0.0
0.0003662109375
0.0003662109375
0.0
0.0
-0.0003662109375
-0.0003662109375
0.0
0.0
0.0
0.0
0.0
0.000732421875
0.0
0.067413330078125
0.0
0.125640869140625
0.0
0.1171875
0.0
0.1087646484375
0.0
0.1116943359375
0.0
0.116119384765625
0.0
0.103668212890625
-0.025634765625
0.099609375
-0.110626220703125
0.08349609375
-0.162994384765625
0.0966796875
-0.15087890625
0.098876953125
-0.160064697265625
-0.0604248046875
-0.168853759765625
-0.1695556640625
-0.1483154296875
-0.0010986328125
-0.1168212890625
0.1380615234375
-0.0963134765625
0.09814453125
-0.092315673828125
0.061187744140625
-0.082794189453125
0.052764892578125
-0.0703125
0.052001953125
0.0567626953125
0.0260009765625
-0.02490234375
-0.0413818359375
-0.1754150390625
0.0823974609375
-0.0791015625
0.1446533203125
-0.03515625
0.0421142578125
-0.0340576171875
0.044677734375
-0.031494140625
0.0457763671875
-0.0084228515625
0.022705078125
0.0025634765625
0.008056640625
0.0091552734375
0.005126953125
0.0040283203125
0.019775390625
-0.01171875
0.032958984375
-0.0032958984375
0.018310546875
-0.0018310546875
0.01025390625
-0.006591796875
0.013214111328125
-0.00732421875
0.014678955078125
-0.005859375
0.01318359375
0.01025390625
-0.005889892578125
0.0150146484375
-0.015411376953125
0.01025390625
-0.01025390625
0.0135498046875
-0.012451171875
0.0146484375
-0.0146484375
0.009521484375
-0.0157470703125
-0.0010986328125
-0.002197265625
-0.0032958984375
0.002197265625
-0.0003662109375
0.0054931640625
0.1409912109375
-0.046142578125
0.0084228515625
-0.100341796875
-0.1431884765625
0.02783203125
-0.009521484375
0.0692138671875
0.0010986328125
-0.00439453125
-0.0076904296875
0.008056640625
-0.0084228515625
0.0106201171875
-0.00732421875
0.01025390625
-0.0106201171875
0.01171875
0.002197265625
0.00439453125
0.0087890625
0.0040283203125
-0.0047607421875
0.0146484375
-0.0113525390625
0.015380859375
-0.01318359375
0.027496337890625
0.1204833984375
-0.03955078125
0.0047607421875
-0.037017822265625
-0.1439208984375
0.071075439453125
-0.022705078125
0.057159423828125
-0.0062255859375
0.0179443359375
-0.007354736328125
0.0150146484375
-0.009185791015625
0.01611328125
-0.01171875
0.016845703125
-0.0076904296875
0.0135498046875
0.0076904296875
0.0084228515625
0.01025390625
0.013916015625
-0.0010986328125
0.019775390625
-0.0010986328125
0.0084228515625
-0.00439453125
0.0069580078125
-0.0087890625
0.0172119140625
-0.00439453125
0.017578125
0.093048095703125
-0.012451171875
0.021636962890625
-0.0904541015625
-0.112091064453125
0.0318603515625
-0.046905517578125
0.113525390625
-0.01171875
0.0150146484375
-0.01025390625
0.01025390625
-0.0084228515625
0.0091552734375
-0.010986328125
0.01025390625
-0.0091552734375
0.008056640625
0.006591796875
-0.003662109375
0.0087890625
-0.0025634765625
-0.0047607421875
0.0054931640625
-0.0091552734375
0.005859375
-0.00439453125
0.0062255859375
-0.0010986328125
0.0040283203125
0.000732421875
0.002197265625
0.0003662109375
0.0025634765625
0.002197265625
0.0
0.0029296875
0.0
0.0029296875
0.0010986328125
0.0032958984375
-0.0003662109375
0.00439453125
-0.00146484375
0.0047607421875
0.0003662109375
-0.0029296875
0.0029296875
-0.0025634765625
0.0032958984375
0.00439453125
-0.00146484375
0.006591796875
-0.0062255859375
0.003662109375
-0.0040283203125
0.000732421875
-0.003662109375
-0.003662109375
0.0029296875
-0.0040283203125
0.0010986328125
0.0025634765625
-0.0076904296875
-0.0010986328125
0.000732421875
-0.01171875
0.009521484375
-0.0135498046875
0.005859375
0.04541015625
-0.0135498046875
0.0677490234375
-0.1431884765625
-0.0706787109375
0.0076904296875
-0.0948486328125
0.15380859375
-0.0128173828125
0.0194091796875
-0.0120849609375
0.0025634765625
-0.010986328125
-0.0018310546875
-0.006591796875
-0.0062255859375
-0.012451171875
-0.0010986328125
-0.01171875
-0.000732421875
0.0142822265625
-0.0179443359375
0.0179443359375
-0.0113525390625
0.00146484375
0.0003662109375
-0.0054931640625
-0.0062255859375
-0.0062255859375
-0.0047607421875
-0.003662109375
-0.0076904296875
-0.0018310546875
-0.010986328125
-0.00146484375
-0.010986328125
-0.003662109375
-0.0146484375
-0.00146484375
-0.01025390625
-0.002197265625
-0.0076904296875
-0.0025634765625
-0.010986328125
0.003662109375
-0.0172119140625
0.00439453125
-0.019775390625
-0.0032958984375
-0.010986328125
-0.0047607421875
-0.00439453125
0.0029296875
-0.000732421875
0.132232666015625
-0.05859375
0.0010986328125
-0.081298828125
-0.144683837890625
0.0406494140625
-0.01025390625
0.05859375
0.0098876953125
-0.0120849609375
0.0091552734375
-0.0142822265625
0.00732421875
-0.01171875
0.0
-0.0098876953125
0.0054931640625
-0.012451171875
0.0205078125
-0.0216064453125
0.0289306640625
-0.02490234375
0.01904296875
-0.016845703125
0.0135498046875
-0.01171875
0.0142822265625
-0.0098876953125
0.010986328125
-0.009552001953125
0.015380859375
-0.019805908203125
0.0135498046875
-0.0234375
0.012451171875
-0.0172119140625
0.0135498046875
-0.008056640625
0.009521484375
0.0
0.005859375
0.00146484375
0.0084228515625
-0.0010986328125
0.01318359375
-0.006591796875
0.012451171875
-0.00732421875
0.0032958984375
0.003662109375
0.0010986328125
0.0029296875
0.028228759765625
-0.0113525390625
0.147979736328125
-0.1204833984375
-0.015380859375
-0.0362548828125
-0.146148681640625
0.12158203125
-0.004791259765625
0.0472412109375
0.003662109375
0.00439453125
0.003692626953125
0.0047607421875
0.006988525390625
-0.0289306640625
0.0069580078125
-0.046875
0.009521484375
-0.0010986328125
0.0223388671875
0.006591796875
0.024169921875
-0.009521484375
0.0091552734375
0.0010986328125
0.0029296875
0.002197265625
0.005859375
0.0
0.005859375
0.002197265625
0.00439453125
0.0047607421875
0.002197265625
0.00439453125
0.000732421875
0.0029296875
0.0029296875
0.0029296875
0.003662109375
0.00439453125
0.003662109375
0.006591796875
0.00146484375
0.006591796875
0.0047607421875
-0.000732421875
0.0025634765625
0.002197265625
-0.0054931640625
0.01318359375
-0.0003662109375
0.0113525390625
0.12744140625
-0.027099609375
0.0120849609375
-0.0853271484375
-0.13623046875
0.037353515625
-0.0223388671875
0.0977783203125
-0.003662109375
0.009521484375
-0.005126953125
0.0047607421875
-0.0032958984375
0.0029296875
-0.005126953125
0.0025634765625
-0.006591796875
0.0032958984375
0.0018310546875
-0.000732421875
0.0157470703125
-0.002197265625
0.0069580078125
0.00439453125
-0.002197265625
0.0054931640625
-0.0003662109375
0.0029296875
-0.002197265625
0.0029296875
-0.0018310546875
0.0032958984375
-0.0003662109375
0.0
0.002197265625
-0.000732421875
0.0003662109375
0.003662109375
-0.00146484375
0.0032958984375
0.0
0.000732421875
0.00732421875
-0.0062255859375
0.0062255859375
-0.0106201171875
-0.002197265625
-0.0018310546875
-0.0032958984375
0.0054931640625
-0.0025634765625
0.0054931640625
0.1036376953125
-0.0216064453125
0.024169921875
-0.0919189453125
-0.1124267578125
0.0252685546875
-0.0355224609375
0.0977783203125
-0.0032958984375
0.00439453125
-0.002197265625
-0.0018310546875
-0.003662109375
-0.0003662109375
-0.002197265625
0.0
-0.003662109375
-0.0025634765625
0.0025634765625
-0.00439453125
0.0128173828125
-0.0040283203125
0.0091552734375
0.0
-0.0003662109375
0.0010986328125
-0.0029296875
-0.0018310546875
-0.00146484375
-0.002197265625
-0.0010986328125
-0.0018310546875
0.000732421875
-0.002197265625
-0.00146484375
0.00146484375
-0.003662109375
0.0040283203125
-0.0029296875
0.0040283203125
-0.0025634765625
0.0018310546875
0.0062255859375
-0.009521484375
0.00732421875
-0.00732421875
-0.005126953125
0.005126953125
-0.0076904296875
0.0040283203125
0.0135498046875
-0.002197265625
0.129638671875
-0.1124267578125
-0.0164794921875
-0.0340576171875
-0.13916015625
0.11572265625
-0.0084228515625
0.0406494140625
-0.0010986328125
0.0
-0.000732421875
-0.000732421875
-0.0018310546875
0.0003662109375
-0.0062255859375
-0.0029296875
-0.0010986328125
-0.003662109375
0.01025390625
-0.0047607421875
0.01171875
-0.0025634765625
0.0010986328125
0.00439453125
-0.0029296875
0.0010986328125
-0.0018310546875
-0.0010986328125
-0.0029296875
-0.0003662109375
-0.000732421875
-0.002197265625
0.0
-0.0047607421875
-0.000732421875
-0.003662109375
-0.00146484375
-0.00146484375
-0.0018310546875
-0.0003662109375
0.005859375
-0.00732421875
0.00439453125
-0.0062255859375
-0.0062255859375
0.0018310546875
-0.008056640625
0.0003662109375
0.005859375
0.0018310546875
0.141357421875
-0.1058349609375
-0.017578125
-0.052001953125
-0.160400390625
0.103271484375
-0.017242431640625
0.0494384765625
-0.012481689453125
-0.0018310546875
-0.0135498046875
-0.005859375
-0.0098876953125
-0.00439453125
-0.012451171875
-0.0025634765625
-0.013916015625
-0.0025634765625
0.0040283203125
-0.0106201171875
0.013916015625
-0.0084228515625
0.0029296875
0.0
-0.003662109375
0.0003662109375
-0.002197265625
-0.0032958984375
-0.002197265625
-0.003662109375
-0.0029296875
-0.0029296875
-0.005126953125
-0.0069580078125
-0.002197265625
-0.0084228515625
-0.000732421875
-0.0040283203125
-0.00439453125
0.00146484375
0.000732421875
-0.01025390625
0.00439453125
-0.0128173828125
-0.0018310546875
-0.000732421875
-0.0010986328125
-0.0040283203125
0.039947509765625
-0.0179443359375
0.138458251953125
-0.144287109375
-0.030059814453125
-0.0296630859375
-0.132965087890625
0.134765625
-0.0003662109375
0.0303955078125
0.00732421875
-0.0076904296875
0.0062255859375
-0.0084228515625
0.00146484375
-0.0054931640625
-0.00146484375
0.0
0.0
0.005126953125
0.019439697265625
-0.01171875
0.025299072265625
-0.016845703125
0.0091552734375
0.0003662109375
0.0054931640625
-0.0003662109375
0.0670166015625
-0.0208740234375
0.0721435546875
-0.0802001953125
-0.060791015625
0.0208740234375
-0.0684814453125
0.0849609375
0.003662109375
0.0054931640625
0.0029296875
0.006591796875
0.0
0.005859375
0.002197265625
0.00439453125
0.0010986328125
0.003662109375
0.01025390625
0.0018310546875
0.0245361328125
-0.000732421875
0.017578125
0.0018310546875
0.0069580078125
0.0029296875
0.0040283203125
0.0003662109375
0.003662109375
0.0010986328125
0.0032958984375
-0.0010986328125
0.0018310546875
-0.000732421875
0.0010986328125
0.0025634765625
0.00146484375
0.0040283203125
0.000732421875
0.0018310546875
-0.0003662109375
0.0018310546875
0.0025634765625
0.000732421875
0.0029296875
-0.00146484375
0.0010986328125
0.0003662109375
0.0
0.0010986328125
-0.000732421875
0.0018310546875
0.0
0.0018310546875
0.008056640625
-0.0032958984375
0.0091552734375
-0.0076904296875
0.0010986328125
-0.00146484375
-0.0032958984375
0.0047607421875
0.0010986328125
0.0087890625
0.1318359375
-0.032958984375
0.0025634765625
-0.072509765625
-0.1409912109375
0.0355224609375
-0.0172119140625
0.072509765625
-0.0010986328125
0.0062255859375
-0.00146484375
0.0032958984375
-0.0029296875
0.00146484375
-0.00439453125
0.0018310546875
-0.0069580078125
0.0029296875
0.0032958984375
-0.003662109375
0.0205078125
-0.0128173828125
0.015380859375
-0.0054931640625
-0.00146484375
0.0029296875
-0.0062255859375
0.0029296875
-0.0032958984375
0.0025634765625
-0.0010986328125
-0.0003662109375
-0.00146484375
0.0
-0.003662109375
0.0018310546875
0.0
0.00146484375
-0.0003662109375
0.002197265625
0.0018310546875
-0.002197265625
0.0040283203125
-0.00732421875
-0.0010986328125
0.000732421875
-0.0010986328125
0.0087890625
-0.002197265625
0.0069580078125
0.1072998046875
-0.0260009765625
0.0150146484375
-0.091552734375
-0.1146240234375
0.029296875
-0.0216064453125
0.094482421875
0.0010986328125
0.0029296875
0.0010986328125
0.000732421875
-0.002197265625
0.00146484375
-0.003662109375
0.00439453125
-0.002197265625
0.0032958984375
0.0087890625
-0.0069580078125
0.0150146484375
-0.0106201171875
0.0076904296875
-0.0018310546875
0.0
0.0029296875
-0.00146484375
0.0208740234375
0.1256103515625
-0.0472412109375
0.003662109375
-0.0611572265625
-0.129638671875
0.043212890625
-0.009521484375
0.0399169921875
-0.0018310546875
0.0040283203125
0.00146484375
-0.00146484375
-0.000732421875
-0.0032958984375
-0.008056640625
0.0010986328125
-0.0040283203125
-0.0010986328125
0.015380859375
-0.0069580078125
0.0157470703125
-0.0029296875
0.003662109375
0.000732421875
0.000732421875
-0.0003662109375
0.0010986328125
0.0003662109375
0.0025634765625
0.00146484375
0.0018310546875
0.000732421875
0.0025634765625
-0.002197265625
0.000732421875
0.000732421875
0.0003662109375
0.0025634765625
0.0
0.00146484375
0.000732421875
0.00146484375
0.002197265625
-0.0003662109375
0.00146484375
-0.0010986328125
0.0047607421875
-0.0018310546875
0.0029296875
-0.000732421875
0.0018310546875
0.0025634765625
0.0025634765625
-0.0032958984375
0.005859375
-0.009521484375
0.0018310546875
0.0010986328125
-0.00439453125
0.006591796875
-0.000732421875
0.008056640625
0.1168212890625
-0.0150146484375
0.0062255859375
-0.0794677734375
-0.1285400390625
0.0172119140625
-0.0172119140625
0.078369140625
-0.0029296875
0.005126953125
-0.005126953125
0.00146484375
-0.0069580078125
-0.0003662109375
-0.0076904296875
-0.0003662109375
-0.008056640625
0.0018310546875
-0.0032958984375
0.0018310546875
0.0186767578125
-0.0128173828125
0.01611328125
-0.0106201171875
-0.00439453125
0.003662109375
-0.0069580078125
0.0040283203125
-0.005126953125
0.0032958984375
-0.005126953125
0.000732421875
-0.0010986328125
-0.0018310546875
-0.000732421875
-0.00146484375
-0.0032958984375
0.002197265625
-0.003662109375
-0.0003662109375
-0.0018310546875
-0.0040283203125
0.0010986328125
-0.005859375
-0.0062255859375
0.0018310546875
-0.0087890625
0.0047607421875
0.002197265625
0.0062255859375
0.13037109375
-0.05419921875
-0.0032958984375
-0.0670166015625
-0.1417236328125
0.052734375
-0.012451171875
0.059326171875
-0.0018310546875
0.000732421875
-0.0040283203125
-0.0025634765625
-0.00732421875
-0.0003662109375
-0.009521484375
0.0003662109375
-0.00439453125
-0.00146484375
0.0091552734375
-0.008056640625
0.0135498046875
-0.0091552734375
0.0003662109375
0.0003662109375
-0.0018310546875
-0.0018310546875
0.0003662109375
-0.0032958984375
-0.003662109375
-0.0018310546875
0.0018310546875
-0.0025634765625
0.0047607421875
-0.0032958984375
0.005126953125
-0.006591796875
0.0234375
-0.0208740234375
0.0556640625
0.0435791015625
-0.0087890625
0.276519775390625
-0.142852783203125
0.095245361328125
-0.015380859375
-0.266998291015625
0.095611572265625
-0.193023681640625
0.017578125
-0.0582275390625
0.0054931640625
-0.024169921875
0.00732421875
-0.03662109375
0.012451171875
-0.0538330078125
0.017578125
-0.0498046875
0.0179443359375
0.003662109375
-0.0018310546875
0.088623046875
-0.0245361328125
0.107666015625
-0.0157470703125
0.0501708984375
0.0029296875
0.009521484375
0.0040283203125
-0.0003662109375
0.0076904296875
-0.005126953125
0.00732421875
-0.0047607421875
0.005859375
-0.003662109375
0.00439453125
-0.0047607421875
-0.000732421875
-0.0062255859375
0.000732421875
-0.005126953125
0.0018310546875
-0.0025634765625
0.0025634765625
0.000732421875
0.0
0.00439453125
0.0054931640625
-0.0029296875
0.009521484375
-0.0076904296875
-0.002197265625
0.00146484375
-0.0040283203125
0.0032958984375
0.0216064453125
-0.00732421875
0.1409912109375
-0.1171875
-0.0201416015625
-0.032958984375
-0.1453857421875
0.120849609375
-0.005859375
0.0435791015625
0.0
0.0
0.0
0.000732421875
-0.00146484375
0.002197265625
-0.0040283203125
0.0032958984375
-0.0047607421875
0.0040283203125
0.0164794921875
-0.00732421875
0.025634765625
-0.013916015625
0.0069580078125
-0.0010986328125
-0.0010986328125
0.0025634765625
-0.0010986328125
0.00146484375
0.0029296875
0.00146484375
0.0029296875
-0.0003662109375
-0.0003662109375
0.0003662109375
0.000732421875
0.0
-0.00146484375
0.0018310546875
0.0025634765625
-0.003662109375
0.0062255859375
-0.00439453125
-0.0025634765625
0.00439453125
-0.0029296875
0.002197265625
0.0172119140625
0.0003662109375
0.1431884765625
-0.1102294921875
-0.0142822265625
-0.0443115234375
-0.1490478515625
0.1182861328125
-0.006591796875
0.054931640625
0.000732421875
0.003662109375
-0.00146484375
0.0003662109375
-0.0010986328125
0.0010986328125
-0.00146484375
0.000732421875
-0.00146484375
-0.0003662109375
0.01318359375
-0.005859375
0.0157470703125
-0.0029296875
0.0003662109375
0.0062255859375
-0.0010986328125
0.0025634765625
-0.0003662109375
0.000732421875
-0.000732421875
0.0025634765625
0.0025634765625
0.0003662109375
0.000732421875
-0.0003662109375
-0.0003662109375
-0.0003662109375
0.0
0.00146484375
-0.0003662109375
-0.000732421875
0.002197265625
-0.006591796875
0.0025634765625
-0.000732421875
-0.0018310546875
0.005859375
-0.005859375
0.00732421875
0.0831298828125
-0.0267333984375
0.040283203125
-0.107666015625
-0.094482421875
0.0311279296875
-0.050537109375
0.1116943359375
-0.0029296875
0.0069580078125
-0.0010986328125
0.0025634765625
-0.0018310546875
0.0
-0.00146484375
0.0010986328125
-0.0032958984375
0.0010986328125
0.0040283203125
-0.003662109375
0.0142822265625
-0.005126953125
0.006591796875
0.000732421875
-0.0010986328125
0.0032958984375
-0.00146484375
0.0010986328125
-0.00146484375
0.000732421875
-0.000732421875
0.00146484375
-0.000732421875
0.0010986328125
-0.000732421875
0.0
-0.000732421875
-0.0010986328125
-0.000732421875
-0.00146484375
-0.00146484375
0.0032958984375
0.0029296875
-0.0018310546875
0.005126953125
-0.008056640625
-0.0040283203125
0.0029296875
-0.0047607421875
0.0040283203125
0.005126953125
0.0054931640625
0.1376953125
-0.046875
-0.0010986328125
-0.0699462890625
-0.147216796875
0.05126953125
-0.0128173828125
0.071044921875
0.00146484375
0.0018310546875
0.00146484375
-0.0018310546875
-0.000732421875
0.000732421875
-0.006591796875
0.00146484375
-0.0047607421875
-0.002197265625
0.0098876953125
-0.0087890625
0.0146484375
-0.0047607421875
0.0025634765625
0.003662109375
-0.003662109375
0.0025634765625
-0.000732421875
0.00146484375
-0.0003662109375
0.0010986328125
-0.0003662109375
0.0003662109375
0.0
0.0
0.0010986328125
-0.0010986328125
-0.00146484375
-0.000732421875
-0.002197265625
0.000732421875
0.0003662109375
-0.000732421875
0.005126953125
-0.00732421875
0.0062255859375
-0.00439453125
-0.0029296875
0.003662109375
-0.0029296875
0.002197265625
0.0443115234375
-0.0186767578125
0.0955810546875
-0.1402587890625
-0.047607421875
-0.0040283203125
-0.1036376953125
0.144287109375
-0.005126953125
0.0274658203125
-0.0018310546875
0.0003662109375
-0.000732421875
0.0
-0.0018310546875
0.0003662109375
-0.00439453125
-0.0010986328125
0.0003662109375
-0.0040283203125
0.01611328125
-0.0098876953125
0.01318359375
-0.00146484375
-0.000732421875
0.005859375
-0.0010986328125
0.0
-0.00146484375
0.0010986328125
-0.0003662109375
0.0010986328125
0.0003662109375
0.000732421875
0.000732421875
-0.000732421875
0.000732421875
-0.0029296875
-0.00146484375
-0.0010986328125
-0.003662109375
0.0029296875
0.0003662109375
-0.000732421875
0.006591796875
-0.01025390625
-0.0003662109375
-0.0029296875
-0.003662109375
0.006591796875
-0.0010986328125
0.006591796875
0.10400390625
-0.013916015625
0.0157470703125
-0.0882568359375
-0.1146240234375
0.018310546875
-0.0234375
0.0911865234375
0.0018310546875
0.00146484375
0.0
-0.000732421875
-0.0010986328125
-0.000732421875
-0.002197265625
0.0
-0.005859375
-0.00146484375
0.000732421875
-0.005126953125
0.012451171875
-0.0047607421875
0.0054931640625
0.0025634765625
-0.002197265625
0.005126953125
-0.000732421875
0.0025634765625
-0.000732421875
0.002197265625
-0.0025634765625
0.0018310546875
-0.0029296875
-0.0003662109375
0.00146484375
-0.0032958984375
0.0
-0.0010986328125
-0.00146484375
-0.000732421875
-0.0029296875
0.0
0.002197265625
-0.0032958984375
0.008056640625
-0.0069580078125
-0.000732421875
-0.0003662109375
-0.0047607421875
-0.0003662109375
0.0186767578125
-0.0054931640625
0.1387939453125
-0.135498046875
-0.0260009765625
-0.0340576171875
-0.1475830078125
0.138427734375
-0.0040283203125
0.0413818359375
0.000732421875
-0.00146484375
0.0025634765625
-0.0010986328125
-0.0029296875
-0.0010986328125
-0.006591796875
-0.0029296875
0.0
-0.0029296875
0.015380859375
-0.01171875
0.0164794921875
-0.00732421875
0.0047607421875
0.002197265625
0.002197265625
0.000732421875
0.002197265625
-0.0025634765625
0.0032958984375
-0.0029296875
0.003662109375
-0.0040283203125
0.00732421875
-0.0087890625
0.00732421875
-0.005126953125
0.0029296875
-0.0025634765625
-0.0010986328125
0.0003662109375
-0.00439453125
-0.0003662109375
0.00146484375
-0.0091552734375
0.00439453125
-0.0047607421875
-0.00146484375
0.002197265625
-0.0010986328125
0.0010986328125
0.04833984375
-0.0150146484375
0.11572265625
-0.157501220703125
-0.0457763671875
-0.0120849609375
-0.1190185546875
0.159332275390625
-0.003662109375
0.0289306640625
0.0018310546875
-0.0018310546875
0.000732421875
-0.000732421875
0.00146484375
-0.0003662109375
-0.003662109375
-0.000732421875
-0.00146484375
-0.0025634765625
0.015380859375
-0.0120849609375
0.010986328125
-0.005126953125
-0.00146484375
0.006591796875
-0.0003662109375
0.0
0.00146484375
-0.0029296875
0.0010986328125
-0.000732421875
0.002197265625
0.0032958984375
0.003662109375
0.0054931640625
0.0029296875
-0.005126953125
0.00146484375
-0.0098876953125
0.0010986328125
-0.003662109375
0.006591796875
0.006591796875
0.14794921875
-0.0582275390625
0.0025634765625
-0.0765380859375
-0.1541748046875
0.0615234375
-0.0135498046875
0.076171875
0.000732421875
0.003662109375
-0.0010986328125
0.0018310546875
-0.0010986328125
0.00146484375
-0.003662109375
0.0010986328125
-0.0029296875
0.0
0.0120849609375
-0.0098876953125
0.0164794921875
-0.005859375
0.0032958984375
0.0047607421875
-0.000732421875
0.002197265625
0.0003662109375
0.0
-0.000732421875
0.000732421875
0.0
-0.0003662109375
0.000732421875
-0.0025634765625
0.002197265625
-0.00146484375
0.0025634765625
-0.0003662109375
0.002197265625
-0.000732421875
-0.000732421875
0.0
-0.0010986328125
0.0003662109375
0.0
0.0
-0.0025634765625
0.0003662109375
-0.0029296875
0.0029296875
0.0010986328125
0.000732421875
0.005859375
-0.008056640625
0.0018310546875
-0.002197265625
-0.003662109375
0.0069580078125
-0.0032958984375
0.01025390625
0.1263427734375
-0.030029296875
0.01025390625
-0.0897216796875
-0.139892578125
0.038818359375
-0.0223388671875
0.094482421875
-0.00146484375
0.0047607421875
-0.0010986328125
0.00146484375
-0.002197265625
0.002197265625
-0.0047607421875
0.0025634765625
-0.0062255859375
0.0
0.0025634765625
-0.005126953125
0.019775390625
-0.0084228515625
0.0113525390625
0.000732421875
-0.002197265625
0.0047607421875
-0.0032958984375
0.0032958984375
-0.002197265625
0.003662109375
-0.0010986328125
0.00146484375
0.0003662109375
-0.00146484375
0.0018310546875
-0.0029296875
-0.00146484375
-0.0029296875
-0.0010986328125
-0.000732421875
0.0025634765625
-0.0032958984375
0.005126953125
-0.0084228515625
0.000732421875
-0.000732421875
-0.003662109375
0.0062255859375
-0.0032958984375
0.006591796875
0.09814453125
-0.0234375
0.03369140625
-0.1072998046875
-0.111328125
0.0303955078125
-0.0450439453125
0.11279296875
-0.0003662109375
0.002197265625
0.0003662109375
0.0
-0.0018310546875
0.0010986328125
-0.0047607421875
0.0010986328125
-0.00439453125
-0.000732421875
0.003662109375
-0.0047607421875
0.01611328125
-0.0069580078125
0.006591796875
0.00146484375
-0.003662109375
0.00439453125
-0.000732421875
0.00146484375
0.0
0.0010986328125
0.00146484375
0.0003662109375
0.000732421875
0.000732421875
-0.0003662109375
-0.0003662109375
-0.00146484375
-0.000732421875
-0.000732421875
0.0010986328125
0.0
0.002197265625
0.0054931640625
-0.0062255859375
0.005859375
-0.0047607421875
-0.003662109375
0.003662109375
-0.003662109375
0.002197265625
0.021240234375
-0.005859375
0.1387939453125
-0.1318359375
-0.02490234375
-0.03515625
-0.1483154296875
0.1373291015625
-0.0076904296875
0.04833984375
-0.00146484375
0.0003662109375
-0.000732421875
-0.0018310546875
-0.00146484375
-0.00146484375
-0.00439453125
0.0010986328125
-0.0040283203125
-0.0010986328125
0.0142822265625
-0.010986328125
0.0146484375
-0.0054931640625
0.0
0.0047607421875
-0.0018310546875
0.0018310546875
-0.0010986328125
-0.000732421875
0.00146484375
-0.0003662109375
0.0010986328125
0.0003662109375
0.0010986328125
-0.000732421875
0.0018310546875
-0.00146484375
0.0018310546875
-0.000732421875
-0.0003662109375
0.0
0.0040283203125
-0.0069580078125
0.0062255859375
-0.005859375
-0.0029296875
0.0029296875
-0.0032958984375
0.002197265625
0.0216064453125
-0.006591796875
0.134765625
-0.134033203125
-0.0245361328125
-0.0333251953125
-0.1446533203125
0.1376953125
-0.0076904296875
0.0465087890625
-0.0010986328125
0.0025634765625
0.0
0.000732421875
-0.0018310546875
0.0010986328125
-0.00439453125
0.000732421875
-0.0025634765625
-0.00146484375
0.0135498046875
-0.0087890625
0.013916015625
-0.002197265625
0.0
0.0062255859375
-0.0010986328125
0.000732421875
-0.0010986328125
0.0
0.0003662109375
0.000732421875
0.0010986328125
-0.000732421875
0.002197265625
-0.00146484375
0.00146484375
-0.000732421875
-0.000732421875
0.00146484375
0.0029296875
-0.002197265625
0.005126953125
-0.01025390625
-0.0010986328125
-0.003662109375
-0.00439453125
0.00439453125
0.000732421875
0.00439453125
0.122314453125
-0.0333251953125
0.0142822265625
-0.0933837890625
-0.12890625
0.0377197265625
-0.0234375
0.0963134765625
0.0003662109375
0.0010986328125
-0.0003662109375
-0.0003662109375
-0.0018310546875
0.0010986328125
-0.00439453125
0.0025634765625
-0.00439453125
0.0010986328125
0.0040283203125
-0.003662109375
0.01318359375
-0.0054931640625
0.0062255859375
0.0018310546875
-0.0018310546875
0.0032958984375
0.0
-0.0010986328125
-0.00146484375
0.000732421875
0.0010986328125
0.0
0.0040283203125
-0.0029296875
0.0018310546875
-0.0029296875
0.0
-0.0003662109375
-0.0010986328125
0.000732421875
0.0032958984375
-0.0062255859375
0.0040283203125
-0.0040283203125
-0.0025634765625
0.0047607421875
-0.003662109375
0.003662109375
0.04248046875
-0.013916015625
0.09375
-0.150146484375
-0.049072265625
-0.000732421875
-0.10400390625
0.158935546875
-0.005859375
0.025634765625
-0.0003662109375
0.0
-0.0029296875
0.000732421875
-0.0003662109375
0.000732421875
-0.0010986328125
-0.002197265625
0.0018310546875
-0.006591796875
0.01611328125
-0.009521484375
0.0106201171875
-0.0010986328125
-0.0010986328125
0.00439453125
-0.0018310546875
0.00146484375
0.0
0.0
-0.000732421875
0.002197265625
0.0
0.000732421875
0.000732421875
-0.0010986328125
0.000732421875
0.0
-0.002197265625
0.0025634765625
0.0018310546875
-0.0018310546875
0.005859375
-0.0076904296875
-0.005126953125
0.002197265625
-0.0054931640625
0.0025634765625
0.005859375
0.0047607421875
0.140625
-0.0552978515625
-0.005126953125
-0.0648193359375
-0.15087890625
0.059326171875
-0.010986328125
0.0633544921875
-0.002197265625
0.0018310546875
-0.0029296875
0.0
-0.005126953125
0.0003662109375
-0.0054931640625
0.0
-0.005126953125
0.0018310546875
0.0084228515625
-0.0054931640625
0.01611328125
-0.0069580078125
0.003662109375
0.00439453125
-0.000732421875
0.0003662109375
-0.000732421875
-0.0032958984375
-0.00146484375
0.0003662109375
-0.003662109375
0.0010986328125
0.0003662109375
-0.0018310546875
0.0032958984375
-0.00439453125
0.0010986328125
-0.0018310546875
0.0018310546875
-0.0025634765625
0.01611328125
-0.0267333984375
0.0487060546875
0.002197265625
0.038818359375
0.173980712890625
-0.1435546875
0.190460205078125
-0.085693359375
-0.116851806640625
0.0970458984375
-0.240631103515625
0.0377197265625
-0.09228515625
0.0069580078125
-0.0223388671875
0.00439453125
-0.028564453125
0.0040283203125
-0.050537109375
0.0135498046875
-0.064483642578125
0.0223388671875
-0.0263671875
0.0098876953125
0.064483642578125
-0.0194091796875
0.120849609375
-0.0238037109375
0.07763671875
-0.0062255859375
0.01904296875
0.0010986328125
0.0
0.002197265625
-0.00439453125
0.0010986328125
-0.000732421875
0.0018310546875
0.0
0.0029296875
-0.0029296875
0.002197265625
-0.0029296875
0.000732421875
0.0
-0.0032958984375
0.0047607421875
0.003662109375
-0.0032958984375
0.0084228515625
-0.0091552734375
-0.00146484375
-0.000732421875
-0.0032958984375
0.0018310546875
0.00732421875
0.0029296875
0.145751953125
-0.063720703125
-0.00146484375
-0.0670166015625
-0.1534423828125
0.0633544921875
-0.0142822265625
0.0677490234375
0.000732421875
0.0032958984375
0.0
0.0
-0.003662109375
0.0018310546875
-0.00732421875
0.0029296875
-0.0069580078125
0.002197265625
0.01025390625
-0.0076904296875
0.022705078125
-0.012451171875
0.0087890625
-0.00146484375
-0.003662109375
0.003662109375
-0.0018310546875
0.0
-0.0018310546875
0.0010986328125
-0.0010986328125
0.0032958984375
0.000732421875
0.0
0.0018310546875
-0.0018310546875
0.0003662109375
0.0018310546875
0.0025634765625
-0.00146484375
0.0091552734375
-0.0120849609375
0.0010986328125
-0.0032958984375
-0.005859375
0.00732421875
-0.000732421875
0.00732421875
0.1248779296875
-0.029296875
0.0205078125
-0.1036376953125
-0.1329345703125
0.0333251953125
-0.0303955078125
0.10546875
0.0
0.000732421875
0.002197265625
-0.00146484375
-0.00146484375
0.0010986328125
-0.00439453125
0.002197265625
-0.0062255859375
0.0018310546875
0.0040283203125
-0.005126953125
0.017578125
-0.0087890625
0.005859375
0.000732421875
-0.002197265625
0.0029296875
0.000732421875
-0.000732421875
-0.0003662109375
0.0
-0.000732421875
0.002197265625
0.000732421875
0.00146484375
0.00146484375
-0.00146484375
0.0010986328125
-0.0003662109375
-0.0003662109375
0.0032958984375
0.00146484375
-0.0003662109375
0.0062255859375
-0.0113525390625
-0.000732421875
-0.0032958984375
-0.005126953125
0.008056640625
-0.0010986328125
0.0062255859375
0.1182861328125
-0.0296630859375
0.02783203125
-0.10400390625
-0.1234130859375
0.03515625
-0.0325927734375
0.1087646484375
0.0
0.0018310546875
0.0003662109375
-0.000732421875
-0.0025634765625
0.000732421875
-0.0054931640625
0.00146484375
-0.0076904296875
-0.0003662109375
0.002197265625
-0.0062255859375
0.0164794921875
-0.0076904296875
0.0087890625
0.00146484375
-0.000732421875
0.00439453125
-0.000732421875
0.00146484375
-0.0010986328125
0.00146484375
-0.0010986328125
0.00146484375
0.0018310546875
0.0
0.0025634765625
-0.00146484375
-0.0003662109375
-0.0003662109375
-0.000732421875
0.00146484375
-0.002197265625
0.0003662109375
0.0040283203125
-0.00732421875
0.006591796875
-0.00439453125
-0.003662109375
0.005126953125
-0.0040283203125
0.0040283203125
0.0611572265625
-0.0205078125
0.076171875
-0.141754150390625
-0.0673828125
0.006591796875
-0.0853271484375
0.147247314453125
-0.0029296875
0.02197265625
0.0010986328125
0.0
-0.0010986328125
-0.0003662109375
-0.003662109375
0.0018310546875
-0.0040283203125
-0.000732421875
0.0
-0.0047607421875
0.0146484375
-0.0084228515625
0.0113525390625
-0.00146484375
-0.0010986328125
0.0047607421875
-0.0025634765625
0.0018310546875
-0.0025634765625
-0.0003662109375
-0.00146484375
0.0003662109375
0.00146484375
0.00146484375
0.0040283203125
-0.00146484375
0.0029296875
0.0003662109375
0.0029296875
0.0003662109375
-0.00146484375
0.0018310546875
0.0
0.00146484375
0.0032958984375
-0.0098876953125
-0.003662109375
-0.0032958984375
-0.0054931640625
0.0098876953125
0.000732421875
0.0106201171875
0.122314453125
-0.0205078125
0.015380859375
-0.0889892578125
-0.12890625
0.028564453125
-0.0252685546875
0.0963134765625
-0.002197265625
0.005126953125
-0.003662109375
0.0010986328125
-0.003662109375
0.002197265625
-0.0054931640625
0.00146484375
-0.0087890625
-0.0003662109375
0.0029296875
-0.003662109375
0.0128173828125
-0.0032958984375
0.0032958984375
0.003662109375
-0.0029296875
0.005126953125
-0.0025634765625
0.0025634765625
-0.0029296875
0.0032958984375
-0.0018310546875
0.003662109375
-0.000732421875
0.0
-0.0003662109375
-0.0032958984375
0.0003662109375
-0.0047607421875
-0.0003662109375
-0.0032958984375
-0.0047607421875
0.0040283203125
0.0003662109375
-0.0003662109375
0.005126953125
-0.0113525390625
-0.00146484375
-0.0029296875
-0.0025634765625
0.0018310546875
0.0029296875
0.0032958984375
0.1285400390625
-0.027099609375
0.01171875
-0.0853271484375
-0.135498046875
0.0260009765625
-0.02197265625
0.0794677734375
-0.0010986328125
-0.0010986328125
0.0
-0.0054931640625
-0.0018310546875
-0.0032958984375
-0.005859375
-0.000732421875
-0.0032958984375
-0.0018310546875
0.0084228515625
-0.006591796875
0.019775390625
-0.01025390625
0.0091552734375
-0.0010986328125
-0.0010986328125
0.0018310546875
0.000732421875
-0.0032958984375
0.0010986328125
-0.0032958984375
0.0032958984375
-0.00146484375
0.0018310546875
-0.0010986328125
0.0025634765625
-0.002197265625
0.0018310546875
-0.0040283203125
0.0003662109375
-0.003662109375
0.0018310546875
0.000732421875
0.0018310546875
-0.002197265625
0.00439453125
-0.0076904296875
0.00439453125
-0.0029296875
0.0
-0.0003662109375
-0.00146484375
-0.0010986328125
0.0369873046875
-0.010986328125
0.1318359375
-0.142486572265625
-0.0380859375
-0.0208740234375
-0.1376953125
0.146514892578125
-0.0062255859375
0.035888671875
-0.0010986328125
0.0
-0.0010986328125
0.0
-0.000732421875
-0.0010986328125
-0.003662109375
0.0
-0.0018310546875
-0.00146484375
0.0157470703125
-0.0113525390625
0.0157470703125
-0.0113525390625
-0.0018310546875
-0.0032958984375
-0.0062255859375
-0.000732421875
-0.0010986328125
-0.000732421875
0.002197265625
-0.0003662109375
0.005859375
-0.00146484375
0.0062255859375
-0.0018310546875
0.0029296875
-0.000732421875
0.0047607421875
-0.0029296875
0.0106201171875
-0.0113525390625
0.0369873046875
0.005126953125
0.044677734375
0.14794921875
-0.11279296875
0.258575439453125
-0.0794677734375
-0.0849609375
0.0853271484375
-0.299957275390625
0.0421142578125
-0.100341796875
0.0069580078125
-0.0201416015625
0.00439453125
-0.0267333984375
0.0062255859375
-0.043212890625
0.013916015625
-0.050567626953125
0.0201416015625
-0.021270751953125
0.0106201171875
0.053131103515625
-0.0186767578125
0.111358642578125
-0.0289306640625
0.08349609375
-0.01171875
0.024169921875
-0.0018310546875
0.002197265625
0.002197265625
0.00146484375
-0.0018310546875
0.0029296875
-0.0029296875
0.002197265625
-0.000732421875
0.0010986328125
-0.0029296875
0.000732421875
-0.002197265625
0.000732421875
-0.0010986328125
0.0010986328125
0.0003662109375
0.000732421875
0.0003662109375
0.000732421875
0.0010986328125
0.0
-0.0003662109375
0.0010986328125
-0.003662109375
0.005126953125
0.0010986328125
0.0
0.005126953125
-0.01025390625
-0.0018310546875
-0.00439453125
-0.006591796875
0.0062255859375
-0.0003662109375
0.0087890625
0.1300048828125
-0.024169921875
0.0120849609375
-0.084228515625
-0.138427734375
0.0281982421875
-0.022705078125
0.0860595703125
-0.0010986328125
0.0032958984375
-0.0025634765625
0.0003662109375
-0.00439453125
0.000732421875
-0.008056640625
0.0018310546875
-0.009521484375
0.0025634765625
0.00146484375
-0.0018310546875
0.019775390625
-0.0098876953125
0.0142822265625
-0.0047607421875
0.000732421875
0.0018310546875
-0.0010986328125
-0.0003662109375
-0.0029296875
0.00146484375
-0.00146484375
0.003662109375
-0.00146484375
0.00146484375
0.0003662109375
0.0018310546875
0.00146484375
0.0018310546875
0.0
0.0
-0.0025634765625
0.0025634765625
0.0018310546875
-0.0032958984375
0.0062255859375
-0.0025634765625
-0.0047607421875
0.008056640625
-0.0047607421875
0.0040283203125
0.0146484375
0.0018310546875
0.134765625
-0.114990234375
-0.0216064453125
-0.0355224609375
-0.1475830078125
0.12744140625
-0.006591796875
0.046875
-0.0032958984375
0.0047607421875
-0.0029296875
0.0025634765625
-0.00732421875
0.000732421875
-0.0091552734375
0.0040283203125
-0.0076904296875
0.0025634765625
0.0076904296875
-0.00439453125
0.0150146484375
-0.0003662109375
-0.000732421875
0.006591796875
-0.0047607421875
0.0032958984375
-0.0029296875
0.00146484375
-0.000732421875
0.000732421875
-0.0010986328125
0.0003662109375
-0.0018310546875
-0.002197265625
0.0003662109375
-0.003662109375
-0.0010986328125
-0.0018310546875
-0.002197265625
0.0010986328125
0.002197265625
-0.003662109375
0.0069580078125
-0.010986328125
0.0040283203125
-0.0029296875
-0.0018310546875
0.002197265625
-0.0047607421875
0.000732421875
0.075439453125
-0.0157470703125
0.065185546875
-0.1168212890625
-0.085693359375
0.0047607421875
-0.0750732421875
0.1153564453125
-0.0010986328125
0.0091552734375
0.00146484375
-0.0018310546875
-0.0010986328125
-0.002197265625
-0.003662109375
-0.00146484375
-0.006591796875
0.002197265625
-0.0010986328125
-0.0003662109375
0.019775390625
-0.0128173828125
0.0186767578125
-0.0106201171875
0.0040283203125
-0.0029296875
0.0010986328125
-0.0025634765625
0.0
-0.000732421875
0.0003662109375
-0.002197265625
0.0003662109375
-0.0018310546875
0.00146484375
-0.0010986328125
0.002197265625
-0.002197265625
0.0025634765625
-0.0029296875
0.0010986328125
0.002197265625
0.00732421875
-0.00439453125
0.0076904296875
-0.01025390625
-0.0047607421875
0.00146484375
-0.0040283203125
0.0029296875
0.009521484375
0.0003662109375
0.153472900390625
-0.0791015625
-0.0029296875
-0.0574951171875
-0.159332275390625
0.0802001953125
-0.0146484375
0.05859375
-0.0018310546875
0.0010986328125
0.0003662109375
0.0
-0.00146484375
0.0018310546875
-0.005126953125
0.0032958984375
-0.005859375
0.0032958984375
0.012451171875
-0.00732421875
0.0194091796875
-0.01318359375
0.005126953125
-0.0029296875
-0.0003662109375
0.0018310546875
-0.0018310546875
0.0054931640625
0.167388916015625
-0.079833984375
0.005126953125
-0.0498046875
-0.177276611328125
0.0794677734375
-0.0142822265625
0.047607421875
-0.000732421875
0.0025634765625
-0.000732421875
-0.000732421875
-0.0025634765625
0.0
-0.00732421875
0.0003662109375
-0.005859375
-0.000732421875
0.0113525390625
-0.005126953125
0.01904296875
-0.002197265625
0.0084228515625
0.000732421875
0.0018310546875
-0.0018310546875
0.00439453125
-0.002197265625
0.005126953125
-0.0018310546875
0.0025634765625
-0.0003662109375
0.0010986328125
-0.0003662109375
0.0010986328125
-0.000732421875
0.0
-0.000732421875
0.0
-0.0003662109375
0.000732421875
-0.0003662109375
-0.00146484375
-0.0010986328125
-0.00146484375
0.0
-0.0010986328125
0.0010986328125
-0.00146484375
0.0
-0.00146484375
0.003662109375
0.000732421875
0.0018310546875
0.00439453125
-0.00732421875
0.005126953125
-0.0040283203125
0.0
0.0054931640625
-0.0010986328125
0.0047607421875
0.0428466796875
-0.0150146484375
0.122314453125
-0.138092041015625
-0.040283203125
-0.0106201171875
-0.1292724609375
0.143951416015625
-0.0062255859375
0.034423828125
0.0010986328125
0.0025634765625
-0.0029296875
0.002197265625
-0.0032958984375
0.0029296875
-0.0076904296875
0.003662109375
-0.0076904296875
0.0018310546875
0.0135498046875
-0.0087890625
0.02490234375
-0.0106201171875
0.0106201171875
-0.0003662109375
-0.0010986328125
0.000732421875
-0.002197265625
-0.0003662109375
-0.0029296875
0.0025634765625
-0.0018310546875
0.00146484375
0.0
-0.0010986328125
-0.0003662109375
-0.0018310546875
-0.00146484375
0.0010986328125
-0.0025634765625
0.0018310546875
0.0029296875
-0.0032958984375
0.0047607421875
-0.0029296875
-0.0029296875
0.00439453125
-0.005126953125
0.00439453125
0.0025634765625
0.005859375
0.145782470703125
-0.0699462890625
-0.0029296875
-0.06884765625
-0.157501220703125
0.0750732421875
-0.0146484375
0.07177734375
-0.0029296875
0.0032958984375
-0.0032958984375
0.0
-0.00439453125
0.00146484375
-0.006591796875
0.003662109375
-0.005859375
0.002197265625
0.01171875
-0.0069580078125
0.017578125
-0.0076904296875
0.0032958984375
0.000732421875
-0.003662109375
0.002197265625
-0.0032958984375
0.0010986328125
-0.000732421875
0.0018310546875
0.0003662109375
0.0018310546875
0.00146484375
-0.0010986328125
0.0003662109375
-0.0010986328125
-0.00146484375
0.00146484375
-0.0003662109375
-0.000732421875
0.00439453125
-0.0087890625
0.0018310546875
-0.002197265625
-0.0018310546875
0.005126953125
-0.0003662109375
0.0032958984375
0.078369140625
-0.027099609375
0.0556640625
-0.119384765625
-0.084228515625
0.0238037109375
-0.0615234375
0.123779296875
-0.0018310546875
0.01171875
-0.000732421875
0.000732421875
-0.002197265625
-0.000732421875
-0.0047607421875
0.0
-0.0069580078125
-0.00146484375
-0.002197265625
-0.005126953125
0.0128173828125
-0.008056640625
0.00732421875
-0.0003662109375
-0.0032958984375
0.003662109375
-0.0010986328125
0.0
0.0003662109375
0.0003662109375
-0.0003662109375
0.0
-0.000732421875
-0.0018310546875
0.0010986328125
-0.0018310546875
0.0018310546875
-0.0010986328125
0.0003662109375
0.0010986328125
0.005126953125
-0.00439453125
0.0084228515625
-0.009521484375
-0.0032958984375
0.002197265625
-0.0054931640625
0.0047607421875
0.008056640625
0.0054931640625
0.149078369140625
-0.0596923828125
-0.000732421875
-0.0626220703125
-0.152740478515625
0.062255859375
-0.0106201171875
0.0618896484375
0.0018310546875
0.003662109375
0.002197265625
0.0003662109375
0.00146484375
-0.0010986328125
-0.0003662109375
-0.000732421875
-0.0010986328125
0.0003662109375
0.0113525390625
-0.0029296875
0.0164794921875
0.0
0.0047607421875
0.0076904296875
0.0010986328125
0.0040283203125
-0.0003662109375
0.00146484375
-0.0047607421875
0.0054931640625
-0.003662109375
0.0032958984375
-0.0010986328125
-0.0003662109375
0.000732421875
-0.000732421875
0.0
-0.0010986328125
-0.0010986328125
0.0029296875
0.0003662109375
-0.0029296875
0.0029296875
-0.0135498046875
-0.0025634765625
-0.00439453125
-0.0047607421875
0.0047607421875
0.0
0.0047607421875
0.1058349609375
-0.0142822265625
0.0142822265625
-0.0849609375
-0.12158203125
0.01611328125
-0.02783203125
0.08349609375
0.0
0.00146484375
-0.0025634765625
0.00146484375
-0.0047607421875
-0.0040283203125
-0.006591796875
-0.0010986328125
-0.0054931640625
0.0029296875
0.0062255859375
-0.0029296875
0.02197265625
-0.005126953125
0.013916015625
-0.00146484375
0.002197265625
0.0
-0.000732421875
-0.0029296875
-0.00146484375
-0.0018310546875
0.0025634765625
0.0
0.0003662109375
-0.005126953125
0.00146484375
-0.00439453125
0.0018310546875
-0.0010986328125
0.000732421875
-0.0025634765625
0.0208740234375
-0.021240234375
0.0523681640625
0.03955078125
-0.0223388671875
0.284210205078125
-0.1307373046875
0.0728759765625
-0.00439453125
-0.273223876953125
0.082763671875
-0.1644287109375
0.0142822265625
-0.0545654296875
0.0025634765625
-0.0223388671875
0.0040283203125
-0.029296875
0.006591796875
-0.0472412109375
0.0135498046875
-0.045440673828125
0.021240234375
0.0054931640625
-0.0018310546875
0.082061767578125
-0.027099609375
0.1021728515625
-0.019775390625
0.0501708984375
-0.0054931640625
0.0032958984375
0.00146484375
-0.008056640625
0.00146484375
-0.0047607421875
0.0003662109375
-0.002197265625
0.0010986328125
-0.0010986328125
0.0010986328125
0.0
0.0025634765625
0.0
0.005859375
-0.0003662109375
0.0054931640625
-0.0029296875
0.0032958984375
-0.0032958984375
-0.00146484375
0.000732421875
0.0040283203125
-0.0054931640625
0.0113525390625
-0.0128173828125
0.000732421875
-0.0054931640625
-0.0003662109375
-0.00439453125
0.0098876953125
-0.0029296875
0.141387939453125
-0.05126953125
0.0029296875
-0.0673828125
-0.142120361328125
0.0435791015625
-0.0106201171875
0.05859375
-0.0003662109375
0.000732421875
0.00146484375
-0.000732421875
0.0
-0.000732421875
-0.005126953125
0.0
-0.005126953125
0.0003662109375
0.0128173828125
-0.008056640625
0.0260009765625
-0.0150146484375
0.0106201171875
-0.0076904296875
-0.0025634765625
-0.00146484375
-0.002197265625
-0.000732421875
-0.0025634765625
0.0018310546875
-0.0040283203125
0.0040283203125
-0.0025634765625
0.0032958984375
-0.0010986328125
0.0029296875
-0.0025634765625
0.0029296875
-0.0062255859375
0.0076904296875
-0.0010986328125
0.0025634765625
0.0040283203125
-0.0069580078125
-0.005859375
0.0018310546875
-0.0087890625
0.0076904296875
-0.003662109375
0.009521484375
0.128204345703125
-0.0318603515625
0.01318359375
-0.087188720703125
-0.143218994140625
0.0457763671875
-0.0267333984375
0.098907470703125
0.0
0.00732421875
-0.0010986328125
0.0040283203125
-0.0040283203125
0.0054931640625
-0.005126953125
0.0076904296875
-0.006591796875
0.0054931640625
0.006591796875
-0.0029296875
0.0201416015625
-0.0054931640625
0.0076904296875
0.0018310546875
-0.00146484375
0.003662109375
-0.0029296875
0.0029296875
-0.0032958984375
0.00439453125
-0.002197265625
0.005126953125
-0.0029296875
0.0040283203125
-0.0040283203125
0.0025634765625
-0.0047607421875
0.0018310546875
-0.0029296875
0.00146484375
-0.002197265625
0.0032958984375
0.0
0.0010986328125
0.0018310546875
-0.0054931640625
0.000732421875
-0.0003662109375
-0.005859375
0.0062255859375
-0.005859375
0.0025634765625
0.016845703125
-0.0025634765625
0.144683837890625
-0.1094970703125
-0.019775390625
-0.043212890625
-0.158966064453125
0.11865234375
-0.0084228515625
0.0560302734375
0.0025634765625
0.00146484375
0.00146484375
-0.000732421875
0.0003662109375
0.0018310546875
-0.0040283203125
0.003662109375
-0.0018310546875
-0.0018310546875
0.0128173828125
-0.0091552734375
0.0150146484375
0.000732421875
-0.0003662109375
0.01025390625
-0.003662109375
0.003662109375
-0.00439453125
0.002197265625
-0.0047607421875
0.0025634765625
-0.000732421875
0.0018310546875
0.0
0.0032958984375
-0.0018310546875
0.0047607421875
-0.0032958984375
0.0029296875
-0.000732421875
0.0
-0.0025634765625
0.005126953125
0.0
0.0047607421875
0.0032958984375
-0.0076904296875
-0.0047607421875
-0.0010986328125
-0.0084228515625
0.0087890625
-0.0069580078125
0.009521484375
0.104736328125
-0.01171875
0.017578125
-0.0831298828125
-0.1201171875
0.0208740234375
-0.0325927734375
0.0911865234375
-0.0040283203125
0.0054931640625
-0.0025634765625
0.0010986328125
-0.005859375
0.002197265625
-0.0062255859375
0.0010986328125
-0.0029296875
-0.00146484375
0.0087890625
-0.0069580078125
0.0205078125
-0.012451171875
0.0098876953125
-0.005859375
-0.0029296875
-0.0032958984375
-0.0040283203125
-0.008056640625
-0.0047607421875
-0.00439453125
-0.0054931640625
0.002197265625
-0.0025634765625
-0.0003662109375
-0.002197265625
-0.0047607421875
-0.0018310546875
-0.0025634765625
0.0003662109375
-0.0018310546875
-0.0010986328125
0.00146484375
0.0029296875
-0.00439453125
0.005859375
-0.012451171875
0.0029296875
-0.00439453125
0.0
0.000732421875
0.00146484375
-0.0003662109375
0.0626220703125
-0.0135498046875
0.087890625
-0.123046875
-0.05859375
-0.0025634765625
-0.0875244140625
0.1248779296875
0.0
0.019775390625
0.0003662109375
0.0010986328125
0.0018310546875
-0.002197265625
0.0
0.0
-0.00439453125
0.00146484375
0.00146484375
-0.003662109375
0.0186767578125
-0.01171875
0.018310546875
-0.00732421875
0.0018310546875
0.0003662109375
0.0
-0.0010986328125
0.0010986328125
-0.0018310546875
0.000732421875
-0.00146484375
0.00146484375
0.0003662109375
0.002197265625
-0.000732421875
0.00146484375
-0.002197265625
0.0003662109375
-0.002197265625
0.0
0.00146484375
0.0029296875
-0.0010986328125
0.006591796875
-0.009521484375
0.003662109375
-0.00146484375
0.000732421875
0.0054931640625
0.0010986328125
0.0018310546875
0.0589599609375
-0.021240234375
0.104736328125
-0.146148681640625
-0.0545654296875
-0.00146484375
-0.1043701171875
0.152008056640625
-0.0032958984375
0.0303955078125
0.0
0.0018310546875
-0.0018310546875
0.00146484375
-0.0054931640625
0.003662109375
-0.0091552734375
0.0054931640625
-0.0029296875
0.000732421875
0.0157470703125
-0.008056640625
0.0146484375
-0.00439453125
0.0003662109375
0.0029296875
-0.0025634765625
0.0025634765625
-0.0010986328125
0.002197265625
0.0018310546875
0.0018310546875
0.0025634765625
0.0010986328125
0.0010986328125
0.0003662109375
0.0
-0.0010986328125
-0.0010986328125
-0.0003662109375
-0.00439453125
0.0029296875
0.00146484375
-0.0025634765625
0.0054931640625
-0.008056640625
-0.002197265625
0.000732421875
-0.003662109375
0.005126953125
0.00146484375
0.0069580078125
0.140655517578125
-0.038818359375
0.01025390625
-0.087158203125
-0.148712158203125
0.0428466796875
-0.0216064453125
0.0882568359375
-0.0003662109375
0.0025634765625
-0.00146484375
0.0
-0.0032958984375
0.0003662109375
-0.0040283203125
0.0018310546875
-0.003662109375
0.000732421875
0.0098876953125
-0.0087890625
0.016845703125
-0.01025390625
0.005126953125
0.000732421875
-0.002197265625
0.0032958984375
-0.0062255859375
0.0069580078125
0.122314453125
-0.0494384765625
0.0113525390625
-0.0487060546875
-0.132568359375
0.0487060546875
-0.0179443359375
0.0421142578125
-0.0010986328125
0.0
0.0
-0.002197265625
-0.0003662109375
-0.002197265625
-0.0054931640625
-0.002197265625
-0.005859375
-0.0018310546875
0.0113525390625
-0.00439453125
0.01611328125
0.0018310546875
0.0040283203125
0.006591796875
-0.000732421875
0.0010986328125
0.002197265625
-0.0010986328125
0.0029296875
-0.00146484375
0.00146484375
-0.0018310546875
-0.0003662109375
-0.0018310546875
-0.00146484375
-0.0010986328125
0.0018310546875
-0.0025634765625
0.0025634765625
-0.0032958984375
0.0029296875
-0.0018310546875
0.002197265625
-0.0029296875
0.0010986328125
-0.0025634765625
0.000732421875
-0.0003662109375
0.0010986328125
-0.002197265625
0.0018310546875
-0.0010986328125
0.005859375
-0.0054931640625
0.0069580078125
-0.0098876953125
0.000732421875
0.0003662109375
-0.0010986328125
0.0040283203125
0.0
0.00439453125
0.120513916015625
-0.0223388671875
0.0164794921875
-0.0911865234375
-0.131134033203125
0.025634765625
-0.0274658203125
0.09228515625
0.0010986328125
0.003662109375
0.002197265625
0.00146484375
-0.0003662109375
0.0
-0.0032958984375
0.0
-0.00732421875
0.0003662109375
0.0
-0.00439453125
0.0216064453125
-0.01171875
0.0186767578125
-0.0062255859375
0.0018310546875
0.000732421875
-0.0018310546875
0.0003662109375
-0.00146484375
0.002197265625
-0.0018310546875
0.0018310546875
-0.002197265625
0.0003662109375
-0.00146484375
-0.0003662109375
-0.0003662109375
-0.000732421875
0.0
0.0010986328125
0.0018310546875
-0.0029296875
0.00439453125
-0.0076904296875
0.0003662109375
0.0003662109375
-0.0040283203125
0.0069580078125
-0.00439453125
0.0069580078125
0.0955810546875
-0.0260009765625
0.0333251953125
-0.106201171875
-0.104736328125
0.031494140625
-0.040283203125
0.10986328125
-0.0018310546875
0.0029296875
-0.002197265625
0.000732421875
-0.0010986328125
0.0
-0.002197265625
0.000732421875
-0.0054931640625
0.0018310546875
0.0
-0.0032958984375
0.0128173828125
-0.0084228515625
0.005126953125
0.0003662109375
-0.00732421875
0.005126953125
-0.0054931640625
0.002197265625
-0.0025634765625
0.0029296875
-0.00146484375
0.0029296875
-0.0003662109375
0.0003662109375
0.00146484375
0.0003662109375
0.000732421875
0.0032958984375
-0.0010986328125
0.0025634765625
0.00146484375
-0.00146484375
0.0025634765625
-0.00146484375
-0.0054931640625
0.0054931640625
-0.0062255859375
0.0047607421875
0.0025634765625
0.0091552734375
0.132568359375
-0.0552978515625
-0.0054931640625
-0.0567626953125
-0.1435546875
0.0618896484375
-0.0098876953125
0.0567626953125
-0.0029296875
0.003662109375
-0.0032958984375
0.002197265625
-0.0054931640625
-0.000732421875
-0.0069580078125
-0.0010986328125
-0.005126953125
0.00146484375
0.006591796875
-0.00146484375
0.01318359375
0.0003662109375
0.0003662109375
0.0062255859375
-0.0047607421875
0.0029296875
-0.00146484375
-0.000732421875
-0.000732421875
0.0003662109375
0.0
0.0003662109375
-0.0029296875
-0.0018310546875
-0.0032958984375
-0.002197265625
-0.0040283203125
0.0029296875
0.0
-0.00146484375
0.0047607421875
-0.0087890625
-0.0010986328125
0.0010986328125
-0.0069580078125
0.005859375
-0.00439453125
0.0032958984375
0.09521484375
-0.016845703125
0.037353515625
-0.1007080078125
-0.1029052734375
0.018310546875
-0.0472412109375
0.1025390625
-0.00146484375
0.0025634765625
-0.0003662109375
0.0
-0.003662109375
0.0003662109375
-0.005859375
0.0
-0.0084228515625
0.0010986328125
0.00146484375
-0.0047607421875
0.019775390625
-0.0113525390625
0.0142822265625
-0.003662109375
0.0010986328125
0.00146484375
0.000732421875
-0.0018310546875
0.0003662109375
-0.0025634765625
0.000732421875
-0.0010986328125
0.0040283203125
-0.0018310546875
0.00439453125
-0.0032958984375
0.0029296875
-0.00146484375
0.0
0.0
0.0029296875
-0.0062255859375
0.0062255859375
-0.0091552734375
0.0003662109375
-0.0025634765625
0.0003662109375
0.0003662109375
0.0172119140625
-0.00146484375
0.155303955078125
-0.1131591796875
-0.01025390625
-0.0498046875
-0.159698486328125
0.1142578125
-0.010986328125
0.05419921875
-0.000732421875
0.000732421875
-0.0003662109375
-0.000732421875
-0.00146484375
0.00146484375
-0.0040283203125
0.0018310546875
-0.0025634765625
-0.000732421875
0.0157470703125
-0.0098876953125
0.0201416015625
-0.0069580078125
0.0047607421875
0.003662109375
0.0
0.00146484375
0.0
-0.0003662109375
-0.0029296875
0.00146484375
-0.0003662109375
0.0
0.003662109375
-0.00146484375
0.003662109375
-0.0018310546875
0.0025634765625
0.000732421875
-0.000732421875
0.00146484375
0.00439453125
-0.006591796875
0.0029296875
-0.0040283203125
-0.005126953125
0.003662109375
-0.0029296875
0.00439453125
0.0802001953125
-0.0208740234375
0.0640869140625
-0.133331298828125
-0.085693359375
0.015380859375
-0.071044921875
0.138092041015625
-0.0029296875
0.015380859375
-0.0003662109375
0.0025634765625
-0.00146484375
0.0
-0.0062255859375
0.0018310546875
-0.009521484375
0.0029296875
-0.0018310546875
-0.002197265625
0.0179443359375
-0.0106201171875
0.013916015625
-0.0025634765625
0.0003662109375
0.00439453125
0.0
0.0
-0.00146484375
0.00146484375
0.0003662109375
0.0010986328125
0.0
0.0
0.000732421875
-0.00146484375
0.0010986328125
-0.00146484375
0.0
0.0018310546875
0.00146484375
-0.00146484375
0.0029296875
-0.010986328125
-0.0010986328125
-0.0040283203125
-0.00439453125
0.0069580078125
0.0
0.0062255859375
0.1087646484375
-0.02783203125
0.0318603515625
-0.1058349609375
-0.116455078125
0.0322265625
-0.0391845703125
0.110595703125
0.002197265625
0.003662109375
0.000732421875
0.0003662109375
-0.0003662109375
0.00146484375
-0.0047607421875
0.0032958984375
-0.00732421875
0.003662109375
0.0040283203125
-0.0047607421875
0.01904296875
-0.0120849609375
0.0098876953125
-0.0018310546875
-0.0010986328125
0.005126953125
-0.0010986328125
0.0047607421875
0.125244140625
-0.0582275390625
0.0263671875
-0.0611572265625
-0.1314697265625
0.06005859375
-0.0322265625
0.05859375
-0.0029296875
0.0
-0.0018310546875
0.0010986328125
-0.003662109375
0.0
-0.0069580078125
-0.000732421875
-0.0054931640625
-0.00146484375
0.009521484375
-0.0047607421875
0.0186767578125
0.0
0.0054931640625
0.0062255859375
0.000732421875
0.0018310546875
0.0010986328125
-0.0003662109375
0.0
0.0010986328125
0.00146484375
0.0
0.000732421875
0.0
0.0003662109375
0.0
-0.00146484375
-0.00146484375
-0.0003662109375
-0.0003662109375
-0.002197265625
0.0
-0.00146484375
-0.000732421875
0.0
0.00146484375
-0.0003662109375
0.000732421875
0.000732421875
-0.0010986328125
0.0003662109375
0.0
-0.000732421875
0.0032958984375
0.00146484375
-0.00146484375
0.0029296875
-0.0087890625
-0.0029296875
0.00146484375
-0.005126953125
0.0084228515625
-0.003662109375
0.005859375
0.101806640625
-0.0205078125
0.030029296875
-0.09521484375
-0.1131591796875
0.0263671875
-0.041015625
0.1025390625
-0.0032958984375
0.005126953125
-0.002197265625
0.000732421875
-0.000732421875
0.0
-0.003662109375
0.0032958984375
-0.0084228515625
0.003662109375
-0.005126953125
0.0032958984375
0.0172119140625
-0.0076904296875
0.017578125
-0.00732421875
-0.002197265625
0.003662109375
-0.005126953125
0.00439453125
-0.005126953125
0.0054931640625
-0.003662109375
0.003662109375
-0.0010986328125
0.0032958984375
0.0
-0.0003662109375
-0.000732421875
-0.0018310546875
-0.002197265625
0.00146484375
-0.0018310546875
-0.0003662109375
0.002197265625
-0.00439453125
0.00146484375
-0.005126953125
-0.006591796875
0.0010986328125
-0.00732421875
0.0054931640625
0.0032958984375
0.0098876953125
0.13916015625
-0.0516357421875
-0.0025634765625
-0.065185546875
-0.14794921875
0.0531005859375
-0.012451171875
0.0626220703125
-0.0003662109375
0.0032958984375
-0.00146484375
-0.00146484375
-0.0032958984375
-0.000732421875
-0.00439453125
-0.0010986328125
-0.002197265625
-0.0025634765625
0.0128173828125
-0.01025390625
0.018310546875
-0.0091552734375
0.0054931640625
0.0018310546875
-0.0025634765625
0.0029296875
-0.0029296875
0.0003662109375
-0.00146484375
0.0
0.000732421875
-0.00146484375
0.0025634765625
-0.0029296875
0.0029296875
-0.003662109375
0.0029296875
-0.0032958984375
0.00146484375
-0.00146484375
-0.00146484375
0.0018310546875
0.0
-0.0018310546875
0.005126953125
-0.01025390625
0.005126953125
-0.00439453125
-0.000732421875
0.0032958984375
0.000732421875
0.00146484375
0.030029296875
-0.008056640625
0.1351318359375
-0.148345947265625
-0.0289306640625
-0.0267333984375
-0.144287109375
0.153472900390625
-0.0076904296875
0.0406494140625
-0.000732421875
0.000732421875
-0.00146484375
0.000732421875
-0.003662109375
0.00146484375
-0.005126953125
0.0018310546875
-0.0029296875
0.0
0.0135498046875
-0.0106201171875
0.017578125
-0.0076904296875
0.0025634765625
0.0032958984375
0.0
0.0018310546875
0.0
0.0010986328125
-0.000732421875
0.000732421875
0.0
-0.0003662109375
0.0018310546875
-0.0018310546875
0.0018310546875
-0.002197265625
-0.0003662109375
0.0003662109375
-0.0003662109375
0.0010986328125
-0.0018310546875
0.000732421875
0.00439453125
-0.0032958984375
0.0062255859375
-0.008056640625
-0.0029296875
0.0
-0.0040283203125
0.0047607421875
0.00146484375
0.006591796875
0.132568359375
-0.031494140625
0.0084228515625
-0.088623046875
-0.1431884765625
0.037353515625
-0.0223388671875
0.091552734375
0.0
0.002197265625
0.0
-0.0010986328125
-0.0010986328125
0.0025634765625
-0.0032958984375
0.0025634765625
-0.005859375
0.0
0.0054931640625
-0.006591796875
0.0186767578125
-0.009521484375
0.01025390625
-0.0003662109375
-0.0018310546875
0.0029296875
-0.0018310546875
0.000732421875
-0.0010986328125
0.0010986328125
0.0010986328125
0.000732421875
0.0032958984375
-0.0003662109375
0.003662109375
-0.0003662109375
0.002197265625
0.0
-0.00146484375
-0.00146484375
-0.002197265625
-0.000732421875
-0.0029296875
0.0025634765625
0.0025634765625
-0.003662109375
0.005859375
-0.005859375
-0.0003662109375
0.0029296875
-0.00146484375
0.003662109375
0.006591796875
0.003662109375
0.150177001953125
-0.0677490234375
-0.0018310546875
-0.0662841796875
-0.157867431640625
0.0699462890625
-0.0135498046875
0.0699462890625
0.0003662109375
0.0025634765625
0.0003662109375
-0.0018310546875
-0.0029296875
0.002197265625
-0.005859375
0.0018310546875
-0.0062255859375
-0.00146484375
0.01025390625
-0.0084228515625
0.0179443359375
-0.005859375
0.0047607421875
0.003662109375
-0.0032958984375
0.0032958984375
-0.000732421875
0.000732421875
0.0003662109375
0.0003662109375
-0.0018310546875
0.00146484375
0.0018310546875
0.0
0.005126953125
-0.006591796875
0.0347900390625
-0.021240234375
0.0472412109375
0.1175537109375
-0.0703125
0.313140869140625
-0.104736328125
-0.018310546875
0.03662109375
-0.329254150390625
0.062255859375
-0.1512451171875
0.00439453125
-0.0281982421875
-0.00146484375
-0.0234375
0.0018310546875
-0.0406494140625
0.005859375
-0.053466796875
0.0128173828125
-0.03076171875
0.010986328125
0.041015625
-0.0087890625
0.1087646484375
-0.0234375
0.0948486328125
-0.0146484375
0.0322265625
-0.0029296875
0.0029296875
0.0003662109375
0.0010986328125
-0.0010986328125
0.0025634765625
-0.002197265625
0.002197265625
-0.000732421875
0.0
0.0003662109375
0.0
0.0003662109375
0.002197265625
-0.0025634765625
0.000732421875
-0.003662109375
0.0003662109375
-0.0029296875
0.0003662109375
-0.0025634765625
0.0
-0.00439453125
0.0018310546875
-0.0040283203125
0.0029296875
0.0
0.0003662109375
-0.0010986328125
0.0018310546875
0.0010986328125
-0.0003662109375
0.0040283203125
-0.0040283203125
0.0
0.0025634765625
-0.0069580078125
0.005126953125
-0.00732421875
0.0029296875
0.056396484375
-0.010986328125
0.07470703125
-0.1314697265625
-0.0648193359375
0.0040283203125
-0.08349609375
0.1387939453125
-0.002197265625
0.013916015625
-0.0018310546875
0.0018310546875
-0.0018310546875
0.0003662109375
-0.0040283203125
-0.000732421875
-0.009521484375
0.0029296875
-0.0054931640625
0.0018310546875
0.0150146484375
-0.0091552734375
0.02197265625
-0.0106201171875
0.0062255859375
-0.0010986328125
-0.000732421875
0.0
-0.00146484375
-0.000732421875
-0.002197265625
-0.0010986328125
0.000732421875
-0.000732421875
0.0010986328125
-0.0025634765625
0.0
-0.0040283203125
0.000732421875
-0.0047607421875
0.0003662109375
0.000732421875
0.003662109375
-0.0018310546875
0.008056640625
-0.01171875
0.0025634765625
-0.003662109375
-0.0029296875
0.0047607421875
-0.0018310546875
0.0040283203125
0.094482421875
-0.0157470703125
0.03955078125
-0.10546875
-0.1025390625
0.0157470703125
-0.044677734375
0.10400390625
0.002197265625
0.000732421875
-0.000732421875
-0.0003662109375
-0.0018310546875
-0.002197265625
-0.0032958984375
-0.0018310546875
-0.003662109375
0.00146484375
0.00439453125
-0.0029296875
0.0194091796875
-0.01171875
0.0150146484375
-0.0047607421875
0.0018310546875
0.003662109375
-0.000732421875
0.00146484375
-0.0010986328125
-0.000732421875
0.0003662109375
0.0
0.000732421875
-0.000732421875
0.0018310546875
-0.0032958984375
0.0018310546875
-0.002197265625
0.000732421875
-0.00146484375
0.0003662109375
0.0018310546875
0.0
0.00146484375
0.0032958984375
-0.006591796875
0.0054931640625
-0.005126953125
-0.0018310546875
0.0018310546875
-0.0047607421875
0.0010986328125
0.025634765625
-0.0069580078125
0.141357421875
-0.138824462890625
-0.0263671875
-0.0318603515625
-0.1475830078125
0.142852783203125
-0.005126953125
0.0435791015625
0.0010986328125
0.000732421875
-0.000732421875
-0.0018310546875
-0.0025634765625
0.0003662109375
-0.0062255859375
0.0029296875
-0.003662109375
-0.0003662109375
0.0142822265625
-0.01025390625
0.0194091796875
-0.0076904296875
0.003662109375
0.0025634765625
-0.0018310546875
0.000732421875
0.0
-0.0010986328125
-0.0010986328125
0.0003662109375
0.0010986328125
-0.000732421875
0.0010986328125
-0.0003662109375
0.000732421875
0.0
0.00146484375
-0.00146484375
0.000732421875
-0.000732421875
-0.000732421875
0.00146484375
0.003662109375
-0.0029296875
0.0087890625
-0.00732421875
-0.00146484375
0.0
-0.0040283203125
0.002197265625
0.0120849609375
0.0
0.155670166015625
-0.087890625
-0.00439453125
-0.0589599609375
-0.161163330078125
0.0897216796875
-0.0113525390625
0.0611572265625
0.0003662109375
0.000732421875
0.0010986328125
-0.00146484375
0.000732421875
-0.0010986328125
-0.00439453125
0.0010986328125
-0.003662109375
-0.0003662109375
0.01318359375
-0.01025390625
0.0201416015625
-0.0091552734375
0.003662109375
0.0018310546875
-0.002197265625
0.00146484375
-0.000732421875
-0.000732421875
-0.0018310546875
0.0
-0.0003662109375
0.0
0.000732421875
0.0
0.0025634765625
-0.00146484375
0.0032958984375
-0.00146484375
0.003662109375
0.0
-0.0018310546875
0.003662109375
0.00146484375
-0.00146484375
0.0054931640625
-0.009521484375
-0.003662109375
0.0
-0.0047607421875
0.0054931640625
0.000732421875
0.00732421875
0.133697509765625
-0.031494140625
0.00732421875
-0.0823974609375
-0.141754150390625
0.035888671875
-0.01904296875
0.084228515625
-0.000732421875
0.0040283203125
-0.0010986328125
0.0010986328125
-0.0040283203125
0.00146484375
-0.005126953125
0.0025634765625
-0.0047607421875
0.0025634765625
0.0076904296875
-0.0054931640625
0.0157470703125
-0.0091552734375
0.0062255859375
0.00146484375
-0.0029296875
0.0054931640625
-0.0062255859375
0.005859375
0.112060546875
-0.056396484375
0.0267333984375
-0.05859375
-0.1212158203125
0.0626220703125
-0.035888671875
0.0574951171875
-0.0047607421875
-0.0025634765625
-0.0025634765625
0.0003662109375
-0.0054931640625
0.0003662109375
-0.0076904296875
-0.0010986328125
-0.0062255859375
-0.002197265625
0.0098876953125
-0.005126953125
0.0186767578125
0.0018310546875
0.0054931640625
0.009521484375
-0.00146484375
0.0047607421875
0.0010986328125
0.0003662109375
0.000732421875
-0.0003662109375
-0.0003662109375
0.0
-0.0010986328125
-0.0003662109375
-0.002197265625
0.0
-0.0018310546875
0.000732421875
-0.0003662109375
0.000732421875
0.0
0.0003662109375
-0.0018310546875
0.0010986328125
0.0010986328125
0.0003662109375
0.000732421875
-0.0003662109375
-0.0010986328125
0.0
-0.0010986328125
0.00146484375
-0.002197265625
0.00146484375
-0.0018310546875
0.00146484375
0.0010986328125
-0.0025634765625
0.0029296875
-0.00732421875
-0.0018310546875
0.000732421875
-0.0047607421875
0.0069580078125
0.0003662109375
0.009521484375
0.12890625
-0.0245361328125
0.0025634765625
-0.07177734375
-0.1417236328125
0.031494140625
-0.0194091796875
0.07763671875
-0.0032958984375
0.0069580078125
-0.00146484375
0.0029296875
-0.0029296875
0.0018310546875
-0.00732421875
0.0010986328125
-0.0098876953125
0.0025634765625
-0.0018310546875
0.000732421875
0.0172119140625
-0.0076904296875
0.0150146484375
-0.003662109375
0.0010986328125
0.0047607421875
-0.00439453125
0.0032958984375
-0.0054931640625
0.0025634765625
-0.0040283203125
0.003662109375
-0.00146484375
0.000732421875
0.0018310546875
-0.0025634765625
0.0
-0.0003662109375
-0.0010986328125
0.0
-0.0025634765625
0.0010986328125
0.000732421875
-0.0047607421875
0.0069580078125
-0.0087890625
0.0032958984375
0.000732421875
-0.00439453125
0.00439453125
-0.005126953125
0.00439453125
0.094482421875
-0.0128173828125
0.037353515625
-0.1025390625
-0.1043701171875
0.0150146484375
-0.046875
0.10400390625
0.0010986328125
0.0018310546875
0.00146484375
-0.00146484375
-0.0018310546875
-0.0025634765625
-0.002197265625
-0.0010986328125
-0.005126953125
0.0003662109375
0.0
-0.0032958984375
0.018310546875
-0.0106201171875
0.01611328125
-0.0062255859375
0.0003662109375
0.000732421875
-0.0018310546875
0.0
0.00146484375
-0.0003662109375
0.0018310546875
-0.0010986328125
0.000732421875
-0.0018310546875
0.00146484375
-0.0032958984375
0.002197265625
-0.002197265625
0.0010986328125
-0.002197265625
0.0010986328125
-0.002197265625
-0.000732421875
0.00146484375
0.0032958984375
-0.0047607421875
0.0069580078125
-0.0113525390625
0.00146484375
0.0
-0.0010986328125
0.0040283203125
-0.0032958984375
0.0040283203125
0.097412109375
-0.0179443359375
0.0450439453125
-0.106201171875
-0.106201171875
0.0201416015625
-0.0516357421875
0.1065673828125
0.0003662109375
0.0032958984375
0.0
-0.0010986328125
-0.0025634765625
-0.0018310546875
-0.0032958984375
0.000732421875
-0.00732421875
0.0029296875
-0.0003662109375
-0.00146484375
0.0194091796875
-0.0113525390625
0.0179443359375
-0.005859375
0.0010986328125
0.0032958984375
-0.0040283203125
-0.000732421875
-0.000732421875
-0.000732421875
-0.00146484375
0.002197265625
-0.0003662109375
0.0010986328125
0.00146484375
-0.0003662109375
0.0010986328125
-0.0010986328125
0.0010986328125
-0.0010986328125
-0.000732421875
0.0018310546875
0.0029296875
-0.002197265625
0.005126953125
-0.0069580078125
0.0032958984375
-0.0018310546875
-0.0029296875
0.0032958984375
-0.0047607421875
0.0025634765625
0.012451171875
0.0003662109375
0.154937744140625
-0.1058349609375
-0.010986328125
-0.05126953125
-0.161895751953125
0.1094970703125
-0.0084228515625
0.0567626953125
0.0
0.00146484375
0.000732421875
-0.0010986328125
-0.0010986328125
-0.0003662109375
-0.0054931640625
0.0010986328125
-0.00439453125
0.0
0.01318359375
-0.0091552734375
0.019775390625
-0.00732421875
0.0032958984375
0.002197265625
-0.002197265625
0.0010986328125
-0.0003662109375
0.0
0.0
0.0018310546875
-0.000732421875
0.0018310546875
0.0
-0.0003662109375
0.002197265625
-0.0018310546875
0.002197265625
-0.00146484375
0.002197265625
-0.000732421875
0.0
0.0025634765625
0.002197265625
-0.002197265625
0.005859375
-0.0098876953125
0.000732421875
0.0
-0.0047607421875
0.006591796875
-0.0029296875
0.0029296875
0.0802001953125
-0.02197265625
0.0618896484375
-0.127471923828125
-0.0845947265625
0.0157470703125
-0.0684814453125
0.132598876953125
-0.0018310546875
0.0135498046875
0.00146484375
0.0003662109375
-0.000732421875
0.0
-0.0040283203125
0.00146484375
-0.0054931640625
0.0029296875
0.000732421875
-0.002197265625
0.0172119140625
-0.009521484375
0.0146484375
-0.0032958984375
-0.0025634765625
0.003662109375
-0.0040283203125
0.00146484375
-0.0029296875
0.000732421875
-0.002197265625
0.00146484375
0.0010986328125
0.000732421875
0.0
0.0
-0.0003662109375
-0.0010986328125
0.0
-0.00146484375
0.000732421875
-0.0010986328125
0.0003662109375
0.002197265625
0.002197265625
-0.00146484375
0.0054931640625
-0.008056640625
0.0018310546875
-0.0003662109375
-0.00439453125
0.005859375
-0.005859375
0.0047607421875
0.0838623046875
-0.0201416015625
0.0509033203125
-0.110595703125
-0.0911865234375
0.018310546875
-0.0582275390625
0.1160888671875
-0.002197265625
0.010986328125
-0.0003662109375
0.00146484375
-0.00146484375
0.0003662109375
-0.0025634765625
0.0
-0.005859375
0.0
0.000732421875
-0.0032958984375
0.017578125
-0.0087890625
0.0128173828125
-0.002197265625
-0.0010986328125
0.005126953125
-0.0025634765625
0.0010986328125
-0.0010986328125
0.0
-0.000732421875
0.0010986328125
0.0
0.0
0.00146484375
-0.0010986328125
0.0
-0.0010986328125
-0.00146484375
-0.0003662109375
-0.0018310546875
-0.0003662109375
-0.002197265625
0.0029296875
0.0
-0.0010986328125
0.0029296875
-0.008056640625
-0.0003662109375
0.0003662109375
-0.0047607421875
0.006591796875
-0.00439453125
0.0054931640625
0.0838623046875
-0.0164794921875
0.03955078125
-0.104736328125
-0.0955810546875
0.0194091796875
-0.0494384765625
0.109130859375
-0.0010986328125
0.0047607421875
-0.0018310546875
0.0003662109375
-0.0025634765625
-0.0003662109375
-0.0025634765625
0.0003662109375
-0.005126953125
0.002197265625
-0.0025634765625
-0.000732421875
0.01318359375
-0.0062255859375
0.010986328125
0.0
-0.002197265625
0.0054931640625
-0.0029296875
0.0025634765625
-0.0018310546875
0.0029296875
-0.0025634765625
0.002197265625
-0.0032958984375
0.0010986328125
0.000732421875
0.0
0.0025634765625
0.0
0.000732421875
0.000732421875
0.0
0.002197265625
0.0029296875
-0.0010986328125
0.0054931640625
-0.00732421875
0.0018310546875
-0.0040283203125
-0.0040283203125
0.0025634765625
-0.0029296875
0.002197265625
0.025634765625
-0.005859375
0.1373291015625
-0.1376953125
-0.028564453125
-0.029296875
-0.1468505859375
0.1395263671875
-0.0032958984375
0.0384521484375
0.0010986328125
0.0003662109375
-0.002197265625
-0.0018310546875
-0.0018310546875
-0.000732421875
-0.0040283203125
0.0003662109375
-0.002197265625
0.0010986328125
0.01171875
-0.008056640625
0.0157470703125
-0.0091552734375
0.003662109375
0.0003662109375
-0.0003662109375
0.000732421875
-0.000732421875
-0.00146484375
-0.000732421875
-0.000732421875
0.002197265625
0.0
0.000732421875
-0.00146484375
0.0018310546875
-0.0025634765625
0.00146484375
-0.002197265625
-0.0003662109375
-0.0003662109375
-0.0010986328125
0.000732421875
0.0029296875
-0.0040283203125
0.0054931640625
-0.006591796875
-0.0025634765625
-0.0003662109375
-0.0029296875
0.002197265625
0.0084228515625
0.005126953125
0.151275634765625
-0.0692138671875
-0.0029296875
-0.0626220703125
-0.157867431640625
0.0714111328125
-0.01171875
0.062255859375
-0.000732421875
0.0018310546875
0.000732421875
-0.0018310546875
-0.000732421875
-0.0003662109375
-0.0062255859375
0.00146484375
-0.006591796875
-0.00146484375
0.0084228515625
-0.0091552734375
0.019775390625
-0.01025390625
0.0076904296875
0.0003662109375
-0.0010986328125
0.003662109375
0.0
0.0003662109375
0.0
-0.0003662109375
-0.0010986328125
0.0003662109375
0.0003662109375
-0.0003662109375
0.002197265625
-0.0010986328125
0.0010986328125
-0.0010986328125
-0.0003662109375
-0.0003662109375
-0.0029296875
0.0032958984375
0.0025634765625
-0.0018310546875
0.005126953125
-0.008056640625
-0.0025634765625
0.000732421875
-0.0025634765625
0.005126953125
0.0054931640625
0.0076904296875
0.141754150390625
-0.044677734375
0.002197265625
-0.076171875
-0.149810791015625
0.0487060546875
-0.0150146484375
0.076904296875
0.0
0.0018310546875
-0.0010986328125
-0.000732421875
-0.0018310546875
0.0003662109375
-0.005859375
0.0018310546875
-0.0069580078125
0.0032958984375
0.0069580078125
-0.0054931640625
0.01904296875
-0.009521484375
0.0106201171875
-0.0003662109375
0.0
0.0029296875
0.000732421875
0.0
0.000732421875
0.0
0.0003662109375
0.0003662109375
0.002197265625
0.0
0.0018310546875
-0.0003662109375
0.00146484375
-0.00146484375
0.0010986328125
-0.0010986328125
0.0
0.002197265625
0.0040283203125
-0.0032958984375
0.008056640625
-0.0084228515625
-0.000732421875
0.000732421875
-0.003662109375
0.0025634765625
0.005126953125
0.0040283203125
0.148345947265625
-0.0615234375
-0.000732421875
-0.06591796875
-0.159332275390625
0.06591796875
-0.013916015625
0.0677490234375
0.0010986328125
0.0032958984375
0.0010986328125
0.000732421875
-0.002197265625
0.0010986328125
-0.0047607421875
0.002197265625
-0.005126953125
0.0003662109375
0.005859375
-0.0069580078125
0.0172119140625
-0.006591796875
0.005126953125
0.0029296875
-0.0032958984375
0.002197265625
-0.000732421875
-0.0010986328125
-0.0003662109375
0.0018310546875
0.0003662109375
0.00146484375
0.00146484375
-0.000732421875
0.00146484375
-0.0003662109375
-0.0010986328125
0.0
-0.00146484375
0.0
-0.0032958984375
0.0029296875
0.0018310546875
-0.0029296875
0.006591796875
-0.00732421875
-0.003662109375
0.002197265625
-0.005126953125
0.0029296875
0.0076904296875
0.006591796875
0.148712158203125
-0.0618896484375
-0.00732421875
-0.0604248046875
-0.157501220703125
0.0677490234375
-0.0128173828125
0.062255859375
-0.0025634765625
0.002197265625
-0.000732421875
-0.0003662109375
-0.0032958984375
0.00146484375
-0.005126953125
0.0
-0.005126953125
-0.0010986328125
0.00732421875
-0.005126953125
0.0142822265625
-0.0047607421875
0.00439453125
0.0054931640625
-0.0029296875
0.005859375
-0.0010986328125
0.0010986328125
-0.0003662109375
0.0029296875
-0.0025634765625
0.0029296875
0.0
0.00146484375
-0.000732421875
-0.000732421875
-0.00146484375
-0.000732421875
0.0
0.002197265625
-0.0003662109375
-0.00146484375
0.003662109375
-0.005126953125
0.0018310546875
-0.0003662109375
-0.0054931640625
0.0029296875
-0.0054931640625
0.0047607421875
0.0765380859375
-0.0150146484375
0.060791015625
-0.1182861328125
-0.0853271484375
0.01171875
-0.06884765625
0.1212158203125
-0.0018310546875
0.0098876953125
0.0003662109375
0.0
0.0029296875
-0.002197265625
-0.0025634765625
-0.0029296875
-0.0084228515625
0.002197265625
-0.0003662109375
-0.002197265625
0.017578125
-0.0113525390625
0.018310546875
-0.006591796875
0.0029296875
-0.0003662109375
-0.0018310546875
0.000732421875
-0.0003662109375
-0.0010986328125
-0.0003662109375
0.0
0.002197265625
-0.00146484375
0.002197265625
-0.0025634765625
0.0010986328125
-0.0018310546875
0.000732421875
-0.00146484375
-0.0029296875
0.0032958984375
0.002197265625
-0.0047607421875
0.0047607421875
-0.0062255859375
-0.003662109375
0.0
-0.0047607421875
0.0
0.024169921875
-0.003662109375
0.148712158203125
-0.126007080078125
-0.0238037109375
-0.03369140625
-0.154571533203125
0.130035400390625
-0.0069580078125
0.04248046875
0.0010986328125
0.0
0.00146484375
-0.0010986328125
-0.0010986328125
0.0
-0.008056640625
0.0029296875
-0.0084228515625
0.0018310546875
0.01171875
-0.0069580078125
0.019775390625
-0.008056640625
0.00439453125
0.000732421875
-0.0018310546875
0.000732421875
0.0
-0.000732421875
0.0
0.0010986328125
0.0003662109375
-0.0003662109375
0.0003662109375
-0.0032958984375
0.0003662109375
-0.0047607421875
-0.0010986328125
-0.000732421875
-0.003662109375
0.0054931640625
0.0032958984375
-0.002197265625
0.006591796875
-0.009521484375
0.0
-0.000732421875
-0.0018310546875
0.00146484375
0.006591796875
0.0047607421875
0.148345947265625
-0.0615234375
-0.003662109375
-0.0699462890625
-0.160064697265625
0.0655517578125
-0.015380859375
0.0699462890625
-0.0003662109375
0.00146484375
-0.000732421875
-0.0018310546875
0.00146484375
-0.00146484375
-0.0018310546875
0.000732421875
-0.00732421875
0.002197265625
0.0054931640625
-0.0047607421875
0.015380859375
-0.0076904296875
0.005126953125
0.002197265625
-0.003662109375
0.00439453125
-0.002197265625
0.0025634765625
-0.0018310546875
0.0025634765625
0.0003662109375
0.0018310546875
0.0018310546875
0.002197265625
0.00146484375
0.0003662109375
0.0010986328125
0.0003662109375
-0.0018310546875
0.003662109375
0.0032958984375
-0.0025634765625
0.005859375
-0.006591796875
-0.002197265625
0.0018310546875
-0.0047607421875
0.0032958984375
0.0098876953125
0.0025634765625
0.153472900390625
-0.0882568359375
-0.0091552734375
-0.0523681640625
-0.161529541015625
0.09521484375
-0.010986328125
0.0582275390625
0.0
-0.0003662109375
-0.0003662109375
-0.0032958984375
-0.00146484375
-0.0010986328125
-0.00439453125
0.00146484375
-0.005859375
0.0018310546875
0.0106201171875
-0.0054931640625
0.0186767578125
-0.0062255859375
0.0054931640625
0.0025634765625
-0.002197265625
0.0029296875
0.0
0.0
0.0
-0.000732421875
0.00146484375
-0.0018310546875
0.0040283203125
-0.000732421875
0.0032958984375
-0.0010986328125
0.0025634765625
-0.0010986328125
0.0003662109375
-0.0010986328125
0.0054931640625
-0.0076904296875
0.005859375
-0.0040283203125
-0.0003662109375
0.0018310546875
-0.0003662109375
0.0010986328125
0.075439453125
-0.02490234375
0.0732421875
-0.131866455078125
-0.073974609375
0.0087890625
-0.0743408203125
0.130401611328125
-0.0018310546875
0.0157470703125
0.0025634765625
-0.00146484375
0.0018310546875
-0.00146484375
0.0
-0.000732421875
-0.002197265625
-0.000732421875
0.002197265625
-0.00439453125
0.01904296875
-0.01171875
0.0164794921875
-0.006591796875
0.0029296875
0.000732421875
0.0018310546875
-0.000732421875
0.000732421875
-0.002197265625
0.00146484375
-0.002197265625
0.0029296875
-0.0018310546875
0.0025634765625
-0.0025634765625
0.002197265625
-0.002197265625
0.0003662109375
0.0025634765625
0.0029296875
-0.000732421875
0.006591796875
-0.012451171875
-0.0025634765625
-0.0054931640625
-0.005859375
0.005126953125
-0.0003662109375
0.006591796875
0.120147705078125
-0.025634765625
0.017578125
-0.0908203125
-0.131134033203125
0.032958984375
-0.030029296875
0.0963134765625
-0.002197265625
0.0029296875
0.0003662109375
0.000732421875
-0.00146484375
0.0018310546875
-0.0047607421875
0.0032958984375
-0.0062255859375
0.0025634765625
-0.0003662109375
-0.002197265625
0.010986328125
-0.00439453125
0.0032958984375
0.002197265625
-0.005126953125
0.0047607421875
-0.0025634765625
0.00146484375
-0.0025634765625
0.0025634765625
-0.0010986328125
0.003662109375
0.000732421875
0.0003662109375
0.0018310546875
0.0
-0.000732421875
0.00146484375
-0.00439453125
0.003662109375
0.0025634765625
-0.0003662109375
0.005859375
-0.0054931640625
-0.0054931640625
0.003662109375
-0.0069580078125
0.006591796875
0.0029296875
0.010986328125
0.131866455078125
-0.0296630859375
-0.0040283203125
-0.0662841796875
-0.146148681640625
0.0380859375
-0.0142822265625
0.0670166015625
-0.0025634765625
0.0047607421875
-0.00439453125
0.0032958984375
-0.0054931640625
0.0040283203125
-0.0084228515625
0.003662109375
-0.0084228515625
0.000732421875
0.0032958984375
-0.0010986328125
0.013916015625
0.000732421875
0.0025634765625
0.0084228515625
-0.0076904296875
0.009521484375
-0.00732421875
0.0047607421875
-0.0054931640625
0.0032958984375
-0.0025634765625
0.003662109375
-0.0040283203125
0.0018310546875
-0.0040283203125
0.000732421875
-0.0025634765625
0.0032958984375
-0.0032958984375
0.006591796875
0.0003662109375
-0.00146484375
0.0032958984375
-0.0069580078125
-0.0029296875
0.0029296875
-0.0054931640625
0.003662109375
0.0076904296875
0.0054931640625
0.15087890625
-0.0750732421875
-0.00732421875
-0.05419921875
-0.1607666015625
0.0809326171875
-0.0128173828125
0.054931640625
-0.0029296875
0.0010986328125
-0.0029296875
-0.0003662109375
-0.0040283203125
0.0
-0.0054931640625
-0.000732421875
-0.0029296875
0.0003662109375
0.0106201171875
-0.00439453125
0.0194091796875
-0.01025390625
0.0062255859375
-0.0040283203125
-0.000732421875
0.002197265625
0.0003662109375
-0.0003662109375
0.000732421875
-0.0040283203125
0.002197265625
-0.0029296875
0.0
-0.00146484375
0.0003662109375
-0.0025634765625
0.0025634765625
-0.000732421875
0.00146484375
0.00146484375
0.005859375
-0.005859375
0.006591796875
-0.005859375
-0.0032958984375
0.00146484375
-0.0040283203125
0.0
0.021240234375
-0.0032958984375
0.1534423828125
-0.11865234375
-0.0194091796875
-0.043212890625
-0.158935546875
0.1201171875
-0.006591796875
0.04833984375
0.000732421875
0.00146484375
-0.000732421875
-0.0018310546875
-0.0032958984375
-0.0010986328125
-0.0062255859375
0.0029296875
-0.0029296875
0.000732421875
0.0135498046875
-0.0091552734375
0.0194091796875
-0.008056640625
0.0040283203125
0.0003662109375
-0.0018310546875
0.002197265625
0.000732421875
0.0003662109375
0.0
-0.0010986328125
-0.0003662109375
-0.000732421875
0.0
-0.00146484375
0.002197265625
-0.0025634765625
0.000732421875
-0.00146484375
-0.0010986328125
0.0018310546875
0.0040283203125
-0.0029296875
0.0054931640625
-0.0076904296875
-0.00146484375
0.0
-0.0029296875
0.0018310546875
0.0098876953125
0.0018310546875
0.152374267578125
-0.0758056640625
-0.0069580078125
-0.0611572265625
-0.161163330078125
0.0791015625
-0.01171875
0.063720703125
-0.0010986328125
0.0010986328125
-0.00146484375
-0.0018310546875
-0.0018310546875
0.0
-0.006591796875
0.0025634765625
-0.005126953125
0.002197265625
0.0098876953125
-0.006591796875
0.019775390625
-0.0091552734375
0.0076904296875
0.0
-0.002197265625
0.002197265625
-0.000732421875
0.0
-0.00146484375
0.0003662109375
-0.0003662109375
0.0003662109375
0.0018310546875
-0.00146484375
0.0032958984375
-0.0025634765625
0.00146484375
-0.00146484375
-0.000732421875
0.002197265625
0.0040283203125
-0.0029296875
0.00732421875
-0.01171875
0.003662109375
-0.0040283203125
-0.00146484375
0.005126953125
-0.00146484375
0.0069580078125
0.1204833984375
-0.0303955078125
0.0289306640625
-0.1014404296875
-0.1256103515625
0.03515625
-0.0333251953125
0.10400390625
0.002197265625
0.0025634765625
0.0003662109375
-0.000732421875
-0.0010986328125
0.0
-0.0040283203125
0.002197265625
-0.006591796875
0.000732421875
0.0018310546875
-0.0025634765625
0.016845703125
-0.00732421875
0.0113525390625
-0.0032958984375
-0.0018310546875
0.0018310546875
-0.002197265625
0.0003662109375
-0.002197265625
0.0
-0.0003662109375
0.0
0.0010986328125
0.0010986328125
0.0018310546875
0.0
0.0010986328125
-0.0003662109375
-0.000732421875
0.000732421875
-0.002197265625
0.003662109375
0.00146484375
-0.000732421875
0.0062255859375
-0.0106201171875
-0.002197265625
-0.00146484375
-0.0047607421875
0.0054931640625
0.000732421875
0.0062255859375
0.134033203125
-0.0325927734375
0.01171875
-0.088623046875
-0.144287109375
0.0380859375
-0.0230712890625
0.0911865234375
-0.0003662109375
0.00146484375
0.000732421875
-0.0003662109375
-0.0018310546875
0.00146484375
-0.005859375
0.0010986328125
-0.0062255859375
0.0
0.0047607421875
-0.0040283203125
0.016845703125
-0.005859375
0.008056640625
0.0010986328125
-0.0018310546875
0.0029296875
-0.0018310546875
-0.0010986328125
-0.000732421875
-0.0003662109375
-0.0003662109375
0.0018310546875
-0.000732421875
0.000732421875
0.000732421875
-0.0010986328125
0.0003662109375
-0.0010986328125
-0.0003662109375
-0.000732421875
-0.0029296875
0.0032958984375
0.0018310546875
-0.0010986328125
0.0054931640625
-0.0087890625
-0.002197265625
0.0
-0.0029296875
0.0054931640625
0.0010986328125
0.0047607421875
0.13037109375
-0.0318603515625
0.0106201171875
-0.0875244140625
-0.1395263671875
0.03515625
-0.022705078125
0.0897216796875
-0.0010986328125
0.0025634765625
0.0
-0.000732421875
-0.00146484375
-0.00146484375
-0.003662109375
-0.00146484375
-0.00439453125
-0.002197265625
0.006591796875
-0.0069580078125
0.01611328125
-0.0047607421875
0.005859375
0.00439453125
-0.00439453125
0.0054931640625
-0.002197265625
0.0018310546875
-0.0003662109375
0.0
0.0
0.0029296875
0.0003662109375
0.00146484375
0.0018310546875
-0.00146484375
0.0201416015625
-0.0289306640625
0.0501708984375
0.0267333984375
0.0040283203125
0.290435791015625
-0.14501953125
0.145782470703125
-0.032958984375
-0.263336181640625
0.0904541015625
-0.216094970703125
0.0062255859375
-0.05126953125
0.0
-0.0208740234375
0.0010986328125
-0.030029296875
0.0054931640625
-0.049072265625
0.0098876953125
-0.0501708984375
0.013916015625
-0.0010986328125
0.0018310546875
0.079833984375
-0.01904296875
0.113525390625
-0.017578125
0.06298828125
-0.006591796875
0.0120849609375
0.0003662109375
0.000732421875
0.0029296875
0.002197265625
0.002197265625
-0.0003662109375
0.0003662109375
-0.0029296875
0.0003662109375
-0.0018310546875
0.0003662109375
-0.0029296875
-0.000732421875
-0.0032958984375
0.0010986328125
0.0
0.003662109375
-0.00146484375
0.0029296875
-0.005859375
0.0010986328125
-0.002197265625
0.002197265625
-0.0029296875
0.000732421875
-0.0010986328125
0.0032958984375
-0.006591796875
0.0047607421875
-0.0084228515625
-0.0025634765625
0.00146484375
-0.002197265625
-0.0010986328125
0.034423828125
-0.0135498046875
0.114990234375
-0.120849609375
-0.037353515625
-0.013916015625
-0.1226806640625
0.122314453125
-0.0040283203125
0.0281982421875
-0.000732421875
0.000732421875
-0.0010986328125
-0.0018310546875
-0.003662109375
0.0
-0.0054931640625
0.002197265625
-0.005126953125
0.005126953125
0.010986328125
-0.0047607421875
0.0223388671875
-0.010986328125
0.0069580078125
-0.0029296875
-0.0029296875
0.000732421875
-0.0018310546875
0.0
-0.000732421875
0.0010986328125
0.0
0.00146484375
0.0
-0.002197265625
0.0003662109375
-0.0018310546875
0.0010986328125
0.0
-0.0025634765625
0.0032958984375
0.000732421875
-0.0018310546875
0.00732421875
-0.00732421875
-0.0018310546875
0.0003662109375
-0.005126953125
0.0025634765625
0.005126953125
0.0069580078125
0.13623046875
-0.046875
-0.002197265625
-0.059326171875
-0.145751953125
0.0509033203125
-0.0113525390625
0.0596923828125
0.000732421875
0.0032958984375
0.0003662109375
-0.000732421875
-0.0010986328125
0.000732421875
-0.0062255859375
0.00146484375
-0.006591796875
0.0010986328125
0.0087890625
-0.0032958984375
0.0172119140625
-0.006591796875
0.0054931640625
0.0003662109375
-0.003662109375
0.003662109375
-0.0025634765625
0.00146484375
0.0003662109375
0.0010986328125
-0.0010986328125
0.0003662109375
0.0025634765625
-0.0010986328125
0.00146484375
-0.0003662109375
0.0
0.0003662109375
-0.000732421875
0.0025634765625
0.0
-0.0010986328125
0.0054931640625
-0.01025390625
0.000732421875
-0.0029296875
-0.0025634765625
0.0076904296875
-0.0025634765625
0.005859375
0.1043701171875
-0.0238037109375
0.0340576171875
-0.101806640625
-0.1131591796875
0.0263671875
-0.0413818359375
0.10546875
-0.0010986328125
0.0029296875
-0.00146484375
0.0003662109375
-0.0032958984375
0.000732421875
-0.0047607421875
0.0018310546875
-0.006591796875
0.0025634765625
0.000732421875
-0.0018310546875
0.019775390625
-0.0098876953125
0.0146484375
-0.0047607421875
0.0
0.0029296875
-0.002197265625
0.00146484375
0.0
0.0003662109375
-0.0003662109375
0.0
0.0
-0.0018310546875
0.0025634765625
-0.0018310546875
0.00146484375
-0.0003662109375
0.0018310546875
0.0010986328125
0.0003662109375
0.0003662109375
0.005859375
-0.0069580078125
0.0062255859375
-0.003662109375
-0.00146484375
0.002197265625
-0.0018310546875
0.00146484375
0.0648193359375
-0.0201416015625
0.08056640625
-0.130401611328125
-0.0684814453125
0.003662109375
-0.0867919921875
0.134796142578125
-0.0010986328125
0.02197265625
0.0018310546875
-0.00146484375
-0.000732421875
-0.0029296875
-0.0018310546875
-0.0010986328125
-0.00439453125
0.000732421875
0.000732421875
-0.0018310546875
0.018310546875
-0.0106201171875
0.016845703125
-0.0069580078125
0.002197265625
0.00146484375
-0.000732421875
-0.0003662109375
0.0003662109375
-0.0010986328125
0.0003662109375
0.0
0.000732421875
0.0
0.0018310546875
-0.00146484375
0.00146484375
-0.0018310546875
0.00146484375
-0.000732421875
0.000732421875
0.000732421875
0.0047607421875
-0.0069580078125
0.005859375
-0.0084228515625
-0.0018310546875
0.0003662109375
-0.0025634765625
0.0003662109375
0.02490234375
-0.00732421875
0.134063720703125
-0.129302978515625
-0.0260009765625
-0.0322265625
-0.142486572265625
0.133331298828125
-0.0076904296875
0.0443115234375
0.0003662109375
0.0018310546875
0.0
-0.00146484375
-0.000732421875
-0.00146484375
-0.0029296875
0.0003662109375
-0.002197265625
-0.003662109375
0.01318359375
-0.009521484375
0.015380859375
-0.0040283203125
0.00146484375
0.00439453125
-0.0029296875
0.0032958984375
-0.00146484375
0.0003662109375
-0.0003662109375
0.000732421875
0.0
0.0018310546875
0.0003662109375
0.0018310546875
0.0010986328125
-0.0003662109375
0.0018310546875
-0.0010986328125
-0.0025634765625
0.0032958984375
0.0010986328125
-0.0032958984375
0.0029296875
-0.006591796875
-0.005859375
0.0018310546875
-0.005126953125
0.0025634765625
0.013916015625
-0.0003662109375
0.146881103515625
-0.1065673828125
-0.0146484375
-0.046142578125
-0.156402587890625
0.113525390625
-0.0128173828125
0.0567626953125
-0.0025634765625
0.003662109375
-0.0025634765625
0.0018310546875
-0.005126953125
0.0010986328125
-0.0040283203125
0.0010986328125
-0.0032958984375
0.0
0.0120849609375
-0.0069580078125
0.0157470703125
-0.0032958984375
0.0010986328125
0.005126953125
-0.0025634765625
0.0029296875
-0.002197265625
0.00146484375
-0.002197265625
0.002197265625
0.0
0.0018310546875
0.000732421875
0.000732421875
0.0010986328125
-0.0010986328125
0.002197265625
-0.0003662109375
-0.0010986328125
0.00146484375
0.00439453125
-0.0054931640625
0.003662109375
-0.002197265625
-0.005126953125
0.005126953125
-0.0040283203125
0.002197265625
0.049072265625
-0.01611328125
0.085693359375
-0.132598876953125
-0.056396484375
-0.0010986328125
-0.09521484375
0.140655517578125
-0.0054931640625
0.0267333984375
-0.002197265625
0.000732421875
-0.0010986328125
0.000732421875
-0.0032958984375
0.0010986328125
-0.005859375
0.00146484375
-0.002197265625
-0.0032958984375
0.01171875
-0.0087890625
0.0106201171875
-0.000732421875
-0.002197265625
0.005859375
-0.003662109375
0.0029296875
-0.0025634765625
0.0018310546875
-0.0025634765625
0.0106201171875
-0.00146484375
0.009521484375
