-0.146148681640625
-0.0809326171875
-0.148712158203125
-0.0758056640625
0.0029296875
0.0069580078125
0.0025634765625
0.0047607421875
-0.000732421875
-0.0003662109375
-0.00146484375
0.01025390625
-0.0032958984375
0.01171875
0.00439453125
0.0
0.006988525390625
-0.0003662109375
0.009185791015625
-0.0076904296875
-0.076202392578125
0.221954345703125
0.0120849609375
0.0615234375
0.088653564453125
-0.240631103515625
-0.0054931640625
-0.076171875
0.002197265625
-0.0054931640625
0.0040283203125
-0.0084228515625
0.005126953125
-0.0062255859375
0.003662109375
-0.01025390625
0.006591796875
-0.016845703125
0.005126953125
-0.0010986328125
-0.0018310546875
0.04248046875
-0.005126953125
0.050537109375
-0.0018310546875
0.0142822265625
0.006591796875
-0.0032958984375
0.006591796875
-0.005859375
0.0069580078125
-0.003662109375
0.005859375
-0.000732421875
0.0062255859375
-0.0010986328125
0.00439453125
0.0062255859375
0.00146484375
0.00439453125
0.0029296875
-0.002197265625
0.0040283203125
-0.0018310546875
0.00439453125
0.000732421875
0.0025634765625
-0.0087890625
0.0
0.0003662109375
0.0
0.0128173828125
0.0076904296875
-0.0032958984375
0.00732421875
-0.0029296875
0.008056640625
-0.008056640625
-0.079132080078125
0.257476806640625
0.01611328125
0.0333251953125
0.097442626953125
-0.278717041015625
-0.005126953125
-0.052734375
0.000732421875
-0.00732421875
-0.000732421875
-0.0032958984375
0.000732421875
-0.0135498046875
0.002197265625
-0.01904296875
0.000732421875
-0.0179443359375
0.0069580078125
-0.0128173828125
-0.003662109375
0.0380859375
-0.00732421875
0.052734375
-0.0010986328125
0.0146484375
0.0003662109375
-0.0018310546875
0.0047607421875
-0.0150146484375
0.00146484375
-0.0069580078125
0.0010986328125
0.0098876953125
0.005859375
-0.0003662109375
0.005126953125
-0.00732421875
-0.002197265625
-0.00146484375
-0.0428466796875
0.112060546875
0.0025634765625
0.131103515625
0.0501708984375
-0.134765625
0.003662109375
-0.153076171875
-0.0062255859375
-0.0025634765625
-0.0010986328125
-0.0029296875
-0.0010986328125
-0.005859375
0.0010986328125
-0.010986328125
0.0010986328125
-0.0120849609375
0.00146484375
-0.0076904296875
-0.0025634765625
0.03369140625
-0.01025390625
0.053466796875
-0.0010986328125
0.0142822265625
0.000732421875
-0.0010986328125
0.0040283203125
0.0003662109375
0.003662109375
0.0040283203125
0.00439453125
0.01025390625
0.005859375
0.0054931640625
0.0018310546875
0.0029296875
0.0018310546875
0.002197265625
-0.0047607421875
0.01025390625
-0.0029296875
0.0157470703125
0.0025634765625
0.0054931640625
0.00732421875
-0.0018310546875
0.005859375
-0.0040283203125
-0.0845947265625
0.219390869140625
0.01318359375
0.0604248046875
0.0882568359375
-0.234771728515625
-0.0098876953125
-0.0772705078125
-0.0029296875
-0.003662109375
-0.0003662109375
-0.000732421875
0.0003662109375
-0.0029296875
0.003662109375
-0.0106201171875
0.0032958984375
-0.01318359375
0.0
-0.0003662109375
-0.000732421875
0.038818359375
-0.0062255859375
0.04833984375
-0.005126953125
0.0201416015625
-0.002197265625
0.0076904296875
0.0032958984375
-0.0025634765625
0.0047607421875
-0.0062255859375
0.003662109375
0.0
0.002197265625
0.008056640625
0.00146484375
0.0029296875
0.0029296875
0.00146484375
0.000732421875
0.005126953125
0.0018310546875
0.002197265625
-0.000732421875
0.003662109375
0.002197265625
-0.0069580078125
0.0025634765625
-0.0091552734375
-0.0029296875
0.0091552734375
0.0029296875
0.0025634765625
0.00439453125
-0.005859375
0.0029296875
0.002197265625
-0.0186767578125
0.031494140625
-0.047607421875
0.237335205078125
0.0234375
-0.0479736328125
0.0552978515625
-0.271392822265625
0.0025634765625
-0.0186767578125
-0.00146484375
-0.006591796875
-0.0010986328125
-0.006591796875
-0.00146484375
-0.0106201171875
0.005859375
-0.0223388671875
0.0047607421875
-0.0208740234375
0.000732421875
0.0142822265625
-0.0047607421875
0.0552978515625
-0.0054931640625
0.0369873046875
-0.0010986328125
0.002197265625
-0.0018310546875
0.0029296875
-0.0003662109375
-0.0018310546875
-0.0032958984375
0.0029296875
-0.00146484375
0.0150146484375
0.0025634765625
0.00439453125
0.0047607421875
-0.0029296875
0.002197265625
0.0025634765625
-0.01611328125
0.024169921875
-0.053466796875
0.261505126953125
0.02197265625
-0.035888671875
0.0604248046875
-0.282379150390625
-0.0003662109375
-0.01318359375
0.0029296875
-0.008056640625
-0.000732421875
-0.0040283203125
-0.0010986328125
-0.0098876953125
0.00439453125
-0.0223388671875
0.0040283203125
-0.0216064453125
-0.0003662109375
0.0238037109375
-0.0069580078125
0.05712890625
-0.003662109375
0.0303955078125
0.0
0.000732421875
0.0040283203125
-0.0076904296875
0.0029296875
-0.008056640625
-0.0003662109375
-0.0025634765625
0.0018310546875
-0.0010986328125
-0.0010986328125
0.0
-0.000732421875
0.0032958984375
-0.0029296875
0.000732421875
-0.002197265625
-0.0003662109375
0.0003662109375
-0.0069580078125
-0.0010986328125
-0.0062255859375
-0.0029296875
0.006591796875
0.002197265625
-0.0025634765625
0.002197265625
-0.00732421875
-0.0047607421875
-0.002197265625
-0.06005859375
0.158935546875
0.0062255859375
0.100341796875
0.06298828125
-0.1673583984375
-0.0029296875
-0.11572265625
-0.0003662109375
-0.0142822265625
-0.0003662109375
-0.005859375
-0.000732421875
-0.006591796875
0.0010986328125
-0.0135498046875
-0.002197265625
-0.016845703125
0.000732421875
-0.010986328125
-0.0029296875
0.0289306640625
-0.0146484375
0.0538330078125
-0.022705078125
0.035888671875
-0.0380859375
0.03955078125
-0.0406494140625
0.0399169921875
-0.0230712890625
0.0205078125
-0.0098876953125
0.0150146484375
-0.005126953125
0.01318359375
0.003662109375
0.009521484375
0.0087890625
0.00439453125
0.010986328125
0.0018310546875
0.0128173828125
0.0069580078125
0.01318359375
-0.0003662109375
0.01318359375
0.0
0.0128173828125
0.0069580078125
0.0186767578125
0.0032958984375
0.027099609375
-0.0018310546875
0.030029296875
-0.0018310546875
0.0216064453125
-0.000732421875
0.01318359375
0.0025634765625
0.0164794921875
0.0106201171875
0.0260009765625
0.0029296875
0.0267333984375
-0.0003662109375
0.0186767578125
-0.0010986328125
-0.0615234375
0.228546142578125
0.029296875
0.0377197265625
0.101806640625
-0.243927001953125
0.01611328125
-0.0501708984375
0.02197265625
0.003662109375
0.0142822265625
0.0098876953125
0.002197265625
0.0040283203125
-0.002197265625
-0.010986328125
-0.009521484375
-0.0205078125
-0.01025390625
-0.01025390625
-0.0069580078125
0.0281982421875
-0.01025390625
0.03955078125
-0.008056640625
0.0146484375
-0.003662109375
-0.009521484375
0.002197265625
-0.0146484375
0.0003662109375
-0.0047607421875
0.0029296875
-0.00146484375
0.0003662109375
-0.00146484375
-0.0029296875
0.00439453125
-0.003662109375
0.0135498046875
-0.00439453125
0.0032958984375
-0.0018310546875
0.0
-0.006591796875
0.0025634765625
-0.02783203125
0.04541015625
-0.034423828125
0.198883056640625
0.024169921875
-0.0758056640625
0.029296875
-0.236602783203125
-0.0091552734375
-0.0084228515625
-0.0047607421875
-0.0069580078125
0.0
-0.01904296875
0.0018310546875
-0.022705078125
0.0010986328125
-0.0263671875
0.0025634765625
-0.0245361328125
-0.0069580078125
0.022705078125
-0.0142822265625
0.05712890625
-0.0087890625
0.0252685546875
-0.003662109375
-0.0062255859375
-0.00146484375
-0.0032958984375
-0.0029296875
-0.002197265625
-0.0032958984375
-0.0025634765625
-0.0054931640625
0.0040283203125
-0.0040283203125
0.00146484375
-0.0040283203125
0.0029296875
-0.00146484375
-0.0047607421875
0.0018310546875
-0.0091552734375
-0.00439453125
0.0098876953125
-0.000732421875
0.005126953125
0.000732421875
-0.000732421875
-0.0018310546875
0.0062255859375
-0.0032958984375
-0.0029296875
-0.1058349609375
0.288970947265625
-0.002197265625
0.0025634765625
0.0941162109375
-0.312042236328125
-0.0098876953125
-0.02490234375
-0.0054931640625
-0.00732421875
0.0
-0.00732421875
-0.0010986328125
-0.0106201171875
0.0
-0.017578125
-0.0003662109375
-0.0201416015625
-0.0029296875
-0.000732421875
-0.0084228515625
0.0443115234375
-0.01318359375
0.044677734375
-0.0106201171875
0.0113525390625
-0.0098876953125
0.0010986328125
0.000732421875
-0.0084228515625
0.0113525390625
-0.0150146484375
0.016845703125
-0.006591796875
0.00146484375
0.012451171875
-0.01318359375
0.012451171875
-0.00146484375
-0.0018310546875
0.00146484375
-0.0069580078125
-0.0018310546875
-0.0047607421875
-0.0992431640625
0.268829345703125
0.0040283203125
0.006591796875
0.09521484375
-0.291534423828125
-0.0076904296875
-0.030029296875
-0.0003662109375
-0.00732421875
-0.0010986328125
-0.0106201171875
-0.00439453125
-0.0047607421875
-0.005126953125
-0.0098876953125
0.000732421875
-0.0216064453125
-0.0029296875
0.0025634765625
-0.0091552734375
0.04833984375
-0.0113525390625
0.0457763671875
-0.0054931640625
0.0084228515625
-0.0010986328125
-0.003662109375
-0.005859375
-0.0047607421875
-0.002197265625
-0.008056640625
-0.00439453125
0.009521484375
-0.003662109375
0.0091552734375
0.0029296875
-0.0018310546875
0.002197265625
0.0025634765625
0.0032958984375
-0.0087890625
-0.0831298828125
0.224517822265625
0.0098876953125
0.043212890625
0.085693359375
-0.251251220703125
-0.0062255859375
-0.0677490234375
0.000732421875
-0.0113525390625
-0.005859375
-0.0025634765625
-0.0054931640625
-0.005126953125
0.0010986328125
-0.02197265625
0.002197265625
-0.0263671875
-0.00439453125
0.0018310546875
-0.0087890625
0.0450439453125
-0.0128173828125
0.0498046875
-0.00439453125
0.0150146484375
-0.00146484375
-0.00146484375
0.0
-0.0032958984375
0.0010986328125
0.0010986328125
0.00146484375
-0.000732421875
0.005859375
-0.002197265625
0.0029296875
0.0029296875
0.002197265625
0.0003662109375
-0.0010986328125
0.0025634765625
-0.0047607421875
0.0003662109375
-0.00732421875
-0.000732421875
-0.00732421875
0.00146484375
-0.0128173828125
0.0025634765625
-0.0157470703125
0.005859375
-0.0091552734375
0.0062255859375
0.0003662109375
-0.0047607421875
0.0062255859375
-0.0091552734375
-0.0303955078125
0.059326171875
-0.029296875
0.195587158203125
0.035888671875
-0.0831298828125
0.035888671875
-0.231475830078125
0.0003662109375
-0.0150146484375
-0.005126953125
-0.000732421875
0.003662109375
-0.009521484375
0.0047607421875
-0.0135498046875
0.0040283203125
-0.019775390625
0.0040283203125
-0.0234375
-0.002197265625
0.016845703125
-0.0087890625
0.056396484375
-0.0062255859375
0.027099609375
0.000732421875
0.002197265625
0.0003662109375
-0.0003662109375
-0.0029296875
-0.0062255859375
-0.0113525390625
-0.0032958984375
-0.0098876953125
-0.0098876953125
-0.0098876953125
0.005859375
-0.0076904296875
0.0164794921875
0.0010986328125
0.0029296875
0.0018310546875
-0.00439453125
0.002197265625
-0.0062255859375
-0.059326171875
0.158966064453125
0.005859375
0.099609375
0.0611572265625
-0.174346923828125
-0.002197265625
-0.1182861328125
0.0010986328125
-0.0062255859375
0.0003662109375
-0.005859375
0.00146484375
-0.0091552734375
0.0025634765625
-0.016845703125
0.00439453125
-0.0245361328125
-0.000732421875
-0.01025390625
-0.0054931640625
0.034423828125
-0.0146484375
0.0582275390625
-0.012451171875
0.02783203125
-0.0040283203125
-0.0029296875
-0.00439453125
-0.0069580078125
-0.0018310546875
0.00146484375
0.0
0.0054931640625
0.0047607421875
0.0076904296875
-0.0069580078125
0.01611328125
-0.013916015625
0.002197265625
-0.00439453125
-0.0087890625
0.0010986328125
0.0084228515625
0.01318359375
0.002197265625
0.021240234375
-0.00732421875
0.0172119140625
-0.0032958984375
-0.0084228515625
0.012451171875
-0.083526611328125
0.300689697265625
0.0274658203125
-0.0296630859375
0.102935791015625
-0.327423095703125
0.0069580078125
-0.012451171875
-0.0003662109375
-0.01025390625
-0.00439453125
-0.01171875
-0.00439453125
-0.00732421875
0.0040283203125
-0.01611328125
0.00732421875
-0.0179443359375
0.0032958984375
0.0084228515625
-0.01171875
0.0538330078125
-0.0150146484375
0.0391845703125
0.0
-0.000732421875
0.0047607421875
-0.0018310546875
0.005859375
-0.0029296875
-0.000732421875
-0.005126953125
-0.0054931640625
0.0003662109375
-0.006591796875
0.0069580078125
-0.0010986328125
0.002197265625
0.003662109375
-0.0025634765625
0.00146484375
-0.000732421875
0.00732421875
-0.0025634765625
0.0098876953125
-0.01171875
0.00439453125
-0.005126953125
-0.0025634765625
0.0098876953125
0.003662109375
0.00732421875
0.0069580078125
0.0
0.0047607421875
-0.005859375
-0.0150146484375
0.0205078125
-0.0655517578125
0.273590087890625
0.025634765625
-0.041015625
0.068115234375
-0.293365478515625
0.0003662109375
-0.0076904296875
0.000732421875
-0.0054931640625
-0.0047607421875
-0.0054931640625
-0.003662109375
-0.00732421875
-0.000732421875
-0.0142822265625
0.000732421875
-0.016845703125
-0.00439453125
0.01025390625
-0.008056640625
0.052001953125
-0.0098876953125
0.0428466796875
-0.0025634765625
0.0062255859375
0.0003662109375
-0.0106201171875
-0.0047607421875
-0.009521484375
-0.00732421875
0.0062255859375
-0.0032958984375
0.006591796875
0.006591796875
0.005126953125
0.0047607421875
0.005126953125
0.0029296875
0.0010986328125
-0.113555908203125
0.306182861328125
0.0047607421875
-0.000732421875
0.115020751953125
-0.325592041015625
-0.005126953125
-0.0245361328125
0.00439453125
-0.0087890625
0.0054931640625
-0.01025390625
0.00439453125
-0.0135498046875
0.000732421875
-0.02197265625
0.0018310546875
-0.02197265625
0.0010986328125
0.0040283203125
-0.0040283203125
0.0435791015625
-0.0025634765625
0.0347900390625
-0.0003662109375
0.005126953125
0.00439453125
0.000732421875
0.005126953125
-0.0032958984375
0.005859375
-0.0062255859375
0.003662109375
0.003662109375
0.0062255859375
0.01025390625
0.0069580078125
0.00146484375
-0.0003662109375
-0.00439453125
0.0
-0.0003662109375
0.0
0.01171875
0.0025634765625
0.0106201171875
0.005126953125
0.00732421875
0.0120849609375
0.0106201171875
0.009521484375
0.0084228515625
-0.09375
0.282012939453125
0.00439453125
0.0
0.0941162109375
-0.292999267578125
-0.005126953125
-0.015380859375
-0.005126953125
-0.0018310546875
-0.00439453125
-0.00439453125
-0.0032958984375
-0.010986328125
-0.003662109375
-0.015380859375
-0.000732421875
-0.0179443359375
0.00146484375
0.000732421875
-0.0069580078125
0.043212890625
-0.01318359375
0.037353515625
-0.0010986328125
0.005859375
0.017578125
0.0076904296875
0.040283203125
0.0069580078125
0.03955078125
0.0025634765625
0.0098876953125
0.002197265625
-0.0194091796875
0.0029296875
-0.0260009765625
0.00439453125
-0.016845703125
0.0003662109375
-0.0150146484375
-0.0032958984375
-0.0150146484375
-0.0040283203125
-0.0164794921875
-0.0040283203125
-0.0054931640625
-0.0135498046875
0.005126953125
-0.006591796875
0.01318359375
0.01171875
0.0150146484375
0.003662109375
0.00732421875
-0.0003662109375
0.010986328125
-0.0029296875
0.0
0.006591796875
-0.064453125
0.279083251953125
0.0201416015625
-0.02490234375
0.076171875
-0.306915283203125
-0.0029296875
-0.01611328125
0.0018310546875
-0.0018310546875
0.0
-0.006591796875
-0.003662109375
-0.0128173828125
-0.0003662109375
-0.0179443359375
-0.00146484375
-0.0179443359375
-0.00146484375
0.0091552734375
-0.0091552734375
0.0516357421875
-0.0146484375
0.0428466796875
-0.0047607421875
0.008056640625
0.003662109375
-0.0069580078125
0.00146484375
0.0025634765625
0.0010986328125
0.006591796875
0.0069580078125
-0.005126953125
0.0069580078125
0.0003662109375
0.012451171875
0.0047607421875
0.0106201171875
0.0179443359375
-0.0435791015625
0.271759033203125
0.0289306640625
-0.0322265625
0.0728759765625
-0.301055908203125
0.003662109375
-0.018310546875
0.005859375
-0.0091552734375
0.0084228515625
-0.018310546875
0.0157470703125
-0.0391845703125
0.01904296875
-0.043212890625
0.0194091796875
-0.0362548828125
0.0091552734375
0.00439453125
-0.0069580078125
0.04833984375
-0.0157470703125
0.03515625
-0.01318359375
0.01171875
-0.0172119140625
0.009521484375
-0.0205078125
0.009521484375
-0.0201416015625
0.012451171875
-0.01904296875
0.0135498046875
-0.01171875
0.00732421875
-0.0062255859375
0.0
-0.006591796875
0.010986328125
-0.0098876953125
0.0157470703125
-0.0029296875
0.000732421875
-0.002197265625
0.0018310546875
-0.0032958984375
0.0010986328125
-0.0677490234375
0.172882080078125
0.0054931640625
0.094482421875
0.0684814453125
-0.185699462890625
-0.008056640625
-0.1124267578125
-0.0032958984375
-0.0069580078125
-0.0047607421875
-0.0018310546875
-0.0062255859375
-0.006591796875
-0.003662109375
-0.0120849609375
-0.0003662109375
-0.017578125
0.002197265625
-0.01025390625
0.006591796875
0.0267333984375
0.0142822265625
0.0322265625
0.02490234375
-0.0069580078125
0.0303955078125
-0.0205078125
0.02197265625
-0.015380859375
0.0164794921875
-0.01171875
-0.0003662109375
0.0047607421875
-0.019775390625
0.0267333984375
-0.0245361328125
0.0281982421875
-0.0267333984375
0.017578125
-0.0322265625
0.02197265625
-0.0439453125
0.0340576171875
-0.04541015625
0.030029296875
-0.0406494140625
0.0245361328125
-0.0322265625
0.029296875
-0.0135498046875
0.0142822265625
0.003662109375
-0.0032958984375
0.0091552734375
-0.005126953125
-0.0216064453125
0.066680908203125
0.0084228515625
0.140289306640625
0.0443115234375
-0.088287353515625
0.015380859375
-0.166656494140625
0.00439453125
-0.009521484375
0.0010986328125
-0.00732421875
-0.0029296875
-0.00732421875
-0.0032958984375
-0.013916015625
0.0040283203125
-0.022705078125
0.0047607421875
-0.01611328125
0.0040283203125
0.0146484375
-0.0029296875
0.0413818359375
0.0
0.0194091796875
0.0040283203125
-0.005126953125
0.0032958984375
-0.0120849609375
0.0
-0.005859375
-0.00439453125
0.0010986328125
0.0069580078125
-0.0018310546875
0.008056640625
0.0025634765625
0.0047607421875
-0.00146484375
-0.03369140625
0.0919189453125
-0.00439453125
0.101806640625
0.0325927734375
-0.116455078125
-0.0029296875
-0.129638671875
0.0
-0.0076904296875
0.0010986328125
-0.003662109375
-0.0003662109375
-0.0142822265625
-0.0010986328125
-0.0260009765625
0.006591796875
-0.0391845703125
0.0076904296875
-0.02490234375
-0.005859375
0.0208740234375
-0.009521484375
0.0333251953125
-0.0062255859375
0.01025390625
0.0
-0.00732421875
0.002197265625
-0.0054931640625
0.0047607421875
0.0
0.00439453125
0.000732421875
0.0025634765625
-0.00146484375
-0.00439453125
0.0010986328125
-0.0091552734375
0.0010986328125
-0.0032958984375
-0.0091552734375
-0.0029296875
-0.013916015625
-0.0018310546875
-0.0194091796875
-0.005126953125
-0.01025390625
-0.0047607421875
0.0084228515625
0.0010986328125
0.008056640625
0.00439453125
-0.0003662109375
0.003662109375
0.0010986328125
-0.046142578125
0.1285400390625
0.0029296875
0.091552734375
0.0472412109375
-0.1387939453125
-0.0018310546875
-0.106201171875
-0.0029296875
-0.0018310546875
-0.0018310546875
-0.002197265625
-0.0018310546875
-0.0018310546875
-0.0029296875
-0.00146484375
0.002197265625
-0.012451171875
0.0
-0.0084228515625
-0.0069580078125
0.034423828125
-0.0113525390625
0.052001953125
-0.003662109375
0.0208740234375
0.0084228515625
0.0032958984375
0.0113525390625
0.000732421875
0.0069580078125
0.0029296875
0.005126953125
0.00439453125
0.0069580078125
0.00439453125
0.0025634765625
0.0062255859375
0.00146484375
0.00146484375
0.0
0.0025634765625
0.002197265625
0.003662109375
0.0018310546875
0.0018310546875
0.000732421875
-0.002197265625
0.000732421875
0.0062255859375
-0.006591796875
0.0172119140625
0.000732421875
0.006591796875
0.0018310546875
0.0040283203125
-0.0032958984375
0.009521484375
-0.086822509765625
0.229644775390625
-0.0010986328125
0.006591796875
0.069976806640625
-0.232208251953125
-0.019775390625
-0.0150146484375
-0.0106201171875
0.003662109375
-0.0142822265625
0.005126953125
-0.009521484375
-0.0032958984375
-0.005126953125
-0.0084228515625
0.0
-0.01904296875
0.0018310546875
-0.0047607421875
-0.006591796875
0.0439453125
-0.0047607421875
0.03662109375
0.000732421875
0.0113525390625
0.0062255859375
0.002197265625
0.0091552734375
-0.0128173828125
0.0076904296875
0.0032958984375
0.0084228515625
0.0146484375
0.010986328125
0.0084228515625
0.009521484375
0.002197265625
0.005859375
-0.002197265625
-0.041015625
0.127838134765625
0.0142822265625
0.083160400390625
0.063720703125
-0.153106689453125
0.0025634765625
-0.109161376953125
0.0010986328125
-0.005126953125
0.0040283203125
-0.0062255859375
0.0040283203125
-0.0087890625
0.005859375
-0.0150146484375
0.0062255859375
-0.024169921875
0.01171875
-0.0084228515625
0.008056640625
0.041015625
0.00439453125
0.0465087890625
0.0054931640625
0.01171875
0.00732421875
-0.00439453125
0.008056640625
-0.0032958984375
0.0084228515625
-0.00439453125
0.008056640625
0.000732421875
0.003662109375
0.00732421875
0.002197265625
0.00732421875
-0.0098876953125
0.016845703125
-0.0267333984375
0.02197265625
-0.031494140625
0.021240234375
-0.0296630859375
0.025634765625
-0.02783203125
0.034423828125
-0.01611328125
0.028564453125
0.0
0.0084228515625
0.006591796875
-0.00439453125
-0.0509033203125
0.156036376953125
0.015380859375
0.073272705078125
0.0699462890625
-0.178009033203125
0.006591796875
-0.105133056640625
0.0179443359375
-0.0238037109375
0.01611328125
-0.0128173828125
0.0157470703125
-0.019775390625
0.022705078125
-0.031494140625
0.016845703125
-0.028564453125
0.0084228515625
-0.017578125
-0.0003662109375
0.0201416015625
-0.002197265625
0.030029296875
0.0087890625
0.0003662109375
0.0113525390625
-0.012451171875
0.008056640625
-0.0087890625
0.008056640625
-0.012451171875
0.013916015625
-0.017578125
0.0128173828125
-0.01318359375
0.00439453125
-0.0025634765625
0.00146484375
-0.0010986328125
0.0032958984375
-0.0087890625
0.0054931640625
-0.01318359375
0.000732421875
-0.003662109375
0.0003662109375
0.0003662109375
0.000732421875
-0.0025634765625
0.0025634765625
-0.003662109375
0.002197265625
-0.009521484375
-0.07470703125
0.187164306640625
0.006591796875
0.03515625
0.0732421875
-0.211700439453125
-0.0087890625
-0.06298828125
-0.0062255859375
-0.0098876953125
-0.0029296875
-0.0098876953125
-0.0040283203125
-0.010986328125
-0.00439453125
-0.015380859375
-0.00146484375
-0.0234375
-0.000732421875
-0.0091552734375
-0.0040283203125
0.0333251953125
-0.0087890625
0.04248046875
-0.0054931640625
0.0062255859375
-0.0040283203125
-0.008056640625
-0.0032958984375
0.0047607421875
-0.0025634765625
0.00146484375
0.0010986328125
0.000732421875
-0.000732421875
0.01025390625
0.0
0.0003662109375
-0.079833984375
0.213165283203125
0.0
0.02197265625
0.078369140625
-0.224151611328125
-0.0076904296875
-0.02490234375
-0.0025634765625
0.0040283203125
-0.0018310546875
-0.000732421875
-0.002197265625
-0.00439453125
-0.0003662109375
-0.009521484375
-0.000732421875
-0.012451171875
-0.0018310546875
0.0106201171875
-0.0106201171875
0.0552978515625
-0.00732421875
0.0435791015625
0.0003662109375
0.01171875
-0.0025634765625
0.0076904296875
-0.002197265625
0.006591796875
0.0
0.0069580078125
-0.0003662109375
0.0098876953125
-0.0010986328125
0.008056640625
-0.000732421875
0.0069580078125
-0.00439453125
0.0091552734375
-0.00439453125
0.0047607421875
-0.003662109375
-0.0018310546875
-0.0054931640625
0.0003662109375
-0.0040283203125
0.0069580078125
-0.0010986328125
0.005126953125
0.0010986328125
0.0025634765625
0.000732421875
-0.0040283203125
-0.0238037109375
0.049072265625
-0.0179443359375
0.161895751953125
0.027099609375
-0.0677490234375
0.015380859375
-0.173980712890625
-0.0047607421875
-0.000732421875
0.0018310546875
-0.005859375
-0.00146484375
-0.0084228515625
-0.000732421875
-0.0128173828125
0.00146484375
-0.01904296875
0.002197265625
-0.0146484375
-0.00146484375
0.0234375
-0.008056640625
0.0450439453125
-0.0062255859375
0.0194091796875
-0.0010986328125
0.000732421875
0.0003662109375
0.0010986328125
0.00146484375
-0.0047607421875
0.0029296875
-0.0106201171875
0.0010986328125
-0.0018310546875
0.000732421875
0.0076904296875
-0.0010986328125
0.0029296875
0.0003662109375
-0.005859375
-0.0032958984375
0.0054931640625
-0.00732421875
0.0120849609375
0.0003662109375
0.005859375
0.0
0.0
-0.0003662109375
-0.0047607421875
-0.0618896484375
0.159332275390625
0.005859375
0.049072265625
0.0615234375
-0.182403564453125
-0.0084228515625
-0.0728759765625
-0.0003662109375
-0.00732421875
-0.0032958984375
-0.005859375
-0.00146484375
-0.012451171875
0.00146484375
-0.0230712890625
0.0025634765625
-0.0263671875
0.002197265625
-0.0128173828125
-0.003662109375
0.0318603515625
-0.0040283203125
0.0391845703125
-0.0003662109375
0.0018310546875
0.0018310546875
-0.01171875
-0.0032958984375
0.0040283203125
-0.00146484375
0.00146484375
0.00439453125
-0.005126953125
0.005126953125
-0.0003662109375
0.0025634765625
-0.0018310546875
-0.0501708984375
0.134063720703125
0.00439453125
0.091552734375
0.0523681640625
-0.144317626953125
-0.000732421875
-0.106201171875
-0.00146484375
-0.0029296875
-0.0003662109375
-0.0025634765625
0.000732421875
-0.0076904296875
0.0010986328125
-0.013916015625
0.0032958984375
-0.01904296875
0.0003662109375
-0.0029296875
-0.0047607421875
0.0439453125
-0.0040283203125
0.0487060546875
0.0
0.0135498046875
0.0
0.0032958984375
0.000732421875
0.005126953125
0.0032958984375
0.0029296875
0.0029296875
0.0029296875
-0.0025634765625
0.0098876953125
-0.005859375
0.012451171875
-0.0040283203125
0.01171875
-0.0076904296875
0.0087890625
-0.00439453125
-0.00146484375
-0.0040283203125
-0.00146484375
-0.0084228515625
0.008056640625
-0.0084228515625
0.01318359375
-0.0234375
0.0201416015625
-0.04541015625
0.03076171875
-0.0692138671875
0.110992431640625
-0.0216064453125
0.143218994140625
0.027099609375
-0.096710205078125
0.01171875
-0.159698486328125
0.003662109375
-0.01025390625
0.003662109375
-0.0054931640625
0.0098876953125
-0.012451171875
0.0087890625
-0.013916015625
0.0120849609375
-0.02490234375
0.0142822265625
-0.02490234375
0.0120849609375
0.012451171875
0.005859375
0.0369873046875
0.005859375
0.01171875
0.010986328125
-0.0106201171875
0.0084228515625
-0.0084228515625
0.009521484375
-0.0087890625
0.008056640625
-0.0106201171875
0.0084228515625
-0.0087890625
0.008056640625
-0.0069580078125
0.006591796875
-0.0047607421875
0.005859375
-0.0076904296875
0.0003662109375
-0.005126953125
0.0010986328125
0.0
0.0054931640625
-0.002197265625
0.0076904296875
-0.00439453125
0.0047607421875
-0.0069580078125
-0.034423828125
0.103668212890625
0.0029296875
0.103668212890625
0.0457763671875
-0.131866455078125
0.008056640625
-0.128936767578125
0.002197265625
-0.0084228515625
0.00439453125
-0.010986328125
0.0032958984375
-0.0113525390625
0.0032958984375
-0.015380859375
0.003662109375
-0.0230712890625
0.006591796875
-0.0186767578125
0.000732421875
0.0263671875
-0.005126953125
0.0501708984375
0.0010986328125
0.01904296875
0.0029296875
-0.0069580078125
0.00439453125
-0.00439453125
0.0113525390625
-0.0047607421875
0.0087890625
-0.0047607421875
-0.002197265625
0.0047607421875
0.0
0.005859375
0.003662109375
0.0
-0.07177734375
0.206207275390625
0.012451171875
-0.0146484375
0.0849609375
-0.235870361328125
0.008056640625
-0.02490234375
0.0098876953125
-0.012451171875
0.006591796875
-0.009521484375
0.002197265625
-0.0216064453125
0.0003662109375
-0.0216064453125
0.000732421875
-0.0179443359375
-0.0054931640625
0.015380859375
-0.0025634765625
0.052001953125
-0.000732421875
0.0333251953125
-0.0029296875
0.008056640625
-0.0069580078125
0.0087890625
-0.0018310546875
0.000732421875
0.000732421875
-0.0032958984375
-0.0054931640625
0.00732421875
-0.003662109375
0.008056640625
-0.00439453125
0.005859375
-0.0029296875
-0.003662109375
-0.00439453125
-0.00439453125
-0.00439453125
0.01171875
-0.0018310546875
0.005126953125
-0.000732421875
0.0029296875
-0.000732421875
0.005859375
-0.0157470703125
0.016845703125
-0.060791015625
0.235870361328125
0.01318359375
-0.0311279296875
0.0556640625
-0.251983642578125
-0.0084228515625
-0.0098876953125
-0.0040283203125
-0.0047607421875
-0.002197265625
-0.0025634765625
-0.00146484375
-0.01318359375
-0.0025634765625
-0.0128173828125
-0.0032958984375
-0.0135498046875
-0.0029296875
0.0205078125
-0.0087890625
0.05859375
-0.0047607421875
0.030029296875
-0.00146484375
0.000732421875
-0.0047607421875
0.0032958984375
-0.00146484375
0.00146484375
-0.0025634765625
0.000732421875
0.0010986328125
-0.000732421875
-0.002197265625
0.0032958984375
-0.006591796875
0.0076904296875
-0.0018310546875
0.002197265625
0.0
-0.008056640625
-0.0018310546875
-0.005126953125
-0.0040283203125
0.00732421875
0.000732421875
0.005126953125
0.000732421875
0.0098876953125
0.000732421875
0.0047607421875
-0.00439453125
0.0003662109375
-0.08203125
0.236602783203125
0.005859375
0.0062255859375
0.079833984375
-0.253814697265625
-0.00439453125
-0.02783203125
-0.00146484375
-0.0087890625
0.0010986328125
-0.0098876953125
-0.000732421875
-0.008056640625
0.0032958984375
-0.0260009765625
0.0018310546875
-0.02490234375
-0.0032958984375
0.005859375
-0.0040283203125
0.038818359375
-0.0084228515625
0.0413818359375
-0.0047607421875
0.0069580078125
0.00439453125
-0.0054931640625
-0.0010986328125
0.005126953125
-0.0047607421875
0.00439453125
0.005126953125
0.002197265625
0.0032958984375
-0.002197265625
0.0032958984375
-0.0062255859375
-0.032958984375
0.0875244140625
-0.01025390625
0.141754150390625
0.029296875
-0.09375
0.0040283203125
-0.153472900390625
0.002197265625
-0.0087890625
0.0
-0.005859375
0.0018310546875
-0.0128173828125
-0.002197265625
-0.02490234375
-0.0025634765625
-0.0238037109375
-0.0003662109375
-0.00439453125
-0.0047607421875
0.0289306640625
-0.003662109375
0.0380859375
-0.00146484375
0.0164794921875
0.003662109375
0.0018310546875
0.0032958984375
-0.005859375
0.0003662109375
-0.01171875
-0.0003662109375
-0.0040283203125
-0.0018310546875
0.0098876953125
0.00146484375
0.00439453125
0.0010986328125
-0.000732421875
-0.002197265625
-0.0010986328125
-0.0040283203125
0.00146484375
0.0003662109375
0.0098876953125
0.00146484375
0.0029296875
0.0047607421875
-0.002197265625
0.0084228515625
0.0
0.0
-0.0010986328125
-0.038818359375
0.111724853515625
-0.0069580078125
0.125274658203125
0.0406494140625
-0.126007080078125
0.013916015625
-0.150543212890625
-0.0003662109375
-0.0069580078125
-0.00439453125
-0.003662109375
-0.0025634765625
-0.013916015625
-0.0018310546875
-0.0120849609375
-0.000732421875
-0.015380859375
0.0025634765625
-0.0186767578125
-0.0032958984375
0.0296630859375
-0.00732421875
0.0633544921875
-0.00146484375
0.0263671875
0.0010986328125
-0.0010986328125
0.0010986328125
-0.0032958984375
0.003662109375
-0.0098876953125
0.003662109375
0.0
0.0029296875
0.0032958984375
0.0018310546875
0.005859375
-0.000732421875
-0.002197265625
0.00146484375
-0.002197265625
-0.00146484375
0.0208740234375
0.002197265625
0.0032958984375
0.0029296875
-0.005859375
0.0
0.0018310546875
-0.0303955078125
0.0926513671875
-0.015380859375
0.150909423828125
0.03662109375
-0.107666015625
0.017578125
-0.175811767578125
0.003662109375
-0.0142822265625
0.003662109375
-0.0087890625
-0.0054931640625
-0.0029296875
-0.002197265625
-0.01025390625
0.00146484375
-0.0230712890625
0.0018310546875
-0.01318359375
-0.0010986328125
0.0303955078125
-0.0032958984375
0.05126953125
-0.00439453125
0.0238037109375
0.0029296875
0.0010986328125
0.00439453125
-0.0025634765625
0.005859375
-0.0113525390625
0.005126953125
-0.0084228515625
-0.0069580078125
0.01171875
-0.0010986328125
0.009521484375
0.0010986328125
0.006591796875
0.00146484375
0.0025634765625
0.005126953125
-0.00146484375
-0.0062255859375
0.0069580078125
-0.0589599609375
0.248321533203125
0.01171875
-0.01611328125
0.0684814453125
-0.277252197265625
-0.0029296875
-0.01025390625
-0.0018310546875
0.0029296875
0.005126953125
-0.01171875
-0.000732421875
-0.0106201171875
-0.002197265625
-0.0142822265625
-0.005859375
-0.0135498046875
-0.002197265625
0.019775390625
-0.0025634765625
0.0413818359375
-0.0025634765625
0.022705078125
-0.002197265625
0.0084228515625
-0.0010986328125
0.0018310546875
0.00146484375
-0.0040283203125
0.002197265625
-0.0091552734375
0.000732421875
0.002197265625
-0.002197265625
0.0040283203125
-0.000732421875
0.0029296875
-0.0032958984375
0.0054931640625
0.0
-0.0076904296875
0.0003662109375
-0.0032958984375
0.0
-0.002197265625
-0.005126953125
0.0029296875
-0.0069580078125
0.0076904296875
0.002197265625
0.0040283203125
0.0018310546875
0.0003662109375
0.0029296875
-0.01025390625
-0.029296875
0.0765380859375
-0.0157470703125
0.162628173828125
0.02783203125
-0.090087890625
0.0164794921875
-0.177642822265625
0.0040283203125
-0.0135498046875
0.000732421875
-0.012451171875
0.0025634765625
-0.01318359375
0.00146484375
-0.0135498046875
0.0010986328125
-0.0230712890625
0.0003662109375
-0.0201416015625
-0.00439453125
0.022705078125
-0.0062255859375
0.054931640625
-0.003662109375
0.0230712890625
0.0010986328125
-0.00146484375
-0.0025634765625
0.005859375
-0.0003662109375
-0.01318359375
0.0
-0.002197265625
-0.0025634765625
0.0186767578125
0.003662109375
0.0040283203125
0.0032958984375
0.006591796875
0.000732421875
-0.00146484375
-0.05419921875
0.149810791015625
0.0032958984375
0.0743408203125
0.05126953125
-0.176910400390625
-0.0025634765625
-0.0985107421875
-0.0003662109375
-0.0054931640625
0.00439453125
-0.010986328125
-0.0018310546875
-0.0098876953125
-0.0029296875
-0.0194091796875
0.0010986328125
-0.0201416015625
-0.006591796875
0.0029296875
-0.0025634765625
0.0380859375
-0.000732421875
0.0472412109375
0.005126953125
0.010986328125
0.0032958984375
-0.005126953125
-0.0040283203125
-0.0029296875
-0.0029296875
0.00732421875
0.0010986328125
0.0003662109375
-0.0018310546875
0.000732421875
-0.003662109375
0.00732421875
0.0047607421875
0.0062255859375
0.0069580078125
0.0098876953125
0.0018310546875
0.0106201171875
-0.0029296875
0.00146484375
-0.0498046875
0.145416259765625
0.0062255859375
0.0999755859375
0.0509033203125
-0.165557861328125
0.003662109375
-0.12744140625
-0.0003662109375
-0.0157470703125
-0.00146484375
-0.0040283203125
0.002197265625
-0.00732421875
-0.00146484375
-0.016845703125
-0.002197265625
-0.0208740234375
0.00146484375
-0.00732421875
-0.00146484375
0.0377197265625
-0.0106201171875
0.0516357421875
-0.0025634765625
0.0172119140625
0.0047607421875
-0.0054931640625
0.0047607421875
-0.006591796875
0.0018310546875
-0.005126953125
0.0025634765625
-0.0018310546875
0.0018310546875
0.0076904296875
-0.0018310546875
0.003662109375
-0.0010986328125
0.0025634765625
-0.0010986328125
-0.0062255859375
-0.0003662109375
-0.00146484375
-0.0025634765625
0.0157470703125
0.002197265625
-0.00146484375
0.0003662109375
-0.0029296875
-0.000732421875
0.00146484375
-0.0142822265625
0.0135498046875
-0.050537109375
0.232940673828125
0.0208740234375
-0.0296630859375
0.052734375
-0.259307861328125
-0.00146484375
-0.0146484375
-0.0025634765625
0.0032958984375
0.0010986328125
-0.0069580078125
0.003662109375
-0.01611328125
-0.003662109375
-0.0142822265625
0.00146484375
-0.0194091796875
0.003662109375
0.01318359375
-0.0062255859375
0.052734375
-0.008056640625
0.031494140625
0.0003662109375
-0.005126953125
0.0025634765625
-0.0047607421875
0.0003662109375
-0.005126953125
-0.0010986328125
0.0010986328125
-0.0025634765625
0.005859375
0.009521484375
-0.005859375
0.0054931640625
0.0003662109375
-0.002197265625
0.0032958984375
-0.0699462890625
0.199615478515625
0.006591796875
0.0457763671875
0.0736083984375
-0.219024658203125
-0.0069580078125
-0.0662841796875
-0.003662109375
0.0
-0.0003662109375
-0.0062255859375
0.0003662109375
-0.0179443359375
0.0018310546875
-0.025634765625
0.0025634765625
-0.0205078125
-0.0010986328125
0.0025634765625
-0.00439453125
0.0435791015625
-0.00439453125
0.0531005859375
-0.0010986328125
0.005126953125
0.0040283203125
-0.0091552734375
-0.000732421875
0.0
0.00146484375
-0.0084228515625
0.000732421875
0.00732421875
-0.003662109375
0.009521484375
-0.000732421875
-0.0040283203125
0.0
0.002197265625
0.00146484375
0.0025634765625
-0.0047607421875
-0.0018310546875
-0.0062255859375
0.0069580078125
-0.00439453125
0.0098876953125
-0.00146484375
-0.0003662109375
0.00146484375
0.0
0.002197265625
-0.00146484375
-0.06884765625
0.215728759765625
0.005126953125
0.0333251953125
0.076904296875
-0.245025634765625
-0.0054931640625
-0.05712890625
-0.00146484375
-0.005859375
-0.0018310546875
-0.006591796875
-0.0018310546875
-0.0062255859375
0.005859375
-0.0216064453125
0.0025634765625
-0.0223388671875
0.0025634765625
-0.008056640625
-0.005126953125
0.043212890625
-0.0047607421875
0.054931640625
-0.00146484375
0.012451171875
0.0
0.00146484375
0.0018310546875
0.0025634765625
0.00439453125
-0.005126953125
0.0047607421875
-0.01025390625
0.00146484375
-0.00146484375
0.0003662109375
0.0098876953125
-0.003662109375
0.0120849609375
-0.0032958984375
0.00146484375
-0.006591796875
-0.0010986328125
-0.0032958984375
0.0062255859375
0.0029296875
0.0040283203125
0.0084228515625
-0.008056640625
0.005126953125
-0.0032958984375
-0.0018310546875
0.000732421875
-0.082763671875
0.247222900390625
0.0047607421875
0.015380859375
0.08642578125
-0.272125244140625
-0.0084228515625
-0.0318603515625
-0.005126953125
0.0010986328125
-0.0003662109375
-0.006591796875
0.000732421875
-0.01318359375
0.005859375
-0.01904296875
0.0018310546875
-0.01611328125
0.0003662109375
-0.0010986328125
-0.0040283203125
0.0384521484375
-0.005859375
0.0450439453125
-0.0018310546875
0.0098876953125
0.003662109375
-0.00732421875
0.0003662109375
-0.0018310546875
-0.003662109375
-0.000732421875
0.002197265625
-0.003662109375
-0.0025634765625
0.01171875
0.0003662109375
0.0069580078125
0.003662109375
-0.002197265625
0.005859375
-0.0018310546875
0.0025634765625
-0.005126953125
-0.0560302734375
0.162628173828125
0.0113525390625
0.075439453125
0.052734375
-0.173980712890625
-0.006591796875
-0.0977783203125
0.00146484375
-0.009521484375
-0.005859375
0.0003662109375
-0.0032958984375
-0.003662109375
0.0003662109375
-0.01318359375
0.0003662109375
-0.02490234375
0.0025634765625
-0.01171875
-0.0025634765625
0.0421142578125
-0.00732421875
0.046142578125
0.0010986328125
0.00439453125
0.00146484375
0.0029296875
0.00146484375
-0.00146484375
0.0010986328125
-0.003662109375
-0.0010986328125
0.0029296875
0.002197265625
0.0029296875
0.0025634765625
0.00146484375
0.0040283203125
-0.0076904296875
-0.0029296875
0.0
0.0003662109375
0.006591796875
0.00439453125
-0.0040283203125
-0.0029296875
-0.0029296875
-0.005126953125
0.0003662109375
-0.0040283203125
-0.0025634765625
0.005126953125
0.003662109375
0.0003662109375
0.008056640625
0.0032958984375
-0.0025634765625
-0.0263671875
0.087158203125
-0.019775390625
0.150177001953125
0.03369140625
-0.1072998046875
0.0205078125
-0.179473876953125
-0.0025634765625
-0.0091552734375
-0.0025634765625
-0.00146484375
0.00146484375
-0.0084228515625
0.0
-0.0113525390625
0.0029296875
-0.0252685546875
0.0025634765625
-0.0238037109375
-0.006591796875
0.0234375
-0.0087890625
0.0567626953125
-0.0010986328125
0.029296875
-0.0010986328125
0.0032958984375
-0.002197265625
0.0
0.00439453125
-0.0018310546875
0.0040283203125
-0.0084228515625
0.00439453125
-0.00439453125
-0.0040283203125
0.0091552734375
-0.0054931640625
0.0113525390625
0.0010986328125
0.008056640625
-0.0010986328125
0.0018310546875
0.00439453125
-0.00439453125
-0.0047607421875
0.00146484375
-0.0787353515625
0.281280517578125
0.0084228515625
-0.01318359375
0.0816650390625
-0.308380126953125
0.0003662109375
-0.0091552734375
-0.0040283203125
0.00146484375
0.0003662109375
-0.0076904296875
0.00146484375
-0.01171875
0.0010986328125
-0.0252685546875
-0.0025634765625
-0.0194091796875
-0.0010986328125
0.0164794921875
-0.006591796875
0.05712890625
-0.0076904296875
0.0318603515625
0.0018310546875
0.0
-0.0029296875
0.00439453125
0.0029296875
-0.0084228515625
0.0062255859375
-0.0062255859375
-0.0018310546875
0.0069580078125
-0.00146484375
0.00146484375
0.0
-0.000732421875
-0.0025634765625
0.008056640625
0.002197265625
0.0106201171875
0.0076904296875
-0.000732421875
0.000732421875
-0.000732421875
-0.05859375
0.171783447265625
0.0087890625
0.072509765625
0.0556640625
-0.188629150390625
-0.008056640625
-0.1007080078125
0.0029296875
-0.0069580078125
0.0029296875
-0.0062255859375
-0.0047607421875
-0.0091552734375
-0.0032958984375
-0.015380859375
-0.005126953125
-0.0106201171875
-0.0032958984375
-0.0069580078125
-0.0018310546875
0.0216064453125
-0.005859375
0.044677734375
-0.005126953125
0.021240234375
-0.0054931640625
0.00146484375
0.002197265625
-0.0091552734375
0.0018310546875
-0.005859375
0.0
0.0003662109375
0.0010986328125
0.0084228515625
0.0029296875
0.003662109375
0.005859375
-0.0098876953125
0.00146484375
-0.000732421875
-0.0230712890625
-0.0040283203125
-0.0618896484375
-0.1146240234375
-0.0439453125
-0.0205078125
0.0677490234375
0.11865234375
0.0758056640625
0.046142578125
0.0076904296875
0.0106201171875
0.00439453125
0.003662109375
0.003662109375
0.012451171875
0.0084228515625
0.01611328125
0.0146484375
0.02197265625
0.012451171875
0.012451171875
-0.006591796875
-0.016845703125
-0.028564453125
-0.037353515625
-0.0223388671875
-0.034423828125
-0.0076904296875
-0.0157470703125
0.000732421875
-0.00732421875
0.0040283203125
0.0010986328125
-0.003662109375
0.0040283203125
-0.005126953125
0.0087890625
0.0
0.0047607421875
0.0032958984375
-0.0098876953125
0.00146484375
-0.0069580078125
0.0
-0.0091552734375
-0.0025634765625
0.0040283203125
-0.0029296875
0.01611328125
0.0018310546875
0.00439453125
0.0047607421875
-0.0062255859375
0.003662109375
-0.005859375
-0.0303955078125
0.0966796875
-0.005859375
0.12890625
0.032958984375
-0.114990234375
0.0106201171875
-0.1527099609375
0.000732421875
-0.008056640625
0.0003662109375
-0.008056640625
0.006591796875
-0.0150146484375
-0.0003662109375
-0.0150146484375
-0.000732421875
-0.0172119140625
0.0010986328125
-0.0142822265625
-0.0047607421875
0.0252685546875
-0.005859375
0.0509033203125
-0.00146484375
0.02490234375
0.006591796875
0.0003662109375
0.003662109375
-0.006591796875
0.000732421875
-0.0025634765625
0.002197265625
0.00146484375
-0.00146484375
0.0062255859375
-0.0018310546875
0.00732421875
0.002197265625
-0.0087890625
-0.0040283203125
0.00439453125
-0.0032958984375
0.0157470703125
0.0076904296875
-0.0084228515625
0.0010986328125
-0.0032958984375
0.00146484375
-0.0032958984375
-0.056396484375
0.176910400390625
0.0040283203125
0.0860595703125
0.063720703125
-0.198516845703125
-0.0032958984375
-0.1036376953125
-0.002197265625
-0.0054931640625
-0.0003662109375
-0.000732421875
0.003662109375
-0.013916015625
-0.002197265625
-0.0157470703125
-0.006591796875
-0.0146484375
0.000732421875
-0.0032958984375
0.00146484375
0.03369140625
-0.0040283203125
0.049072265625
-0.000732421875
0.02197265625
0.0025634765625
0.0003662109375
0.002197265625
-0.0069580078125
0.003662109375
-0.0098876953125
0.000732421875
0.0029296875
-0.0018310546875
0.0076904296875
-0.0018310546875
0.003662109375
-0.0003662109375
0.0018310546875
-0.0032958984375
0.006591796875
-0.00146484375
-0.0047607421875
-0.0018310546875
0.0
-0.00439453125
0.01171875
0.0062255859375
0.0029296875
0.0047607421875
-0.0010986328125
0.0
-0.0062255859375
-0.0780029296875
0.213165283203125
0.00732421875
0.0435791015625
0.0823974609375
-0.234771728515625
-0.0076904296875
-0.0589599609375
-0.0025634765625
0.0040283203125
0.0029296875
-0.0098876953125
-0.0018310546875
-0.0098876953125
-0.00439453125
-0.010986328125
0.00146484375
-0.0234375
0.0025634765625
-0.0084228515625
-0.0029296875
0.0362548828125
-0.0076904296875
0.0523681640625
-0.005859375
0.0208740234375
0.002197265625
-0.003662109375
0.0025634765625
-0.0062255859375
-0.0003662109375
-0.0047607421875
-0.0018310546875
-0.0029296875
-0.0010986328125
0.0069580078125
0.00146484375
0.00732421875
-0.0010986328125
0.00732421875
0.0018310546875
0.0003662109375
-0.02490234375
0.0596923828125
-0.00732421875
0.150177001953125
0.027099609375
-0.0787353515625
0.0062255859375
-0.173980712890625
-0.0025634765625
-0.002197265625
-0.000732421875
-0.0025634765625
-0.0003662109375
-0.0087890625
-0.002197265625
-0.0113525390625
0.000732421875
-0.0245361328125
0.0010986328125
-0.01318359375
-0.0010986328125
0.025634765625
-0.002197265625
0.0479736328125
-0.002197265625
0.028564453125
0.0
0.005126953125
-0.0010986328125
-0.0062255859375
0.0032958984375
-0.0076904296875
0.0047607421875
-0.0087890625
0.0018310546875
0.00146484375
0.002197265625
0.005859375
0.00146484375
-0.0018310546875
0.000732421875
0.0040283203125
0.000732421875
-0.0029296875
0.0
-0.002197265625
-0.0018310546875
0.0025634765625
-0.0010986328125
-0.0029296875
-0.0032958984375
0.0084228515625
0.0010986328125
0.00146484375
0.0062255859375
-0.0062255859375
-0.000732421875
0.0010986328125
-0.0150146484375
0.037353515625
-0.04248046875
0.217926025390625
0.0216064453125
-0.0523681640625
0.054931640625
-0.247222900390625
0.0069580078125
-0.0120849609375
0.00146484375
-0.0025634765625
-0.0003662109375
-0.0076904296875
0.005126953125
-0.0120849609375
0.0029296875
-0.0260009765625
0.0003662109375
-0.0179443359375
0.0010986328125
0.0208740234375
-0.0040283203125
0.057861328125
-0.00732421875
0.0384521484375
-0.00146484375
0.0084228515625
-0.000732421875
-0.0010986328125
-0.0003662109375
-0.0146484375
0.0032958984375
-0.008056640625
-0.002197265625
-0.0010986328125
-0.0040283203125
0.0146484375
0.0032958984375
0.01171875
0.00439453125
0.0047607421875
0.0010986328125
0.0069580078125
-0.0010986328125
-0.0029296875
-0.081298828125
0.281280517578125
0.0084228515625
-0.01904296875
0.0845947265625
-0.304718017578125
-0.0084228515625
0.0018310546875
-0.000732421875
-0.0025634765625
0.005859375
-0.021240234375
-0.000732421875
-0.01318359375
-0.00439453125
-0.01318359375
-0.0032958984375
-0.0205078125
-0.0032958984375
0.0186767578125
-0.000732421875
0.0479736328125
0.0029296875
0.0263671875
-0.0018310546875
0.01318359375
-0.000732421875
0.0032958984375
0.0032958984375
-0.0098876953125
-0.000732421875
0.0025634765625
0.0010986328125
0.0054931640625
-0.0010986328125
0.0010986328125
-0.00439453125
0.009521484375
-0.0047607421875
0.0062255859375
-0.0029296875
-0.00439453125
-0.002197265625
-0.0029296875
-0.00146484375
0.0054931640625
0.000732421875
0.00732421875
0.0010986328125
-0.0018310546875
0.002197265625
-0.0062255859375
-0.0128173828125
0.0128173828125
-0.052001953125
0.243927001953125
0.0164794921875
-0.03076171875
0.052734375
-0.265533447265625
-0.00439453125
-0.010986328125
0.002197265625
-0.010986328125
0.002197265625
-0.00732421875
-0.0025634765625
-0.0062255859375
-0.000732421875
-0.0157470703125
-0.002197265625
-0.016845703125
0.0
0.0146484375
-0.0054931640625
0.052001953125
-0.0054931640625
0.03076171875
0.0
-0.0018310546875
-0.0025634765625
-0.0032958984375
0.0010986328125
-0.010986328125
0.0003662109375
-0.0054931640625
-0.0029296875
0.01611328125
0.0040283203125
0.0029296875
0.0025634765625
-0.002197265625
-0.0029296875
0.01025390625
-0.0322265625
0.10107421875
-0.0025634765625
0.119415283203125
0.0362548828125
-0.1182861328125
0.005859375
-0.147247314453125
-0.0025634765625
-0.00732421875
-0.0010986328125
-0.005126953125
0.0
-0.01025390625
-0.0010986328125
-0.0128173828125
0.0029296875
-0.024169921875
-0.0018310546875
-0.0120849609375
-0.0069580078125
0.041748046875
-0.000732421875
0.049072265625
0.00732421875
0.01025390625
0.0025634765625
0.0010986328125
-0.003662109375
0.00439453125
0.000732421875
-0.00439453125
0.0040283203125
-0.0054931640625
0.0032958984375
0.0054931640625
-0.0003662109375
0.0087890625
-0.00146484375
0.005126953125
0.00146484375
-0.003662109375
0.000732421875
0.0
-0.00146484375
-0.0018310546875
0.0
-0.0062255859375
-0.0040283203125
0.005126953125
-0.005126953125
0.008056640625
0.000732421875
-0.0010986328125
-0.0018310546875
0.003662109375
0.00146484375
0.000732421875
-0.0150146484375
0.0362548828125
-0.038818359375
0.210601806640625
0.0252685546875
-0.0655517578125
0.0428466796875
-0.238800048828125
-0.0010986328125
-0.01171875
-0.0003662109375
-0.0098876953125
0.0
-0.0076904296875
-0.000732421875
-0.0062255859375
0.005859375
-0.0245361328125
0.0087890625
-0.0245361328125
0.00146484375
0.0194091796875
-0.0054931640625
0.053466796875
-0.008056640625
0.043212890625
-0.0018310546875
0.0040283203125
0.002197265625
-0.0087890625
0.0018310546875
-0.0091552734375
-0.002197265625
0.0032958984375
0.00146484375
0.0087890625
0.005859375
0.0003662109375
0.0025634765625
0.01025390625
-0.0003662109375
-0.0018310546875
-0.084228515625
0.240631103515625
0.006591796875
0.0260009765625
0.08349609375
-0.265533447265625
-0.0054931640625
-0.0457763671875
-0.000732421875
-0.005859375
0.0003662109375
-0.0032958984375
0.0010986328125
-0.01318359375
-0.0003662109375
-0.019775390625
-0.0047607421875
-0.0087890625
-0.00146484375
0.0054931640625
0.00439453125
0.03369140625
-0.002197265625
0.0391845703125
-0.0029296875
0.0157470703125
-0.0010986328125
0.005126953125
0.000732421875
-0.005126953125
0.0
-0.0032958984375
0.0003662109375
0.0018310546875
-0.0032958984375
0.0054931640625
-0.0047607421875
0.006591796875
0.00146484375
-0.002197265625
0.0010986328125
-0.0084228515625
0.0003662109375
-0.0032958984375
-0.0047607421875
0.010986328125
0.0
-0.000732421875
0.000732421875
-0.0018310546875
-0.005126953125
0.0087890625
-0.01611328125
0.022705078125
-0.0435791015625
0.230743408203125
0.0205078125
-0.038818359375
0.049072265625
-0.258575439453125
0.002197265625
-0.0146484375
0.0010986328125
-0.0084228515625
-0.0003662109375
-0.0054931640625
-0.002197265625
-0.009521484375
-0.0032958984375
-0.0164794921875
0.0003662109375
-0.0146484375
0.0029296875
0.012451171875
-0.0025634765625
0.047607421875
-0.0069580078125
0.0340576171875
0.0040283203125
-0.0010986328125
0.0010986328125
0.0010986328125
-0.00146484375
0.0
0.0018310546875
-0.006591796875
0.00146484375
-0.0025634765625
0.0040283203125
0.003662109375
-0.0003662109375
0.0076904296875
-0.002197265625
0.005859375
-0.002197265625
0.002197265625
-0.000732421875
-0.0025634765625
-0.0018310546875
-0.0010986328125
-0.000732421875
-0.0135498046875
-0.0032958984375
0.010986328125
-0.0054931640625
0.0179443359375
0.0040283203125
-0.0128173828125
0.0003662109375
-0.0032958984375
-0.006591796875
0.0087890625
-0.08642578125
0.261138916015625
0.0032958984375
-0.0098876953125
0.087158203125
-0.282012939453125
0.0010986328125
-0.02197265625
0.0029296875
-0.0106201171875
0.0029296875
-0.009521484375
-0.0003662109375
-0.0087890625
-0.0025634765625
-0.0146484375
0.0003662109375
-0.0146484375
0.0025634765625
0.005126953125
-0.0018310546875
0.046142578125
-0.006591796875
0.0457763671875
-0.006591796875
0.008056640625
0.002197265625
-0.0069580078125
0.0032958984375
-0.01171875
0.0
0.0003662109375
-0.0003662109375
0.005126953125
0.0003662109375
0.01171875
0.0047607421875
0.00439453125
0.005859375
-0.013916015625
-0.063720703125
0.186065673828125
0.0087890625
0.069580078125
0.0772705078125
-0.209869384765625
0.0032958984375
-0.0963134765625
0.0084228515625
-0.019775390625
0.00439453125
-0.006591796875
0.00146484375
-0.0069580078125
0.0010986328125
-0.0179443359375
0.0
-0.024169921875
-0.0018310546875
-0.0032958984375
-0.012451171875
0.0556640625
-0.0029296875
0.047607421875
-0.00146484375
0.012451171875
-0.0040283203125
-0.0025634765625
0.005126953125
-0.0098876953125
-0.0047607421875
0.0025634765625
-0.005126953125
0.0047607421875
-0.000732421875
0.005126953125
-0.0029296875
-0.000732421875
-0.0047607421875
0.0076904296875
-0.000732421875
0.00732421875
0.0029296875
-0.0010986328125
0.00146484375
0.0
0.00146484375
0.00732421875
0.0003662109375
0.0084228515625
-0.003662109375
0.0003662109375
-0.0465087890625
0.10400390625
-0.0128173828125
0.145050048828125
0.0391845703125
-0.1168212890625
0.01025390625
-0.175445556640625
-0.0025634765625
-0.01171875
-0.0025634765625
0.0010986328125
0.0025634765625
-0.010986328125
-0.0003662109375
-0.0106201171875
-0.0018310546875
-0.015380859375
0.00146484375
-0.0172119140625
0.00146484375
0.028564453125
-0.0054931640625
0.052001953125
-0.003662109375
0.0179443359375
0.003662109375
-0.005126953125
0.0
-0.002197265625
0.0018310546875
-0.000732421875
0.0025634765625
-0.002197265625
0.0029296875
-0.0010986328125
-0.00146484375
0.0054931640625
-0.0010986328125
0.0040283203125
0.0040283203125
-0.0054931640625
-0.0032958984375
0.00439453125
-0.0025634765625
0.01025390625
0.0025634765625
0.0010986328125
0.0029296875
-0.0062255859375
-0.0010986328125
-0.005859375
-0.0443115234375
0.114990234375
-0.003662109375
0.114990234375
0.0340576171875
-0.12890625
-0.0040283203125
-0.1380615234375
-0.0032958984375
-0.0135498046875
-0.002197265625
-0.0032958984375
0.0
-0.006591796875
-0.0032958984375
-0.012451171875
-0.00146484375
-0.0172119140625
-0.000732421875
-0.013916015625
-0.0040283203125
0.025634765625
-0.0091552734375
0.050537109375
-0.0003662109375
0.0179443359375
0.0091552734375
-0.005859375
0.002197265625
-0.003662109375
0.000732421875
-0.00732421875
0.002197265625
-0.010986328125
-0.0029296875
0.0047607421875
-0.0054931640625
0.0205078125
0.00439453125
0.0062255859375
0.0069580078125
-0.003662109375
0.0032958984375
-0.005859375
-0.02490234375
0.064453125
-0.0186767578125
0.174346923828125
0.0325927734375
-0.087890625
0.028564453125
-0.202545166015625
0.0018310546875
-0.0120849609375
0.0
-0.0047607421875
0.006591796875
-0.0113525390625
0.005859375
-0.0230712890625
0.003662109375
-0.02490234375
0.006591796875
-0.0208740234375
0.0113525390625
0.0164794921875
0.003662109375
0.0531005859375
0.0
0.031494140625
0.008056640625
-0.005859375
0.002197265625
-0.01318359375
-0.003662109375
-0.0047607421875
0.0
-0.00732421875
0.000732421875
0.0
-0.008056640625
0.01171875
-0.009521484375
0.0087890625
-0.00146484375
0.0029296875
-0.000732421875
0.002197265625
-0.00146484375
0.0047607421875
0.000732421875
0.0054931640625
0.0003662109375
-0.00146484375
-0.00439453125
-0.0010986328125
-0.0018310546875
0.0128173828125
0.003662109375
0.006591796875
0.0010986328125
0.0025634765625
0.000732421875
0.005859375
-0.0172119140625
0.0435791015625
-0.01904296875
0.183868408203125
0.0230712890625
-0.0545654296875
0.03076171875
-0.213897705078125
0.0025634765625
-0.0084228515625
-0.0032958984375
0.01025390625
0.0
-0.0025634765625
-0.000732421875
-0.0142822265625
-0.003662109375
-0.01171875
-0.0076904296875
-0.0062255859375
-0.0032958984375
0.0150146484375
-0.012451171875
0.0589599609375
-0.0087890625
0.0325927734375
-0.002197265625
-0.0018310546875
-0.0025634765625
-0.005859375
-0.0010986328125
-0.0076904296875
-0.0047607421875
-0.0062255859375
-0.0047607421875
0.0076904296875
-0.0025634765625
0.010986328125
0.0029296875
-0.0157470703125
-0.00439453125
-0.008056640625
-0.0113525390625
0.005126953125
-0.0648193359375
0.221588134765625
0.00732421875
-0.0186767578125
0.0677490234375
-0.251617431640625
0.0047607421875
-0.0164794921875
0.00732421875
-0.0087890625
0.0054931640625
-0.0142822265625
0.005126953125
-0.017578125
0.00146484375
-0.0120849609375
-0.0010986328125
-0.0164794921875
-0.005859375
0.008056640625
-0.0113525390625
0.0472412109375
-0.009521484375
0.0333251953125
-0.0076904296875
0.0098876953125
0.0010986328125
0.0032958984375
0.002197265625
-0.0010986328125
0.0040283203125
-0.005859375
-0.00146484375
0.01171875
-0.00146484375
0.0179443359375
0.01025390625
0.0003662109375
0.0098876953125
-0.002197265625
0.0054931640625
0.0106201171875
0.003662109375
0.01171875
0.01025390625
-0.005859375
0.0087890625
-0.005859375
-0.00146484375
0.00732421875
-0.003662109375
0.005859375
-0.000732421875
-0.0010986328125
-0.000732421875
0.0098876953125
0.002197265625
0.0025634765625
0.0069580078125
-0.0032958984375
0.0054931640625
0.002197265625
-0.002197265625
0.0076904296875
-0.0673828125
0.235504150390625
0.0164794921875
-0.0238037109375
0.0743408203125
-0.258209228515625
-0.0040283203125
-0.012451171875
0.0003662109375
-0.0087890625
-0.003662109375
-0.01171875
-0.0076904296875
-0.01904296875
-0.01171875
-0.027099609375
-0.003662109375
-0.0267333984375
0.0047607421875
-0.0018310546875
-0.0003662109375
0.0472412109375
0.00146484375
0.0428466796875
0.0
0.01318359375
-0.002197265625
0.0032958984375
-0.0032958984375
0.0018310546875
0.003662109375
-0.0040283203125
0.0091552734375
-0.0106201171875
0.002197265625
0.0029296875
0.0029296875
0.012451171875
-0.0003662109375
0.01611328125
0.000732421875
0.0069580078125
0.0003662109375
0.0029296875
-0.038818359375
0.125244140625
0.009521484375
0.095947265625
0.0457763671875
-0.1351318359375
-0.0029296875
-0.1072998046875
0.0
-0.0003662109375
0.0018310546875
-0.0018310546875
0.0029296875
-0.008056640625
0.0054931640625
-0.0106201171875
0.0040283203125
-0.017578125
0.0029296875
-0.0146484375
-0.0010986328125
0.034423828125
-0.0010986328125
0.0487060546875
0.00146484375
0.0201416015625
0.0010986328125
0.00439453125
0.0
-0.0040283203125
-0.0047607421875
-0.005859375
-0.0040283203125
-0.0018310546875
-0.0047607421875
0.005126953125
-0.002197265625
0.0032958984375
-0.000732421875
0.002197265625
-0.0029296875
-0.0032958984375
-0.0010986328125
0.0
-0.0025634765625
0.0003662109375
-0.0032958984375
-0.005126953125
-0.0091552734375
0.0076904296875
-0.008056640625
-0.002197265625
-0.00146484375
-0.01025390625
-0.002197265625
-0.008056640625
-0.013916015625
-0.0062255859375
-0.0640869140625
0.213165283203125
0.0106201171875
-0.0146484375
0.06298828125
-0.244659423828125
0.0018310546875
-0.02197265625
-0.00146484375
-0.0084228515625
-0.002197265625
-0.0029296875
0.00146484375
-0.0106201171875
0.002197265625
-0.02197265625
-0.0018310546875
-0.01318359375
-0.000732421875
0.0098876953125
-0.0029296875
0.052734375
-0.006591796875
0.043212890625
-0.0010986328125
0.003662109375
-0.00146484375
-0.0062255859375
0.0010986328125
-0.009521484375
0.0029296875
-0.0003662109375
0.000732421875
0.00732421875
0.0003662109375
0.0106201171875
0.0003662109375
0.003662109375
0.0
-0.0018310546875
-0.0465087890625
0.12744140625
0.0047607421875
0.0838623046875
0.0406494140625
-0.142822265625
-0.012451171875
-0.099609375
-0.006591796875
0.0018310546875
-0.0003662109375
-0.01025390625
0.00146484375
-0.0113525390625
-0.0040283203125
-0.0098876953125
-0.000732421875
-0.024169921875
-0.003662109375
-0.006591796875
-0.0047607421875
0.0377197265625
0.00146484375
0.0457763671875
0.0040283203125
0.015380859375
0.005859375
0.0
0.005859375
-0.0076904296875
-0.002197265625
0.0029296875
-0.0018310546875
0.0076904296875
0.0047607421875
-0.00439453125
-0.0018310546875
0.01171875
0.0
0.0087890625
0.0018310546875
-0.0029296875
-0.0025634765625
0.005126953125
0.0029296875
-0.00732421875
0.0029296875
-0.003662109375
0.000732421875
0.0135498046875
0.000732421875
0.0054931640625
0.005126953125
-0.003662109375
0.005859375
-0.0098876953125
-0.0699462890625
0.208770751953125
0.0040283203125
0.0303955078125
0.0728759765625
-0.237701416015625
-0.0003662109375
-0.05419921875
-0.00146484375
-0.0076904296875
-0.0003662109375
-0.00439453125
0.0029296875
-0.008056640625
0.0069580078125
-0.0223388671875
0.0010986328125
-0.016845703125
-0.0029296875
-0.0010986328125
-0.0032958984375
0.0472412109375
-0.005859375
0.05126953125
0.000732421875
0.00732421875
0.000732421875
0.0018310546875
0.00146484375
0.00146484375
0.0029296875
-0.0032958984375
-0.0010986328125
0.000732421875
-0.0003662109375
0.00732421875
0.0003662109375
0.0084228515625
-0.0018310546875
0.0062255859375
-0.002197265625
0.000732421875
0.0
-0.008056640625
-0.0025634765625
-0.000732421875
-0.00439453125
0.0128173828125
0.0032958984375
0.002197265625
0.0
0.006591796875
-0.0029296875
0.00439453125
-0.0281982421875
0.0802001953125
-0.00732421875
0.138458251953125
0.0325927734375
-0.1021728515625
0.015380859375
-0.164093017578125
-0.0003662109375
-0.0054931640625
-0.0010986328125
-0.005126953125
0.00439453125
-0.0142822265625
-0.0003662109375
-0.010986328125
-0.000732421875
-0.0164794921875
0.002197265625
-0.0234375
0.0
0.0223388671875
-0.0084228515625
0.0611572265625
-0.0047607421875
0.0234375
0.00146484375
-0.002197265625
-0.0018310546875
-0.0018310546875
-0.00146484375
-0.0032958984375
0.0010986328125
-0.0087890625
-0.0029296875
0.0029296875
-0.002197265625
0.0106201171875
0.006591796875
-0.006591796875
0.00146484375
0.00439453125
0.0003662109375
0.0029296875
-0.0435791015625
0.125274658203125
0.003662109375
0.097412109375
0.0472412109375
-0.143585205078125
-0.005859375
-0.1102294921875
0.0
-0.006591796875
-0.0003662109375
-0.0029296875
-0.0018310546875
-0.006591796875
0.0018310546875
-0.0216064453125
-0.0003662109375
-0.01611328125
-0.002197265625
-0.0003662109375
-0.00439453125
0.0322265625
-0.0087890625
0.0457763671875
-0.00732421875
0.01611328125
-0.002197265625
-0.0018310546875
0.00146484375
-0.0087890625
-0.0029296875
-0.0062255859375
-0.0062255859375
0.005859375
0.0
0.00439453125
0.0018310546875
0.00439453125
0.0010986328125
0.0025634765625
0.0003662109375
-0.0069580078125
-0.063720703125
0.168121337890625
0.006591796875
0.047607421875
0.0596923828125
-0.190460205078125
-0.0069580078125
-0.069580078125
0.0003662109375
-0.0069580078125
-0.00146484375
-0.009521484375
0.0010986328125
-0.013916015625
-0.000732421875
-0.0146484375
0.0025634765625
-0.02197265625
-0.0018310546875
0.0
-0.005859375
0.04833984375
-0.000732421875
0.0435791015625
0.005126953125
0.0062255859375
0.0054931640625
-0.00732421875
0.0003662109375
-0.000732421875
0.00146484375
0.000732421875
-0.000732421875
-0.00439453125
-0.0003662109375
0.00439453125
0.0029296875
0.0032958984375
0.0032958984375
-0.0029296875
-0.0003662109375
0.00439453125
0.0003662109375
-0.009521484375
0.0032958984375
-0.0106201171875
-0.0018310546875
0.013916015625
-0.0029296875
0.0128173828125
0.0010986328125
-0.0029296875
0.0047607421875
-0.005126953125
-0.0047607421875
0.005859375
-0.0706787109375
0.228179931640625
0.0084228515625
-0.0172119140625
0.06884765625
-0.247589111328125
0.0010986328125
-0.012451171875
0.0010986328125
-0.00439453125
0.000732421875
-0.0113525390625
0.002197265625
-0.01611328125
0.0018310546875
-0.0205078125
0.00439453125
-0.0205078125
-0.0003662109375
0.012451171875
-0.006591796875
0.046875
-0.0040283203125
0.0377197265625
0.0003662109375
0.01025390625
0.0003662109375
-0.0062255859375
0.0029296875
-0.0062255859375
-0.00146484375
-0.00146484375
-0.000732421875
-0.0076904296875
0.0010986328125
0.00732421875
-0.0025634765625
0.0146484375
0.0003662109375
0.003662109375
0.0047607421875
-0.005126953125
0.002197265625
-0.0054931640625
-0.0677490234375
0.183135986328125
0.005126953125
0.053466796875
0.0655517578125
-0.194122314453125
-0.0047607421875
-0.0706787109375
0.002197265625
-0.006591796875
-0.00146484375
-0.005126953125
-0.0010986328125
-0.0098876953125
-0.00146484375
-0.0194091796875
0.0
-0.022705078125
0.0003662109375
0.0003662109375
-0.0076904296875
0.046142578125
-0.003662109375
0.0465087890625
0.0010986328125
0.0157470703125
-0.0003662109375
0.0003662109375
0.002197265625
-0.0069580078125
0.0054931640625
-0.00146484375
0.0025634765625
-0.0032958984375
-0.0025634765625
0.005126953125
-0.0032958984375
0.0076904296875
0.0010986328125
0.0003662109375
0.000732421875
0.003662109375
-0.000732421875
0.0025634765625
0.0025634765625
-0.0010986328125
-0.002197265625
-0.0040283203125
-0.00439453125
0.0084228515625
-0.00439453125
0.0186767578125
-0.002197265625
0.0098876953125
0.002197265625
0.0032958984375
0.0032958984375
0.0
-0.0252685546875
0.0684814453125
-0.0172119140625
0.163726806640625
0.0296630859375
-0.0809326171875
0.0205078125
-0.186431884765625
0.00439453125
-0.01318359375
0.0
-0.0025634765625
-0.0010986328125
-0.0054931640625
0.0040283203125
-0.0157470703125
0.00146484375
-0.018310546875
0.0032958984375
-0.0164794921875
0.00146484375
0.018310546875
-0.00732421875
0.0545654296875
-0.0062255859375
0.0281982421875
-0.00146484375
-0.005126953125
-0.003662109375
-0.0025634765625
-0.00146484375
-0.005126953125
-0.002197265625
-0.0010986328125
-0.005859375
0.0135498046875
0.0029296875
0.0069580078125
0.0029296875
0.0025634765625
-0.0003662109375
0.0
-0.0498046875
0.140655517578125
0.0091552734375
0.081298828125
0.0516357421875
-0.156036376953125
-0.006591796875
-0.1021728515625
0.0054931640625
-0.01025390625
0.0018310546875
-0.0062255859375
0.0
-0.01025390625
0.00439453125
-0.018310546875
0.0029296875
-0.0164794921875
0.0018310546875
-0.0091552734375
-0.0010986328125
0.0311279296875
-0.002197265625
0.046875
-0.002197265625
0.0135498046875
0.002197265625
-0.0062255859375
0.0018310546875
-0.0040283203125
-0.0010986328125
0.002197265625
0.0
-0.0032958984375
-0.000732421875
0.0025634765625
-0.0010986328125
0.005859375
-0.0029296875
-0.003662109375
-0.00439453125
0.002197265625
-0.0025634765625
-0.0010986328125
0.00439453125
-0.0150146484375
-0.002197265625
0.00146484375
-0.0076904296875
0.006591796875
-0.0032958984375
0.0003662109375
-0.0029296875
0.00439453125
-0.0018310546875
0.0040283203125
0.0029296875
-0.005859375
-0.0289306640625
0.0867919921875
-0.008056640625
0.144683837890625
0.0380859375
-0.1102294921875
0.013916015625
-0.171417236328125
-0.000732421875
-0.01171875
-0.0040283203125
0.0032958984375
0.0003662109375
-0.0040283203125
0.00439453125
-0.017578125
0.00146484375
-0.0234375
0.0025634765625
-0.0150146484375
0.0029296875
0.0274658203125
-0.002197265625
0.050537109375
-0.0040283203125
0.027099609375
0.0040283203125
0.00146484375
0.0032958984375
-0.005859375
0.0010986328125
-0.00439453125
0.0040283203125
0.00439453125
0.002197265625
0.0106201171875
0.0069580078125
0.00146484375
0.006591796875
-0.005126953125
-0.005126953125
0.009521484375
-0.08203125
0.243560791015625
0.0054931640625
-0.0098876953125
0.08349609375
-0.254547119140625
-0.0003662109375
-0.01904296875
-0.0010986328125
-0.008056640625
-0.0010986328125
-0.0029296875
0.0018310546875
-0.012451171875
0.0032958984375
-0.0252685546875
0.0010986328125
-0.021240234375
0.002197265625
0.01025390625
-0.0062255859375
0.0538330078125
-0.0062255859375
0.040283203125
0.0010986328125
0.002197265625
0.0018310546875
-0.0047607421875
0.0018310546875
-0.0025634765625
0.0003662109375
0.0003662109375
0.0
0.000732421875
-0.0003662109375
0.0029296875
-0.0025634765625
0.0029296875
-0.0029296875
-0.003662109375
-0.0010986328125
-0.000732421875
-0.0010986328125
0.01025390625
0.0062255859375
0.005126953125
0.0084228515625
0.0010986328125
0.006591796875
-0.0040283203125
-0.0172119140625
0.065185546875
-0.0186767578125
0.165557861328125
0.031494140625
-0.087890625
0.03076171875
-0.193756103515625
0.005859375
-0.0135498046875
0.00146484375
-0.0054931640625
0.0010986328125
-0.0146484375
-0.0032958984375
-0.0164794921875
-0.008056640625
-0.01904296875
-0.005126953125
-0.01611328125
-0.0069580078125
0.02490234375
-0.0076904296875
0.054931640625
-0.0040283203125
0.028564453125
-0.002197265625
0.0054931640625
-0.002197265625
-0.0029296875
0.00146484375
-0.01025390625
0.002197265625
-0.002197265625
0.00146484375
0.0003662109375
-0.000732421875
0.0032958984375
-0.0040283203125
0.00146484375
-0.0025634765625
-0.0062255859375
-0.005126953125
-0.00146484375
-0.0084228515625
0.0091552734375
-0.0018310546875
-0.0032958984375
-0.0025634765625
0.0018310546875
-0.005126953125
0.0062255859375
-0.029296875
0.0556640625
-0.0296630859375
0.172882080078125
0.0223388671875
-0.075439453125
0.0267333984375
-0.193756103515625
0.003662109375
-0.01318359375
0.0018310546875
-0.0076904296875
0.0018310546875
-0.0087890625
0.002197265625
-0.0135498046875
0.0032958984375
-0.01611328125
0.0040283203125
-0.018310546875
0.002197265625
0.021240234375
-0.005859375
0.0567626953125
-0.002197265625
0.027099609375
0.002197265625
0.0010986328125
0.0018310546875
-0.00146484375
0.00439453125
-0.006591796875
0.0040283203125
-0.005859375
0.0047607421875
0.0040283203125
0.0003662109375
0.0084228515625
0.0029296875
0.0029296875
0.0010986328125
0.00146484375
-0.0018310546875
-0.00146484375
-0.0736083984375
0.206207275390625
0.008056640625
0.03515625
0.073974609375
-0.221954345703125
-0.0091552734375
-0.0560302734375
-0.0018310546875
-0.0091552734375
-0.0018310546875
-0.0029296875
-0.0010986328125
-0.008056640625
-0.0040283203125
-0.0172119140625
-0.0018310546875
-0.0194091796875
0.0003662109375
0.00146484375
-0.0029296875
0.03955078125
-0.00146484375
0.0421142578125
0.0018310546875
0.0106201171875
0.005859375
-0.0062255859375
0.0010986328125
-0.0018310546875
-0.0025634765625
-0.0025634765625
-0.00146484375
0.000732421875
-0.002197265625
0.0062255859375
-0.0003662109375
0.0018310546875
-0.000732421875
-0.000732421875
0.0025634765625
-0.0040283203125
-0.0003662109375
-0.0003662109375
-0.0018310546875
0.0029296875
-0.000732421875
-0.0029296875
-0.0025634765625
0.002197265625
-0.0025634765625
0.0091552734375
0.0025634765625
0.0032958984375
0.0054931640625
-0.0025634765625
0.002197265625
-0.0113525390625
-0.0589599609375
0.179840087890625
0.0032958984375
0.076171875
0.062255859375
-0.204376220703125
-0.0029296875
-0.091552734375
0.0003662109375
-0.0087890625
-0.000732421875
-0.008056640625
-0.000732421875
-0.00732421875
0.0025634765625
-0.0186767578125
0.0003662109375
-0.0234375
-0.0032958984375
-0.0076904296875
-0.003662109375
0.0377197265625
-0.0029296875
0.052734375
-0.0054931640625
0.0263671875
0.003662109375
-0.0076904296875
0.0029296875
-0.0113525390625
-0.006591796875
0.0062255859375
-0.002197265625
0.00732421875
0.003662109375
0.000732421875
0.00439453125
-0.0018310546875
-0.000732421875
0.0047607421875
-0.041015625
0.1204833984375
-0.003662109375
0.11279296875
0.040283203125
-0.1329345703125
0.0047607421875
-0.1373291015625
-0.0010986328125
-0.0087890625
-0.000732421875
-0.00146484375
-0.0018310546875
-0.0062255859375
0.00146484375
-0.0216064453125
0.0003662109375
-0.0201416015625
0.0003662109375
-0.0062255859375
-0.000732421875
0.0391845703125
-0.003662109375
0.04833984375
0.0018310546875
0.013916015625
0.002197265625
0.0018310546875
0.005859375
-0.0069580078125
0.0032958984375
-0.002197265625
0.0
-0.0047607421875
-0.0010986328125
0.0047607421875
-0.002197265625
0.0087890625
0.0010986328125
0.0
0.0
-0.0076904296875
-0.0025634765625
0.000732421875
-0.0029296875
0.0091552734375
0.0025634765625
-0.0010986328125
0.002197265625
0.0029296875
0.0003662109375
-0.0010986328125
-0.0369873046875
0.100341796875
-0.01171875
0.149078369140625
0.0399169921875
-0.1197509765625
0.01318359375
-0.167755126953125
0.0003662109375
-0.01025390625
-0.00146484375
-0.0047607421875
-0.0003662109375
-0.0047607421875
0.0
-0.015380859375
0.0040283203125
-0.0263671875
0.00146484375
-0.01025390625
-0.009521484375
0.035888671875
-0.0106201171875
0.0538330078125
-0.0076904296875
0.025634765625
-0.002197265625
-0.0025634765625
-0.00146484375
-0.0087890625
-0.0018310546875
-0.008056640625
-0.0025634765625
0.0084228515625
-0.0040283203125
0.0120849609375
0.0010986328125
0.003662109375
0.00146484375
0.0018310546875
0.0
-0.0018310546875
-0.0794677734375
0.226348876953125
0.00732421875
0.01611328125
0.0791015625
-0.243927001953125
-0.008056640625
-0.03955078125
-0.0010986328125
-0.008056640625
-0.003662109375
-0.0040283203125
-0.000732421875
-0.0098876953125
-0.0010986328125
-0.0172119140625
0.0047607421875
-0.0230712890625
0.0018310546875
0.0032958984375
-0.00732421875
0.0465087890625
-0.0032958984375
0.037353515625
-0.00146484375
0.010986328125
0.000732421875
0.00146484375
0.0029296875
-0.008056640625
0.0010986328125
-0.00732421875
-0.00146484375
-0.0062255859375
-0.00146484375
0.0091552734375
-0.0010986328125
0.01318359375
0.002197265625
0.0018310546875
0.0025634765625
-0.000732421875
0.0
-0.0025634765625
-0.0838623046875
0.255279541015625
0.0032958984375
0.0010986328125
0.0882568359375
-0.280181884765625
-0.005126953125
-0.025634765625
-0.005859375
0.002197265625
0.00146484375
-0.0098876953125
0.00146484375
-0.017578125
0.002197265625
-0.022705078125
-0.00146484375
-0.0194091796875
-0.0010986328125
0.01611328125
-0.0025634765625
0.050537109375
-0.0032958984375
0.03662109375
0.0010986328125
0.00732421875
0.003662109375
-0.00146484375
0.0032958984375
-0.0084228515625
0.0003662109375
-0.0029296875
0.0018310546875
0.0032958984375
0.0
0.0032958984375
0.0
0.0003662109375
0.0
0.0018310546875
-0.000732421875
0.00146484375
-0.0029296875
-0.0010986328125
-0.0018310546875
0.0032958984375
0.00146484375
0.0010986328125
0.0003662109375
0.0
0.0029296875
-0.002197265625
0.0003662109375
-0.0029296875
-0.000732421875
-0.0029296875
-0.0025634765625
0.0032958984375
-0.002197265625
0.005126953125
0.005859375
0.0010986328125
0.0032958984375
0.000732421875
0.000732421875
-0.0054931640625
-0.0845947265625
0.257476806640625
0.00732421875
0.008056640625
0.088623046875
-0.276885986328125
-0.00146484375
-0.03076171875
0.0025634765625
-0.0120849609375
0.002197265625
-0.0098876953125
-0.000732421875
-0.0062255859375
-0.0018310546875
-0.0135498046875
0.0054931640625
-0.0234375
0.0025634765625
-0.002197265625
-0.0069580078125
0.056396484375
-0.0091552734375
0.0479736328125
0.00146484375
0.002197265625
-0.0003662109375
0.003662109375
-0.0018310546875
-0.0087890625
0.0032958984375
-0.0128173828125
-0.0018310546875
0.0098876953125
-0.000732421875
0.010986328125
0.0
0.0047607421875
0.0025634765625
0.005126953125
0.00439453125
-0.003662109375
-0.0791015625
0.214996337890625
0.00732421875
0.0296630859375
0.079833984375
-0.238433837890625
-0.0069580078125
-0.0531005859375
-0.003662109375
-0.00146484375
-0.00146484375
-0.005126953125
0.0010986328125
-0.012451171875
0.0003662109375
-0.01611328125
-0.0003662109375
-0.019775390625
-0.0018310546875
0.0032958984375
-0.0029296875
0.04833984375
-0.003662109375
0.041015625
0.002197265625
0.0029296875
0.0018310546875
-0.0032958984375
0.000732421875
-0.002197265625
0.0003662109375
0.0010986328125
-0.002197265625
-0.00146484375
-0.0025634765625
0.0
-0.00439453125
0.013916015625
0.0025634765625
0.0069580078125
0.00439453125
-0.002197265625
0.0
-0.0003662109375
-0.0098876953125
0.006591796875
-0.0640869140625
0.255645751953125
0.0113525390625
-0.018310546875
0.0648193359375
-0.280914306640625
-0.00146484375
-0.0128173828125
-0.00146484375
-0.005859375
-0.0003662109375
-0.009521484375
-0.0003662109375
-0.0120849609375
0.0047607421875
-0.0252685546875
-0.0003662109375
-0.0157470703125
-0.0018310546875
0.019775390625
-0.0040283203125
0.052734375
-0.006591796875
0.03515625
0.0029296875
-0.0029296875
0.003662109375
-0.0091552734375
0.0010986328125
0.0
0.00146484375
-0.002197265625
0.00146484375
-0.002197265625
0.002197265625
0.003662109375
0.000732421875
0.000732421875
-0.0010986328125
0.0018310546875
-0.0010986328125
0.0003662109375
0.0025634765625
-0.0018310546875
0.0010986328125
-0.0047607421875
-0.00146484375
-0.0003662109375
-0.000732421875
0.0087890625
0.0040283203125
-0.003662109375
0.005126953125
-0.003662109375
-0.002197265625
0.0032958984375
-0.0450439453125
0.138824462890625
0.0003662109375
0.1051025390625
0.0465087890625
-0.157501220703125
0.0025634765625
-0.1314697265625
-0.0010986328125
-0.009521484375
-0.0025634765625
-0.0010986328125
0.0003662109375
-0.009521484375
0.0018310546875
-0.01611328125
0.002197265625
-0.0205078125
0.0040283203125
-0.01611328125
-0.0029296875
0.034423828125
-0.005126953125
0.0560302734375
-0.0010986328125
0.0205078125
0.0
0.0040283203125
0.0003662109375
-0.0047607421875
0.0003662109375
-0.010986328125
0.0025634765625
0.0054931640625
-0.0003662109375
0.0087890625
0.0047607421875
0.0047607421875
0.00439453125
0.00439453125
-0.0003662109375
-0.0018310546875
-0.08642578125
0.249420166015625
0.00439453125
0.0087890625
0.0919189453125
-0.271759033203125
-0.0047607421875
-0.0340576171875
-0.002197265625
-0.0047607421875
0.0003662109375
-0.0054931640625
0.000732421875
-0.0113525390625
0.0032958984375
-0.0238037109375
0.0
-0.0230712890625
-0.003662109375
0.01171875
-0.005859375
0.054931640625
-0.005126953125
0.0435791015625
-0.002197265625
0.005126953125
0.00146484375
-0.002197265625
0.002197265625
-0.00439453125
0.000732421875
0.000732421875
0.000732421875
0.00439453125
0.000732421875
0.000732421875
-0.000732421875
0.00439453125
-0.0029296875
-0.00439453125
0.0
-0.0087890625
-0.0040283203125
0.009521484375
-0.0029296875
0.0113525390625
0.0032958984375
0.0
0.002197265625
-0.0025634765625
0.0025634765625
-0.00439453125
-0.0849609375
0.252349853515625
0.0032958984375
0.013916015625
0.088623046875
-0.273590087890625
-0.0029296875
-0.0347900390625
-0.0040283203125
-0.0040283203125
0.000732421875
-0.0054931640625
-0.0032958984375
-0.0091552734375
-0.0010986328125
-0.0157470703125
0.0040283203125
-0.0208740234375
0.0025634765625
-0.0010986328125
-0.0029296875
0.0487060546875
-0.0087890625
0.0443115234375
-0.0025634765625
0.0069580078125
0.0
0.0
0.0003662109375
-0.0032958984375
-0.000732421875
-0.0032958984375
0.00146484375
-0.0018310546875
0.0025634765625
0.0
0.000732421875
0.0
-0.00146484375
0.00439453125
-0.000732421875
-0.0029296875
-0.0003662109375
0.0010986328125
-0.005859375
0.01171875
0.0003662109375
0.0
0.0054931640625
-0.0032958984375
-0.00146484375
0.0
-0.05712890625
0.172515869140625
0.0091552734375
0.07177734375
0.060791015625
-0.193023681640625
-0.0054931640625
-0.095947265625
-0.0003662109375
-0.0120849609375
0.0025634765625
-0.0091552734375
0.0025634765625
-0.0084228515625
0.0003662109375
-0.01318359375
-0.0032958984375
-0.0186767578125
0.00439453125
-0.0120849609375
-0.000732421875
0.037353515625
-0.00439453125
0.050537109375
0.0010986328125
0.0150146484375
0.0010986328125
0.0003662109375
0.0003662109375
-0.00146484375
0.00146484375
-0.0128173828125
0.0047607421875
-0.00439453125
0.0003662109375
0.013916015625
0.00732421875
-0.00146484375
0.00146484375
0.0076904296875
-0.003662109375
0.00732421875
-0.0472412109375
0.139190673828125
0.0018310546875
0.09375
0.0538330078125
-0.167022705078125
0.0003662109375
-0.1168212890625
-0.0010986328125
-0.0047607421875
-0.00146484375
-0.0091552734375
-0.000732421875
-0.0120849609375
0.000732421875
-0.0128173828125
0.0018310546875
-0.0245361328125
0.000732421875
-0.0106201171875
-0.0076904296875
0.0457763671875
-0.0040283203125
0.050537109375
0.0003662109375
0.016845703125
0.0047607421875
-0.0003662109375
0.0069580078125
-0.009521484375
0.00146484375
-0.0040283203125
-0.000732421875
0.0040283203125
-0.0032958984375
0.0084228515625
0.0
0.0
-0.0003662109375
0.0003662109375
0.000732421875
0.0025634765625
0.0
-0.00146484375
-0.002197265625
-0.00146484375
-0.0025634765625
-0.0025634765625
-0.00439453125
0.0087890625
0.0003662109375
0.0062255859375
0.00146484375
-0.00146484375
0.0025634765625
-0.0025634765625
-0.0018310546875
0.00146484375
-0.0908203125
0.271026611328125
0.0069580078125
-0.0087890625
0.09228515625
-0.290435791015625
-0.00146484375
-0.0263671875
-0.0040283203125
-0.0025634765625
-0.0003662109375
0.0
0.0047607421875
-0.019775390625
0.0
-0.01904296875
-0.0025634765625
-0.0208740234375
0.0040283203125
0.0032958984375
-0.006591796875
0.0611572265625
-0.005126953125
0.046875
0.0040283203125
0.0054931640625
0.0
0.0
0.0
-0.00439453125
0.0
-0.0091552734375
0.002197265625
-0.0098876953125
-0.0040283203125
0.010986328125
-0.0003662109375
0.013916015625
0.0
0.0032958984375
-0.002197265625
0.0003662109375
0.0040283203125
-0.002197265625
-0.079833984375
0.250885009765625
0.005126953125
0.01025390625
0.08203125
-0.271026611328125
-0.005126953125
-0.0325927734375
0.000732421875
-0.0084228515625
0.000732421875
-0.01171875
-0.0025634765625
-0.009521484375
-0.0003662109375
-0.017578125
0.0025634765625
-0.0230712890625
-0.0029296875
0.0025634765625
-0.0069580078125
0.0523681640625
-0.00146484375
0.0443115234375
0.003662109375
0.0069580078125
0.0003662109375
-0.000732421875
-0.0010986328125
-0.0025634765625
0.0010986328125
-0.0018310546875
0.000732421875
-0.0010986328125
0.0
0.0029296875
-0.0010986328125
0.0025634765625
-0.0029296875
0.0025634765625
-0.0025634765625
0.002197265625
-0.0003662109375
-0.003662109375
0.002197265625
-0.008056640625
-0.00439453125
0.0010986328125
-0.0047607421875
0.0120849609375
0.0029296875
0.0054931640625
0.0029296875
-0.0025634765625
0.0
-0.005126953125
-0.0596923828125
0.163726806640625
0.01025390625
0.0823974609375
0.0673828125
-0.187530517578125
-0.0076904296875
-0.100341796875
-0.00439453125
-0.002197265625
0.0
-0.00732421875
-0.002197265625
-0.0084228515625
0.000732421875
-0.010986328125
-0.0003662109375
-0.0179443359375
0.0010986328125
-0.0106201171875
-0.0003662109375
0.0325927734375
-0.005859375
0.0457763671875
-0.0040283203125
0.01904296875
-0.00146484375
-0.000732421875
0.0
-0.00732421875
-0.0010986328125
-0.008056640625
-0.00439453125
0.0076904296875
-0.0003662109375
0.0091552734375
0.00732421875
0.0
0.0062255859375
0.0003662109375
-0.0029296875
0.0029296875
-0.0860595703125
0.258575439453125
0.00439453125
-0.0120849609375
0.085693359375
-0.277618408203125
-0.0003662109375
-0.013916015625
-0.0018310546875
-0.00732421875
-0.0018310546875
-0.006591796875
0.0018310546875
-0.0098876953125
0.0018310546875
-0.0238037109375
-0.000732421875
-0.0205078125
0.0010986328125
0.0150146484375
-0.00732421875
0.05419921875
-0.0047607421875
0.0413818359375
0.0040283203125
0.0029296875
0.002197265625
-0.0087890625
0.00439453125
-0.0032958984375
0.00146484375
0.00146484375
0.0003662109375
0.0018310546875
0.0003662109375
-0.00439453125
0.0010986328125
0.000732421875
-0.0018310546875
0.0069580078125
0.0010986328125
0.0
0.000732421875
0.002197265625
-0.000732421875
-0.0032958984375
0.0010986328125
-0.012451171875
-0.0062255859375
0.0032958984375
-0.0032958984375
0.0146484375
0.0003662109375
0.0047607421875
0.0054931640625
-0.0029296875
0.0029296875
0.0
-0.0186767578125
0.0333251953125
-0.047607421875
0.226715087890625
0.022705078125
-0.054931640625
0.0556640625
-0.254547119140625
-0.000732421875
-0.0084228515625
-0.0010986328125
-0.0040283203125
-0.0018310546875
-0.005859375
-0.0003662109375
-0.0120849609375
-0.000732421875
-0.018310546875
0.0
-0.0164794921875
0.003662109375
0.01611328125
-0.005859375
0.053466796875
-0.0062255859375
0.0355224609375
-0.0010986328125
0.0040283203125
-0.0003662109375
-0.0062255859375
0.002197265625
-0.0135498046875
-0.0032958984375
0.0062255859375
-0.003662109375
0.01171875
0.00146484375
0.002197265625
0.0032958984375
0.003662109375
0.00146484375
-0.00146484375
-0.0875244140625
0.257110595703125
0.0025634765625
-0.0003662109375
0.087890625
-0.275421142578125
-0.00146484375
-0.0230712890625
0.0003662109375
-0.00732421875
-0.002197265625
-0.0040283203125
-0.0025634765625
-0.01171875
0.0010986328125
-0.0164794921875
0.00146484375
-0.01904296875
0.0
0.005859375
-0.005859375
0.049072265625
-0.0040283203125
0.0369873046875
0.00146484375
0.0069580078125
-0.0003662109375
0.003662109375
0.0010986328125
-0.005859375
0.0018310546875
-0.002197265625
0.0010986328125
0.0029296875
-0.0029296875
0.0029296875
-0.0018310546875
0.000732421875
0.00146484375
-0.0084228515625
-0.005859375
0.0032958984375
-0.0054931640625
0.0135498046875
0.003662109375
0.002197265625
0.0054931640625
-0.002197265625
0.000732421875
-0.0047607421875
-0.0662841796875
0.186065673828125
0.0087890625
0.0677490234375
0.0692138671875
-0.205108642578125
-0.006591796875
-0.088623046875
-0.0025634765625
-0.0054931640625
-0.0025634765625
-0.002197265625
-0.0010986328125
-0.0120849609375
0.000732421875
-0.013916015625
0.00146484375
-0.019775390625
0.000732421875
-0.00439453125
-0.005126953125
0.0391845703125
-0.0047607421875
0.0421142578125
-0.0010986328125
0.0135498046875
0.000732421875
-0.0003662109375
0.002197265625
-0.0062255859375
0.00146484375
-0.0062255859375
0.0032958984375
-0.002197265625
0.0029296875
-0.0003662109375
-0.0003662109375
0.0040283203125
-0.002197265625
0.0076904296875
-0.0025634765625
-0.00146484375
-0.005126953125
0.000732421875
-0.0025634765625
0.008056640625
0.005126953125
0.0003662109375
0.003662109375
0.0
0.00146484375
0.0
-0.0333251953125
0.0904541015625
-0.0091552734375
0.134429931640625
0.0377197265625
-0.1094970703125
0.0135498046875
-0.160797119140625
0.00439453125
-0.0128173828125
0.0003662109375
-0.005859375
-0.000732421875
-0.008056640625
0.0003662109375
-0.015380859375
0.0018310546875
-0.02197265625
0.002197265625
-0.01171875
0.0
0.030029296875
-0.003662109375
0.05126953125
-0.002197265625
0.0260009765625
0.00146484375
0.00439453125
0.0018310546875
-0.008056640625
0.002197265625
-0.008056640625
-0.002197265625
-0.0032958984375
-0.0025634765625
0.0076904296875
-0.000732421875
0.012451171875
0.0025634765625
0.003662109375
0.002197265625
0.00146484375
0.0010986328125
-0.0040283203125
-0.07763671875
0.232940673828125
0.002197265625
0.018310546875
0.08056640625
-0.254913330078125
-0.002197265625
-0.0428466796875
-0.0029296875
-0.0084228515625
0.0
-0.0062255859375
0.0003662109375
-0.010986328125
0.0003662109375
-0.017578125
0.0
-0.0238037109375
-0.0025634765625
0.0047607421875
-0.0040283203125
0.0538330078125
-0.0010986328125
0.0457763671875
0.0018310546875
0.008056640625
0.000732421875
-0.0029296875
0.0
0.000732421875
-0.0003662109375
-0.0029296875
0.0047607421875
-0.003662109375
0.0003662109375
0.0047607421875
-0.0029296875
0.005126953125
-0.003662109375
0.0069580078125
0.0
0.0003662109375
0.0040283203125
-0.0047607421875
-0.0040283203125
0.00732421875
-0.000732421875
-0.0062255859375
0.0025634765625
-0.0128173828125
-0.000732421875
0.009521484375
-0.002197265625
0.0069580078125
0.0040283203125
-0.002197265625
0.0029296875
0.0032958984375
-0.0128173828125
0.015380859375
-0.056396484375
0.250152587890625
0.0146484375
-0.027099609375
0.0615234375
-0.274322509765625
-0.0003662109375
-0.0113525390625
-0.000732421875
-0.0032958984375
0.0025634765625
-0.0076904296875
0.003662109375
-0.01611328125
0.0010986328125
-0.01904296875
0.002197265625
-0.0205078125
0.0003662109375
0.013916015625
-0.009521484375
0.056396484375
-0.0069580078125
0.0281982421875
-0.0054931640625
0.00146484375
-0.002197265625
-0.0025634765625
0.0010986328125
-0.0120849609375
-0.0029296875
0.002197265625
-0.00146484375
0.0128173828125
0.0003662109375
0.0047607421875
0.00439453125
0.00146484375
0.0025634765625
-0.002197265625
-0.0640869140625
0.180938720703125
0.006591796875
0.0611572265625
0.064453125
-0.200714111328125
-0.006591796875
-0.08056640625
-0.0003662109375
-0.0054931640625
-0.0003662109375
-0.0047607421875
0.000732421875
-0.01171875
0.0010986328125
-0.0135498046875
-0.0018310546875
-0.0150146484375
-0.00146484375
-0.005126953125
-0.005126953125
0.03955078125
-0.0029296875
0.04248046875
0.0
0.0098876953125
-0.0029296875
0.0047607421875
0.0010986328125
0.0
0.000732421875
-0.0032958984375
0.0010986328125
-0.0025634765625
-0.002197265625
0.00146484375
-0.0025634765625
0.0054931640625
0.002197265625
-0.0029296875
0.0
-0.0087890625
-0.003662109375
0.0003662109375
-0.00439453125
0.01025390625
0.0029296875
0.005859375
0.0040283203125
-0.0025634765625
0.000732421875
-0.0047607421875
-0.0421142578125
0.137359619140625
0.002197265625
0.10400390625
0.046142578125
-0.159698486328125
0.0003662109375
-0.12744140625
0.00146484375
-0.006591796875
-0.0003662109375
-0.008056640625
0.0
-0.0076904296875
0.00146484375
-0.013916015625
0.0
-0.0234375
0.0018310546875
-0.01318359375
0.0
0.0347900390625
-0.0025634765625
0.053466796875
-0.0025634765625
0.0234375
0.0010986328125
0.002197265625
-0.00146484375
-0.0010986328125
0.0
-0.00439453125
0.0018310546875
-0.000732421875
0.002197265625
0.0029296875
0.0003662109375
0.0018310546875
-0.000732421875
0.0025634765625
0.002197265625
0.00146484375
-0.002197265625
-0.000732421875
0.000732421875
-0.0069580078125
0.000732421875
0.0069580078125
-0.0029296875
0.0076904296875
0.0018310546875
-0.0025634765625
0.005126953125
0.003662109375
-0.0029296875
0.0062255859375
-0.0831298828125
0.260772705078125
0.010986328125
-0.0120849609375
0.0904541015625
-0.294097900390625
0.0032958984375
-0.0208740234375
-0.000732421875
-0.00146484375
0.0003662109375
-0.01025390625
0.002197265625
-0.01318359375
-0.002197265625
-0.0172119140625
0.0003662109375
-0.0194091796875
0.00146484375
0.0087890625
-0.006591796875
0.05712890625
-0.005859375
0.04248046875
0.0029296875
0.000732421875
0.0018310546875
-0.002197265625
0.000732421875
-0.0062255859375
0.0025634765625
-0.0120849609375
-0.0029296875
0.010986328125
-0.002197265625
0.0172119140625
0.0040283203125
0.0018310546875
0.0040283203125
0.0040283203125
0.0010986328125
-0.0032958984375
-0.0794677734375
0.221221923828125
0.0069580078125
0.0303955078125
0.075439453125
-0.245758056640625
-0.0084228515625
-0.052001953125
-0.0003662109375
-0.003662109375
-0.0025634765625
-0.0040283203125
-0.0018310546875
-0.0084228515625
0.0003662109375
-0.0164794921875
0.0032958984375
-0.0245361328125
-0.002197265625
0.00146484375
-0.002197265625
0.0428466796875
-0.0032958984375
0.0435791015625
-0.0010986328125
0.010986328125
0.0032958984375
-0.006591796875
0.0003662109375
-0.0040283203125
0.0029296875
-0.0032958984375
0.0032958984375
-0.0003662109375
0.000732421875
0.0025634765625
-0.0018310546875
0.0003662109375
-0.002197265625
0.0010986328125
-0.0047607421875
0.0054931640625
-0.00146484375
0.000732421875
0.0010986328125
-0.0076904296875
-0.0029296875
-0.0018310546875
-0.0025634765625
0.003662109375
-0.0010986328125
0.006591796875
0.0025634765625
0.00146484375
0.002197265625
-0.003662109375
-0.0157470703125
0.0223388671875
-0.046142578125
0.229644775390625
0.021240234375
-0.03662109375
0.0487060546875
-0.253448486328125
-0.00146484375
-0.0106201171875
0.0003662109375
-0.0069580078125
-0.0018310546875
-0.0091552734375
-0.0010986328125
-0.0113525390625
-0.0062255859375
-0.0157470703125
-0.0047607421875
-0.016845703125
0.0
0.0150146484375
-0.005126953125
0.0498046875
-0.005859375
0.0296630859375
-0.00146484375
0.0032958984375
-0.00146484375
-0.0087890625
-0.0003662109375
-0.005126953125
0.00146484375
0.005859375
0.0018310546875
0.000732421875
0.005126953125
0.0018310546875
0.0018310546875
0.00439453125
-0.002197265625
0.006591796875
-0.08349609375
0.247955322265625
0.0032958984375
-0.0069580078125
0.0849609375
-0.267730712890625
-0.0018310546875
-0.0194091796875
-0.000732421875
-0.0040283203125
-0.00146484375
-0.009521484375
0.002197265625
-0.0135498046875
0.0029296875
-0.0230712890625
0.0
-0.0223388671875
-0.0025634765625
0.017578125
-0.0084228515625
0.06005859375
-0.00146484375
0.038818359375
0.0029296875
0.0
-0.0010986328125
-0.0010986328125
0.0003662109375
-0.003662109375
0.0047607421875
-0.0040283203125
0.0018310546875
0.00146484375
0.00146484375
0.00439453125
0.000732421875
0.003662109375
-0.0032958984375
-0.0003662109375
-0.0010986328125
0.009521484375
-0.000732421875
0.008056640625
0.005126953125
-0.0018310546875
0.00146484375
0.0
0.0040283203125
-0.0069580078125
-0.076171875
0.238067626953125
0.0018310546875
0.032958984375
0.081298828125
-0.260772705078125
-0.0047607421875
-0.052001953125
0.002197265625
-0.008056640625
-0.0010986328125
-0.0062255859375
0.002197265625
-0.0120849609375
0.005126953125
-0.01904296875
0.0018310546875
-0.0234375
0.0010986328125
-0.0010986328125
-0.0040283203125
0.0487060546875
-0.0025634765625
0.047607421875
-0.002197265625
0.012451171875
0.0
0.0029296875
0.0003662109375
-0.0018310546875
0.0029296875
-0.005859375
0.002197265625
-0.0010986328125
0.0010986328125
0.000732421875
0.00146484375
0.0018310546875
-0.0032958984375
0.0010986328125
0.00146484375
-0.0003662109375
-0.0003662109375
0.0018310546875
0.000732421875
0.0029296875
0.000732421875
0.002197265625
-0.003662109375
-0.0062255859375
-0.003662109375
-0.005126953125
-0.0025634765625
0.0062255859375
-0.00146484375
0.005126953125
0.002197265625
0.0003662109375
0.0018310546875
-0.0010986328125
-0.019775390625
0.0194091796875
-0.059326171875
0.253082275390625
0.0179443359375
-0.0347900390625
0.0582275390625
-0.278350830078125
-0.000732421875
-0.0128173828125
0.0
-0.0054931640625
0.0025634765625
-0.0076904296875
0.00146484375
-0.01171875
0.0003662109375
-0.018310546875
0.0018310546875
-0.0205078125
-0.0003662109375
0.01611328125
-0.0062255859375
0.05419921875
-0.006591796875
0.0318603515625
-0.000732421875
0.0040283203125
-0.00146484375
0.00146484375
0.0018310546875
-0.009521484375
0.0003662109375
-0.0098876953125
-0.00146484375
0.0113525390625
-0.0003662109375
0.0120849609375
0.0040283203125
0.0010986328125
0.005126953125
0.00146484375
0.0025634765625
-0.0029296875
-0.08056640625
0.229278564453125
0.005859375
0.017578125
0.084228515625
-0.252716064453125
-0.0076904296875
-0.0377197265625
-0.000732421875
-0.002197265625
-0.0010986328125
-0.0091552734375
-0.0040283203125
-0.01025390625
0.0
-0.0164794921875
0.0
-0.0216064453125
-0.00146484375
0.0040283203125
-0.005126953125
0.0450439453125
-0.00439453125
0.0384521484375
-0.002197265625
0.0098876953125
-0.0029296875
0.0032958984375
-0.003662109375
-0.0025634765625
0.000732421875
-0.00439453125
0.003662109375
0.00146484375
-0.002197265625
0.0029296875
-0.0003662109375
0.0003662109375
0.00146484375
0.00146484375
0.0
-0.002197265625
-0.0029296875
0.0003662109375
-0.0032958984375
0.0
-0.00146484375
-0.005126953125
-0.003662109375
0.0076904296875
-0.0010986328125
0.0091552734375
0.0029296875
-0.0029296875
0.0054931640625
-0.00439453125
-0.0003662109375
0.000732421875
-0.08642578125
0.253448486328125
0.0087890625
-0.00146484375
0.0904541015625
-0.274688720703125
-0.000732421875
-0.02783203125
-0.000732421875
-0.00732421875
-0.0003662109375
-0.008056640625
-0.00146484375
-0.008056640625
0.0010986328125
-0.0150146484375
0.000732421875
-0.02197265625
-0.000732421875
0.005126953125
-0.005126953125
0.054931640625
-0.005126953125
0.0443115234375
-0.0010986328125
0.010986328125
0.0003662109375
0.002197265625
0.0047607421875
-0.0098876953125
0.0018310546875
-0.0091552734375
0.000732421875
0.005126953125
0.0010986328125
0.0084228515625
0.002197265625
0.005859375
-0.0003662109375
0.0054931640625
-0.0172119140625
-0.0098876953125
-0.1065673828125
0.137359619140625
0.0230712890625
0.003662109375
0.1197509765625
-0.153106689453125
0.0047607421875
-0.01025390625
0.0003662109375
-0.00146484375
-0.0003662109375
-0.000732421875
0.0029296875
-0.0040283203125
0.008056640625
-0.0054931640625
0.01025390625
-0.0032958984375
0.0032958984375
0.0120849609375
-0.01904296875
0.025634765625
-0.01904296875
0.0054931640625
-0.0032958984375
-0.005126953125
-0.0025634765625
-0.00146484375
0.0018310546875
-0.000732421875
0.0029296875
0.0018310546875
-0.0018310546875
0.0029296875
-0.000732421875
0.002197265625
0.0025634765625
0.0029296875
-0.00146484375
0.0018310546875
-0.0025634765625
-0.00146484375
0.00146484375
-0.000732421875
-0.000732421875
0.0010986328125
-0.0025634765625
0.0029296875
-0.0018310546875
-0.0076904296875
-0.00146484375
-0.0032958984375
-0.0032958984375
0.0128173828125
0.00146484375
0.0010986328125
0.000732421875
-0.0010986328125
-0.0032958984375
0.0003662109375
-0.0556640625
0.164093017578125
0.006591796875
0.0845947265625
0.05859375
-0.186065673828125
-0.005126953125
-0.1072998046875
-0.0018310546875
-0.005126953125
-0.000732421875
-0.0054931640625
-0.000732421875
-0.0087890625
0.0018310546875
-0.01171875
0.0029296875
-0.02197265625
-0.0003662109375
-0.0128173828125
-0.0047607421875
0.03369140625
-0.006591796875
0.053466796875
-0.005859375
0.0216064453125
0.00146484375
-0.0029296875
0.00439453125
-0.005859375
0.0
-0.0029296875
0.0
-0.000732421875
0.0
0.0029296875
-0.0018310546875
0.005859375
-0.0003662109375
0.00146484375
0.0029296875
-0.006591796875
-0.002197265625
0.00146484375
-0.0025634765625
0.0098876953125
0.0032958984375
0.0029296875
0.0010986328125
-0.000732421875
0.0
-0.002197265625
-0.041748046875
0.12451171875
0.0032958984375
0.1036376953125
0.0443115234375
-0.1468505859375
-0.0025634765625
-0.1278076171875
-0.0032958984375
-0.005126953125
-0.0003662109375
-0.005126953125
0.0003662109375
-0.0076904296875
-0.0010986328125
-0.0120849609375
0.0029296875
-0.0194091796875
0.0025634765625
-0.0135498046875
-0.003662109375
0.0296630859375
-0.00732421875
0.052734375
0.0003662109375
0.01904296875
0.00439453125
-0.00146484375
0.0010986328125
0.0
0.000732421875
-0.0010986328125
-0.0003662109375
-0.000732421875
0.0
0.00146484375
-0.0010986328125
0.00439453125
0.0003662109375
-0.005859375
-0.0018310546875
-0.000732421875
-0.0032958984375
0.01318359375
0.0040283203125
0.0
0.0032958984375
-0.0029296875
0.0025634765625
-0.0025634765625
-0.0421142578125
0.1300048828125
-0.0010986328125
0.1138916015625
0.044677734375
-0.1490478515625
0.0029296875
-0.134033203125
0.0025634765625
-0.01025390625
0.0029296875
-0.0062255859375
0.0047607421875
-0.0084228515625
0.0040283203125
-0.0150146484375
0.003662109375
-0.021240234375
0.0018310546875
-0.0157470703125
-0.0029296875
0.03369140625
-0.00732421875
0.0567626953125
-0.00146484375
0.0238037109375
0.003662109375
0.000732421875
0.0018310546875
-0.005859375
0.003662109375
-0.003662109375
0.000732421875
-0.006591796875
0.0
-0.0029296875
-0.0029296875
0.015380859375
-0.0029296875
0.009521484375
0.0025634765625
-0.0003662109375
0.0010986328125
0.003662109375
-0.006591796875
0.0062255859375
-0.0765380859375
0.265167236328125
0.0106201171875
-0.015380859375
0.079833984375
-0.291168212890625
0.0003662109375
-0.0179443359375
-0.00146484375
-0.003662109375
-0.00146484375
-0.00732421875
-0.003662109375
-0.0106201171875
-0.0032958984375
-0.018310546875
0.003662109375
-0.022705078125
0.000732421875
0.013916015625
-0.006591796875
0.0556640625
-0.0054931640625
0.0377197265625
-0.000732421875
0.005859375
0.0
-0.0025634765625
-0.0010986328125
-0.002197265625
0.0029296875
-0.005859375
0.000732421875
-0.002197265625
-0.0025634765625
0.006591796875
0.0
-0.00146484375
-0.00146484375
-0.0047607421875
-0.0069580078125
0.005859375
-0.0047607421875
0.0076904296875
0.0040283203125
0.0
0.003662109375
0.0
-0.0003662109375
-0.003662109375
-0.0692138671875
0.193756103515625
0.010986328125
0.0421142578125
0.0732421875
-0.218658447265625
-0.00439453125
-0.066650390625
-0.0018310546875
-0.003662109375
-0.0029296875
-0.0047607421875
-0.0003662109375
-0.009521484375
0.000732421875
-0.017578125
0.0032958984375
-0.0216064453125
0.0018310546875
-0.00146484375
-0.0003662109375
0.0391845703125
-0.006591796875
0.0450439453125
-0.005859375
0.016845703125
0.00146484375
-0.00146484375
-0.000732421875
-0.0029296875
-0.0003662109375
-0.0029296875
0.0003662109375
-0.0040283203125
-0.0010986328125
0.00439453125
-0.0018310546875
0.0018310546875
-0.002197265625
-0.0076904296875
-0.0201416015625
-0.005126953125
-0.0552978515625
-0.0791015625
-0.060791015625
-0.034423828125
0.0604248046875
0.087158203125
0.091552734375
0.054931640625
0.0047607421875
0.015380859375
0.000732421875
0.005126953125
0.003662109375
0.0076904296875
0.0091552734375
0.0142822265625
0.0142822265625
0.0234375
0.0087890625
0.0208740234375
-0.005126953125
-0.0076904296875
-0.0223388671875
-0.0377197265625
-0.0201416015625
-0.0406494140625
-0.0084228515625
-0.017578125
0.0
-0.0029296875
0.0029296875
-0.00146484375
-0.0029296875
0.003662109375
-0.0003662109375
-0.0018310546875
0.0032958984375
-0.0054931640625
-0.0010986328125
0.0
-0.0040283203125
0.0076904296875
0.0010986328125
0.002197265625
0.0029296875
-0.0010986328125
0.0032958984375
0.002197265625
0.00439453125
-0.0047607421875
-0.0809326171875
0.235504150390625
0.00439453125
0.0062255859375
0.08642578125
-0.261871337890625
-0.0029296875
-0.027099609375
-0.002197265625
-0.0047607421875
0.0040283203125
-0.008056640625
0.0032958984375
-0.0120849609375
0.003662109375
-0.024169921875
0.0054931640625
-0.019775390625
0.0032958984375
0.0076904296875
-0.003662109375
0.052734375
-0.00439453125
0.046875
0.0040283203125
0.0098876953125
0.0025634765625
0.000732421875
0.0018310546875
-0.0032958984375
0.0010986328125
-0.005126953125
0.0
-0.003662109375
0.000732421875
0.0025634765625
-0.0029296875
0.0032958984375
-0.0029296875
0.00146484375
-0.0029296875
0.0040283203125
-0.00146484375
-0.0032958984375
-0.0029296875
-0.0040283203125
-0.0029296875
0.0091552734375
-0.0003662109375
0.005859375
0.002197265625
-0.0032958984375
0.0018310546875
-0.00146484375
-0.015380859375
0.01611328125
-0.064453125
0.251617431640625
0.01318359375
-0.0289306640625
0.06591796875
-0.276519775390625
0.0003662109375
-0.0146484375
0.0
-0.0032958984375
0.0018310546875
-0.0054931640625
-0.0025634765625
-0.0142822265625
0.000732421875
-0.0179443359375
0.0032958984375
-0.0194091796875
0.0
0.0146484375
-0.0054931640625
0.054931640625
-0.003662109375
0.032958984375
0.0003662109375
0.00439453125
0.0
-0.008056640625
0.0
-0.00732421875
-0.0025634765625
0.008056640625
0.0003662109375
0.005126953125
0.0018310546875
0.0054931640625
0.0025634765625
0.0040283203125
0.0
-0.0040283203125
-0.0732421875
0.205474853515625
0.008056640625
0.02197265625
0.0714111328125
-0.225982666015625
-0.008056640625
-0.041748046875
-0.002197265625
-0.005126953125
-0.002197265625
-0.0040283203125
-0.0010986328125
-0.0076904296875
0.0003662109375
-0.01904296875
0.002197265625
-0.0216064453125
0.0003662109375
0.003662109375
-0.0032958984375
0.0435791015625
-0.005126953125
0.0399169921875
-0.0010986328125
0.0091552734375
0.00146484375
-0.002197265625
0.00146484375
-0.000732421875
-0.002197265625
-0.0025634765625
0.0
-0.0087890625
-0.003662109375
0.0120849609375
-0.0062255859375
0.0135498046875
0.005859375
-0.005859375
0.0047607421875
-0.000732421875
-0.000732421875
-0.0010986328125
-0.0728759765625
0.203643798828125
0.0069580078125
0.0377197265625
0.0714111328125
-0.223419189453125
-0.008056640625
-0.059326171875
0.0003662109375
-0.0047607421875
-0.0010986328125
-0.0076904296875
-0.0003662109375
-0.0098876953125
0.000732421875
-0.017578125
-0.0010986328125
-0.02197265625
0.000732421875
0.0032958984375
-0.0032958984375
0.0479736328125
-0.003662109375
0.0413818359375
0.0047607421875
0.0010986328125
0.0025634765625
0.0032958984375
-0.00146484375
0.002197265625
0.0032958984375
-0.0087890625
0.0018310546875
-0.003662109375
-0.000732421875
0.0054931640625
-0.0003662109375
0.0069580078125
-0.0010986328125
0.005126953125
0.0
-0.0018310546875
0.0003662109375
-0.0029296875
0.0010986328125
0.0029296875
0.000732421875
-0.0054931640625
-0.0003662109375
-0.0025634765625
-0.0047607421875
0.013916015625
-0.00146484375
0.005859375
0.0054931640625
-0.0054931640625
0.000732421875
-0.0018310546875
-0.018310546875
0.041015625
-0.0391845703125
0.209136962890625
0.02197265625
-0.0552978515625
0.0465087890625
-0.233306884765625
0.0029296875
-0.01318359375
0.000732421875
-0.00439453125
0.00146484375
-0.009521484375
-0.0003662109375
-0.013916015625
0.0
-0.01904296875
0.003662109375
-0.0194091796875
0.0
0.0223388671875
-0.0069580078125
0.0560302734375
-0.006591796875
0.0362548828125
0.003662109375
0.0010986328125
0.0018310546875
-0.013916015625
-0.0047607421875
-0.0010986328125
-0.0010986328125
0.00732421875
0.00439453125
0.0018310546875
0.005859375
0.0032958984375
0.000732421875
0.006591796875
-0.0146484375
0.0201416015625
-0.0531005859375
0.237701416015625
0.015380859375
-0.03076171875
0.0545654296875
-0.260772705078125
-0.000732421875
-0.012451171875
0.0
-0.005859375
-0.0018310546875
-0.00732421875
-0.0025634765625
-0.0113525390625
-0.0018310546875
-0.01904296875
-0.0003662109375
-0.0172119140625
-0.0032958984375
0.0263671875
-0.0047607421875
0.0552978515625
0.0003662109375
0.0234375
0.0029296875
-0.0032958984375
0.000732421875
-0.0029296875
-0.0010986328125
-0.002197265625
0.000732421875
0.0
-0.0003662109375
0.0003662109375
-0.0029296875
-0.002197265625
-0.0054931640625
0.0106201171875
-0.0032958984375
0.009521484375
0.0047607421875
-0.0029296875
0.00439453125
-0.00146484375
0.0010986328125
-0.0032958984375
-0.07763671875
0.209869384765625
0.0
0.0311279296875
0.0706787109375
-0.229644775390625
-0.0069580078125
-0.049072265625
0.002197265625
-0.0025634765625
-0.0029296875
0.000732421875
-0.0010986328125
-0.0091552734375
0.0040283203125
-0.02197265625
0.0047607421875
-0.021240234375
0.0029296875
0.0018310546875
-0.0032958984375
0.046142578125
0.00146484375
0.0443115234375
0.0142822265625
0.006591796875
0.0179443359375
-0.003662109375
0.0128173828125
-0.00439453125
0.0128173828125
-0.00732421875
0.01025390625
-0.0025634765625
0.0142822265625
-0.0040283203125
0.0157470703125
-0.0040283203125
0.0047607421875
-0.0069580078125
-0.012451171875
-0.00146484375
-0.0223388671875
0.00732421875
-0.01318359375
0.000732421875
-0.0054931640625
-0.0003662109375
-0.000732421875
0.0
-0.01904296875
0.0322265625
-0.040283203125
0.217926025390625
0.0267333984375
-0.0501708984375
0.05126953125
-0.247589111328125
0.00439453125
-0.0120849609375
0.0003662109375
-0.0062255859375
0.005126953125
-0.0120849609375
0.0032958984375
-0.01611328125
0.0
-0.02197265625
0.0029296875
-0.0223388671875
-0.00146484375
0.0201416015625
-0.00732421875
0.0567626953125
-0.008056640625
0.0281982421875
-0.0054931640625
0.0003662109375
-0.0062255859375
-0.002197265625
-0.003662109375
-0.010986328125
-0.002197265625
-0.006591796875
-0.00146484375
0.0098876953125
-0.0003662109375
0.008056640625
0.0054931640625
0.0018310546875
0.005126953125
0.0029296875
-0.005126953125
0.005859375
-0.0853271484375
0.251983642578125
0.0054931640625
-0.01171875
0.0882568359375
-0.276885986328125
-0.000732421875
-0.0186767578125
-0.0040283203125
0.002197265625
-0.0025634765625
0.0003662109375
0.0
-0.01318359375
0.0029296875
-0.0201416015625
0.0029296875
-0.0146484375
0.0
0.0260009765625
-0.0029296875
0.0582275390625
0.000732421875
0.0333251953125
0.0025634765625
0.0040283203125
-0.0018310546875
-0.0010986328125
0.0003662109375
-0.00439453125
-0.0010986328125
-0.003662109375
-0.003662109375
0.0032958984375
-0.0032958984375
0.0025634765625
-0.002197265625
-0.0018310546875
-0.002197265625
0.00146484375
-0.0025634765625
0.0040283203125
-0.0018310546875
0.0010986328125
0.0010986328125
-0.0054931640625
-0.0010986328125
0.00439453125
-0.0025634765625
0.0146484375
0.0047607421875
0.002197265625
0.0018310546875
-0.002197265625
-0.000732421875
0.0018310546875
-0.079833984375
0.236602783203125
0.0054931640625
0.0146484375
0.0816650390625
-0.256011962890625
-0.0054931640625
-0.037353515625
-0.000732421875
-0.0018310546875
-0.0018310546875
-0.0018310546875
-0.00146484375
-0.0076904296875
0.0010986328125
-0.0150146484375
0.0032958984375
-0.0216064453125
0.0018310546875
0.0
-0.003662109375
0.046875
-0.00439453125
0.0428466796875
0.0
0.00732421875
0.0010986328125
-0.0029296875
0.0
-0.01025390625
-0.0029296875
0.005859375
-0.00439453125
0.012451171875
0.003662109375
-0.0003662109375
0.00439453125
0.002197265625
0.000732421875
-0.0025634765625
-0.06298828125
0.178375244140625
0.00732421875
0.0560302734375
0.0670166015625
-0.198516845703125
-0.0087890625
-0.0750732421875
-0.003662109375
-0.0029296875
0.00146484375
-0.008056640625
0.0003662109375
-0.0120849609375
0.0032958984375
-0.016845703125
0.0029296875
-0.0234375
0.0018310546875
0.0010986328125
-0.00146484375
0.0472412109375
-0.000732421875
0.038818359375
0.0010986328125
0.0084228515625
-0.0010986328125
0.0032958984375
0.0025634765625
-0.0069580078125
0.0040283203125
-0.0113525390625
0.000732421875
0.002197265625
-0.0025634765625
0.01025390625
-0.000732421875
0.0025634765625
0.0010986328125
-0.0084228515625
-0.0010986328125
-0.000732421875
-0.005126953125
0.012451171875
0.0029296875
0.0018310546875
0.008056640625
-0.0029296875
-0.0010986328125
0.00146484375
-0.03076171875
0.09521484375
-0.008056640625
0.141754150390625
0.0369873046875
-0.1102294921875
0.018310546875
-0.167755126953125
0.0032958984375
-0.01318359375
0.0054931640625
-0.006591796875
0.003662109375
-0.0069580078125
0.0032958984375
-0.015380859375
0.005126953125
-0.02197265625
0.0029296875
-0.010986328125
-0.005126953125
0.0325927734375
-0.0062255859375
0.0479736328125
-0.002197265625
0.0201416015625
-0.0054931640625
0.0025634765625
-0.0054931640625
-0.0084228515625
-0.0047607421875
-0.0029296875
-0.0032958984375
0.0084228515625
0.0018310546875
0.0003662109375
0.000732421875
0.0029296875
-0.005859375
0.0091552734375
-0.044677734375
0.114990234375
-0.0003662109375
0.116455078125
0.038818359375
-0.1318359375
-0.0010986328125
-0.1387939453125
-0.0029296875
-0.0062255859375
-0.000732421875
-0.006591796875
-0.0029296875
-0.0113525390625
-0.0029296875
-0.0150146484375
0.000732421875
-0.0201416015625
-0.0003662109375
-0.0098876953125
-0.00439453125
0.03955078125
-0.005126953125
0.0501708984375
-0.0010986328125
0.016845703125
-0.0025634765625
0.002197265625
0.000732421875
-0.006591796875
-0.00146484375
-0.005126953125
-0.0025634765625
0.0003662109375
-0.00146484375
0.006591796875
-0.0040283203125
0.0010986328125
-0.003662109375
-0.0010986328125
-0.0047607421875
0.0076904296875
-0.0029296875
0.0054931640625
0.000732421875
0.0018310546875
0.0010986328125
0.0003662109375
-0.012451171875
0.01025390625
-0.0626220703125
0.246124267578125
0.01025390625
-0.0208740234375
0.060791015625
-0.269927978515625
0.0
-0.0146484375
-0.0025634765625
-0.0054931640625
0.0
-0.0098876953125
-0.0003662109375
-0.0113525390625
-0.0010986328125
-0.017578125
0.002197265625
-0.018310546875
-0.002197265625
0.0208740234375
-0.00732421875
0.052734375
-0.0047607421875
0.0281982421875
0.0
0.002197265625
-0.0025634765625
-0.0010986328125
0.0
-0.005859375
0.000732421875
-0.0054931640625
0.0
0.0
-0.00146484375
0.005126953125
-0.0025634765625
0.0040283203125
0.0
0.0018310546875
-0.00146484375
-0.005126953125
-0.00439453125
-0.000732421875
-0.003662109375
0.009521484375
0.0018310546875
0.00146484375
0.003662109375
0.0
0.0018310546875
-0.0010986328125
-0.0172119140625
0.043212890625
-0.0289306640625
0.193023681640625
0.0252685546875
-0.0618896484375
0.03662109375
-0.214630126953125
0.0040283203125
-0.01171875
0.006591796875
-0.0120849609375
0.0010986328125
-0.00732421875
0.00146484375
-0.008056640625
0.0032958984375
-0.02490234375
0.0010986328125
-0.0205078125
-0.0029296875
0.030029296875
-0.00439453125
0.0545654296875
-0.0025634765625
0.0281982421875
0.00439453125
0.0025634765625
0.0047607421875
-0.0047607421875
0.0003662109375
-0.009521484375
0.0
-0.0054931640625
-0.00146484375
0.0128173828125
0.0003662109375
0.0098876953125
0.002197265625
-0.00146484375
0.0018310546875
0.0003662109375
-0.002197265625
0.0040283203125
-0.078369140625
0.236968994140625
0.006591796875
-0.008056640625
0.08349609375
-0.254913330078125
0.0025634765625
-0.019775390625
0.0010986328125
-0.008056640625
0.00146484375
-0.0069580078125
0.0025634765625
-0.015380859375
0.0025634765625
-0.0208740234375
0.0010986328125
-0.015380859375
0.0018310546875
0.0186767578125
-0.0003662109375
0.050537109375
-0.0018310546875
0.0340576171875
0.000732421875
0.00732421875
-0.00146484375
0.0
-0.0003662109375
-0.0032958984375
-0.0029296875
-0.002197265625
-0.0032958984375
0.00146484375
-0.0029296875
0.002197265625
-0.00439453125
0.0025634765625
-0.0018310546875
0.0010986328125
-0.0025634765625
0.003662109375
0.0
0.000732421875
-0.000732421875
0.0029296875
-0.0025634765625
0.0047607421875
-0.0179443359375
0.0234375
-0.0531005859375
0.233673095703125
0.0216064453125
-0.043212890625
0.0545654296875
-0.259307861328125
-0.0010986328125
-0.012451171875
-0.0003662109375
-0.0054931640625
-0.0018310546875
-0.00439453125
-0.0025634765625
-0.009521484375
-0.0010986328125
-0.01904296875
0.0018310546875
-0.0186767578125
-0.0029296875
0.0238037109375
-0.0076904296875
0.0545654296875
-0.005126953125
0.0252685546875
-0.000732421875
0.00146484375
-0.000732421875
-0.000732421875
-0.0010986328125
-0.00146484375
0.0003662109375
-0.003662109375
-0.0003662109375
-0.0047607421875
-0.0025634765625
0.0003662109375
-0.0054931640625
0.0098876953125
-0.00439453125
0.01171875
0.0018310546875
0.0018310546875
0.0040283203125
-0.0040283203125
0.0
-0.00439453125
-0.0673828125
0.188262939453125
0.0076904296875
0.06884765625
0.0655517578125
-0.206207275390625
-0.006591796875
-0.0926513671875
-0.00146484375
-0.0054931640625
-0.0010986328125
-0.0040283203125
0.002197265625
-0.0113525390625
-0.0010986328125
-0.01611328125
-0.0032958984375
-0.0208740234375
0.0
-0.0029296875
-0.0040283203125
0.0439453125
-0.0084228515625
0.0450439453125
0.0
0.0087890625
0.002197265625
-0.002197265625
0.000732421875
-0.0047607421875
-0.0003662109375
-0.002197265625
0.00146484375
-0.000732421875
-0.002197265625
0.0062255859375
-0.0018310546875
0.0025634765625
-0.00146484375
-0.0054931640625
-0.0029296875
-0.0029296875
-0.0003662109375
0.0091552734375
-0.00439453125
0.0098876953125
0.0018310546875
-0.002197265625
0.0025634765625
-0.0032958984375
-0.0018310546875
0.0003662109375
-0.0791015625
0.249420166015625
0.0047607421875
-0.0025634765625
0.08349609375
-0.273590087890625
-0.0025634765625
-0.025634765625
0.0003662109375
-0.008056640625
0.0018310546875
-0.009521484375
0.0003662109375
-0.008056640625
0.0018310546875
-0.0205078125
0.000732421875
-0.024169921875
-0.0003662109375
0.0091552734375
-0.005126953125
0.05126953125
-0.0010986328125
0.0377197265625
-0.0018310546875
0.01025390625
-0.002197265625
0.000732421875
0.0029296875
-0.0135498046875
-0.000732421875
-0.00146484375
-0.0010986328125
0.0113525390625
0.00146484375
0.0098876953125
0.003662109375
0.00146484375
0.0010986328125
-0.00439453125
-0.0369873046875
0.1175537109375
-0.0003662109375
0.1116943359375
0.040283203125
-0.13623046875
0.0029296875
-0.1336669921875
-0.0010986328125
-0.0062255859375
-0.0003662109375
-0.0047607421875
-0.000732421875
-0.0087890625
0.0003662109375
-0.0179443359375
0.000732421875
-0.024169921875
0.000732421875
-0.00732421875
-0.003662109375
0.041015625
-0.00146484375
0.050537109375
0.0003662109375
0.01904296875
-0.000732421875
0.00146484375
0.0018310546875
-0.00439453125
0.0
-0.0025634765625
0.0018310546875
-0.002197265625
-0.0003662109375
0.00146484375
-0.0018310546875
0.005859375
-0.0025634765625
0.005126953125
-0.0003662109375
0.0010986328125
0.0025634765625
-0.0003662109375
-0.0010986328125
-0.000732421875
-0.0029296875
-0.0025634765625
-0.003662109375
0.00439453125
-0.000732421875
0.008056640625
0.0032958984375
0.000732421875
0.0032958984375
-0.0010986328125
-0.0003662109375
-0.0010986328125
-0.087890625
0.266265869140625
0.0062255859375
0.000732421875
0.0897216796875
-0.291168212890625
-0.0025634765625
-0.0274658203125
-0.0018310546875
-0.00732421875
0.0010986328125
-0.00732421875
0.00146484375
-0.0113525390625
0.002197265625
-0.0194091796875
0.002197265625
-0.019775390625
-0.0018310546875
0.0098876953125
-0.0047607421875
0.052734375
-0.0062255859375
0.0391845703125
-0.0010986328125
0.005859375
-0.0010986328125
0.000732421875
0.000732421875
-0.0018310546875
0.0018310546875
-0.005126953125
0.00146484375
-0.0032958984375
0.0025634765625
0.003662109375
-0.0018310546875
0.00439453125
-0.002197265625
0.003662109375
-0.0025634765625
0.002197265625
-0.002197265625
0.002197265625
0.0
0.00146484375
0.0010986328125
-0.0029296875
0.0
0.000732421875
-0.0018310546875
0.0010986328125
0.0
-0.000732421875
-0.002197265625
0.0010986328125
-0.0010986328125
-0.006591796875
-0.0032958984375
0.0010986328125
-0.0025634765625
0.0084228515625
0.003662109375
-0.0025634765625
0.003662109375
-0.0018310546875
0.003662109375
-0.00439453125
-0.0780029296875
0.228546142578125
0.0040283203125
0.0322265625
0.079833984375
-0.253082275390625
-0.00439453125
-0.05419921875
-0.0029296875
-0.00439453125
0.0
-0.0069580078125
0.0010986328125
-0.0091552734375
-0.00146484375
-0.0150146484375
0.0032958984375
-0.0245361328125
0.000732421875
-0.0054931640625
-0.0062255859375
0.0472412109375
-0.0047607421875
0.046875
-0.000732421875
0.0087890625
0.0029296875
-0.002197265625
0.0003662109375
-0.0018310546875
-0.0010986328125
-0.0010986328125
0.0032958984375
-0.0062255859375
0.0025634765625
-0.0047607421875
-0.0032958984375
0.0106201171875
-0.0025634765625
0.016845703125
0.0032958984375
-0.0003662109375
0.0029296875
-0.0032958984375
0.00146484375
0.000732421875
-0.071044921875
0.224517822265625
0.006591796875
0.0194091796875
0.0728759765625
-0.245025634765625
-0.0047607421875
-0.0465087890625
-0.000732421875
-0.010986328125
-0.000732421875
-0.00732421875
-0.0003662109375
-0.01025390625
0.00146484375
-0.0201416015625
0.0018310546875
-0.02783203125
-0.002197265625
-0.0003662109375
-0.0029296875
0.050537109375
-0.0018310546875
0.046875
0.0029296875
0.01171875
0.0018310546875
0.0003662109375
-0.0003662109375
0.0003662109375
0.0
-0.0003662109375
0.000732421875
-0.0018310546875
0.00146484375
0.00146484375
-0.0018310546875
0.00439453125
0.0018310546875
0.00146484375
0.0018310546875
-0.005859375
-0.0032958984375
0.003662109375
-0.003662109375
0.01318359375
0.002197265625
0.0
0.0230712890625
-0.0120849609375
0.01904296875
-0.0069580078125
