0.739471435546875
-0.749725341796875
0.739471435546875
-0.749725341796875
0.0
0.0
0.0
0.0
0.0
0.0
0.0
0.0
0.0
0.0
0.0
0.0
0.0
0.0
0.0
0.0
0.0
0.0
0.0
0.0
-0.0003662109375
0.0
0.0
0.0
0.0
0.0
-0.0003662109375
0.0
0.0003662109375
0.0
0.0
0.0
0.0
0.0
0.0003662109375
0.0
0.0
0.0
0.0
0.0
0.0
0.0
0.0
0.0
0.0
0.0
0.0
0.0
0.0
0.0
0.0
0.0
0.0
0.0
0.0
0.0
0.0
0.0
0.0
0.0
0.0
0.0
0.0
0.0
0.0
0.0
0.0
0.0
0.0
0.0
0.0
0.0
0.0
0.0
0.0
0.0
0.0
0.0
0.0
0.0
0.0
0.0
0.0
0.0
0.0
0.0
0.0
0.0
0.0
0.0
0.0
0.0
0.0
0.0
0.0
0.0
0.0
0.0
0.0
0.0
0.0
0.0
0.0
0.0
0.0
0.0
0.0
0.0
0.0
0.0
0.0
0.0
-0.0003662109375
0.0
-0.0084228515625
0.0
-0.033355712890625
0.0
-0.049835205078125
0.0
-0.0516357421875
0.015380859375
-0.0523681640625
0.045074462890625
-0.0677490234375
0.054962158203125
-0.082763671875
0.0498046875
-0.07763671875
0.05126953125
-0.053466796875
0.0501708984375
-0.0347900390625
0.276885986328125
-0.0087890625
-0.0201416015625
0.0091552734375
-0.279815673828125
-0.0157470703125
0.01171875
-0.0234375
0.03369140625
-0.0267333984375
0.0421142578125
-0.0267333984375
0.0435791015625
-0.022735595703125
0.046142578125
-0.025299072265625
0.038818359375
-0.0216064453125
0.0135498046875
-0.0260009765625
0.0208740234375
-0.0208740234375
0.022705078125
-0.0113525390625
0.02197265625
-0.00146484375
0.0172119140625
-0.002197265625
0.012451171875
-0.008056640625
0.0186767578125
-0.0087890625
0.0205078125
-0.0194091796875
0.023834228515625
-0.0179443359375
0.024932861328125
-0.0150146484375
0.0318603515625
-0.009521484375
0.0146484375
-0.0098876953125
0.0135498046875
-0.006591796875
0.01611328125
-0.0281982421875
0.275421142578125
-0.0303955078125
0.040283203125
0.0087890625
-0.257110595703125
-0.0010986328125
-0.009521484375
-0.0120849609375
0.019775390625
-0.016845703125
0.0311279296875
-0.0150146484375
0.0355224609375
-0.010986328125
0.0340576171875
-0.0157470703125
0.03076171875
-0.01611328125
0.008056640625
-0.0194091796875
0.0040283203125
-0.0120849609375
0.008056640625
-0.012451171875
0.0146484375
-0.0113525390625
0.013916015625
-0.01171875
0.0146484375
-0.0120849609375
0.0146484375
-0.009521484375
0.01318359375
-0.0157470703125
0.016845703125
-0.012451171875
0.017578125
-0.0128173828125
0.027099609375
-0.0076904296875
0.01025390625
-0.008056640625
0.0062255859375
-0.01025390625
0.018310546875
-0.034423828125
0.173980712890625
-0.0128173828125
0.0146484375
0.0428466796875
-0.205841064453125
-0.0040283203125
-0.0465087890625
-0.054962158203125
0.012451171875
-0.107330322265625
0.0721435546875
-0.134033203125
0.120513916015625
-0.0977783203125
0.090118408203125
-0.0780029296875
0.0516357421875
-0.07470703125
0.0106201171875
-0.092681884765625
-0.006591796875
-0.075103759765625
-0.035888671875
-0.106201171875
0.005126953125
-0.150146484375
0.065185546875
-0.144287109375
0.088623046875
-0.0340576171875
-0.010986328125
-0.102569580078125
0.09375
-0.215728759765625
0.248321533203125
-0.1373291015625
0.177642822265625
-0.101806640625
0.172119140625
-0.0205078125
0.0596923828125
0.078369140625
-0.1007080078125
0.032958984375
-0.049072265625
-0.121612548828125
0.323394775390625
-0.089385986328125
0.235137939453125
-0.000732421875
0.000732421875
0.0
0.1336669921875
0.028594970703125
0.123443603515625
0.047637939453125
0.051666259765625
0.126708984375
-0.041412353515625
0.138427734375
-0.067413330078125
0.068115234375
-0.0498046875
-0.0391845703125
0.058624267578125
-0.1234130859375
0.100738525390625
-0.1116943359375
0.0087890625
-0.098907470703125
0.0
-0.016876220703125
0.0
-0.003662109375
0.0
0.024200439453125
0.0
0.052398681640625
0.0
0.10107421875
0.0
0.1219482421875
0.0003662109375
0.0703125
0.0
0.08203125
-0.0003662109375
0.050537109375
0.0003662109375
0.080230712890625
-0.049102783203125
0.064483642578125
-0.0205078125
0.0791015625
0.049468994140625
0.119384765625
-0.162628173828125
0.0911865234375
-0.262603759765625
0.068115234375
-0.1029052734375
0.0439453125
-0.070343017578125
0.0787353515625
-0.109527587890625
-0.03515625
0.032623291015625
-0.0849609375
0.105865478515625
-0.0706787109375
0.0867919921875
-0.040283203125
0.032958984375
0.006591796875
-0.0245361328125
0.0018310546875
-0.005126953125
0.040283203125
-0.041015625
-0.0205078125
0.02490234375
-0.0377197265625
0.0428466796875
-0.02490234375
0.0318603515625
-0.028564453125
0.0120849609375
-0.188995361328125
0.16259765625
-0.335845947265625
0.223785400390625
-0.237335205078125
0.042144775390625
-0.087188720703125
0.0
0.0
0.0
0.0
0.0
0.0
0.0
0.0
0.0
0.0
0.0003662109375
0.0
0.0
0.0
-0.0003662109375
0.005126953125
0.0
0.028228759765625
0.0
0.095245361328125
0.0
0.0523681640625
0.0
0.0615234375
-0.082794189453125
0.06005859375
-0.087554931640625
0.186798095703125
-0.227783203125
0.416046142578125
-0.436187744140625
0.228515625
-0.236236572265625
-0.022705078125
0.016845703125
-0.194091796875
0.1922607421875
-0.198486328125
0.200347900390625
-0.157501220703125
0.164093017578125
-0.100006103515625
0.1109619140625
-0.040283203125
0.0560302734375
-0.0157470703125
0.035888671875
0.04248046875
-0.027099609375
0.0
0.003662109375
0.01171875
0.126708984375
-0.01318359375
0.005859375
0.082427978515625
-0.2559814453125
0.106964111328125
-0.1314697265625
0.0443115234375
-0.050201416015625
-0.034820556640625
0.0421142578125
-0.01611328125
0.037017822265625
0.299224853515625
-0.285308837890625
0.265167236328125
-0.249786376953125
0.026763916015625
0.01318359375
-0.088653564453125
0.156005859375
-0.017242431640625
0.0582275390625
0.05859375
-0.0531005859375
-0.000732421875
0.0032958984375
0.031524658203125
-0.0289306640625
-0.010986328125
0.009521484375
-0.050933837890625
0.03515625
-0.101806640625
0.0838623046875
-0.1197509765625
0.104736328125
-0.160400390625
0.174346923828125
-0.152008056640625
0.169952392578125
-0.069610595703125
0.0677490234375
-0.071044921875
0.07177734375
-0.0567626953125
0.111724853515625
-0.1483154296875
0.098175048828125
-0.1160888671875
0.0029296875
-0.074737548828125
0.0
-0.071075439453125
0.0
0.0
0.0
0.0
0.0
0.0
0.0
0.0
0.0
0.052032470703125
0.0
0.035919189453125
0.0
0.141357421875
-0.129669189453125
0.387115478515625
-0.35638427734375
0.46588134765625
-0.47723388671875
0.334747314453125
-0.351959228515625
0.2069091796875
-0.2142333984375
0.194488525390625
-0.207305908203125
0.188995361328125
-0.201446533203125
0.288604736328125
-0.306549072265625
0.235504150390625
-0.230010986328125
0.195556640625
-0.1885986328125
0.189361572265625
-0.234405517578125
0.043975830078125
-0.088653564453125
0.0003662109375
-0.012451171875
0.0
0.0
0.0
0.0
0.0
0.0
0.0
0.0
-0.0003662109375
0.0
-0.0003662109375
0.0
0.0003662109375
0.0
0.0003662109375
0.0
0.0
0.0
0.0
0.0
0.0
0.0
0.0
0.0
0.0
0.0
0.0
0.0
0.0
0.0
0.0
0.0
0.0
0.0
0.0
0.0
0.0
0.0
0.0
0.0
-0.0003662109375
0.0
0.0
0.0
0.0003662109375
0.0
0.0
0.073272705078125
0.0
0.0
0.0
-0.073272705078125
-0.0003662109375
0.0
0.0
0.0
0.0
0.0
0.0
0.0
0.0
0.00732421875
0.0
0.025634765625
0.0003662109375
0.034454345703125
-0.0003662109375
0.035919189453125
-0.037384033203125
0.06005859375
-0.067779541015625
0.0692138671875
-0.0692138671875
0.062255859375
-0.0640869140625
0.0509033203125
-0.0736083984375
0.062255859375
-0.0816650390625
0.08642578125
-0.0655517578125
0.07470703125
-0.0677490234375
0.080596923828125
-0.0552978515625
0.071441650390625
-0.045806884765625
0.04833984375
-0.049468994140625
0.0472412109375
-0.050537109375
0.04833984375
-0.08935546875
0.305450439453125
-0.0823974609375
0.05859375
-0.0457763671875
-0.212432861328125
-0.059326171875
0.0428466796875
-0.069580078125
0.0714111328125
-0.0633544921875
0.070709228515625
-0.060455322265625
0.073272705078125
-0.048004150390625
0.064453125
-0.0355224609375
0.0421142578125
-0.0457763671875
0.0311279296875
-0.0494384765625
0.031494140625
-0.0501708984375
0.0435791015625
-0.0384521484375
0.0355224609375
-0.0325927734375
0.0238037109375
-0.02197265625
0.0106201171875
-0.0142822265625
0.008056640625
-0.01611328125
0.013916015625
-0.0040283203125
0.0025634765625
0.0087890625
-0.002197265625
0.0399169921875
-0.0322265625
0.0703125
-0.06884765625
0.0787353515625
-0.0728759765625
0.065185546875
-0.0545654296875
0.0355224609375
0.245758056640625
0.046173095703125
-0.0289306640625
0.072906494140625
-0.33807373046875
0.0596923828125
-0.056427001953125
0.052001953125
-0.0296630859375
0.05859375
-0.0406494140625
0.040283203125
-0.0201416015625
0.0274658203125
-0.0069580078125
0.0201416015625
-0.0146484375
0.0054931640625
-0.012451171875
0.006591796875
-0.017578125
0.0025634765625
-0.0091552734375
0.0120849609375
-0.0150146484375
0.0029296875
-0.0106201171875
0.0069580078125
-0.01611328125
0.019775390625
-0.029296875
0.0054931640625
-0.01611328125
-0.0032958984375
-0.0087890625
-0.0179443359375
0.0076904296875
-0.013916015625
0.00439453125
-0.03369140625
0.016845703125
-0.0245361328125
0.0230712890625
0.015380859375
-0.0084228515625
0.022705078125
0.205474853515625
0.031494140625
-0.022705078125
0.0516357421875
-0.251251220703125
0.0450439453125
-0.003662109375
0.0076904296875
0.0201416015625
0.0289306640625
0.02490234375
0.02783203125
0.021240234375
-0.0047607421875
0.015380859375
-0.0538330078125
0.0523681640625
-0.103271484375
0.046875
-0.1204833984375
0.05126953125
-0.088623046875
0.053466796875
-0.028564453125
0.0032958984375
-0.019775390625
0.016143798828125
0.0230712890625
0.016143798828125
-0.0128173828125
0.0421142578125
-0.186798095703125
0.1600341796875
-0.284942626953125
0.22705078125
-0.0794677734375
0.0234375
0.139892578125
-0.1834716796875
0.0882568359375
-0.126708984375
0.0252685546875
-0.053466796875
-0.002197265625
-0.0054931640625
-0.060791015625
0.277252197265625
-0.06884765625
0.0933837890625
-0.0087890625
-0.186431884765625
0.0234375
-0.025634765625
0.015380859375
-0.0084228515625
-0.0208740234375
0.0355224609375
-0.1409912109375
0.178009033203125
-0.133331298828125
0.184967041015625
-0.064483642578125
0.0970458984375
-0.0157470703125
-0.01318359375
0.01171875
-0.052001953125
0.0260009765625
-0.0340576171875
0.081695556640625
-0.087188720703125
0.056060791015625
-0.054595947265625
0.07177734375
-0.0677490234375
0.0538330078125
-0.04248046875
0.0311279296875
-0.021240234375
0.0325927734375
-0.030029296875
0.02783203125
-0.029296875
0.0406494140625
-0.0538330078125
0.0303955078125
-0.04541015625
0.04541015625
-0.0498046875
0.009521484375
0.0509033203125
-0.005859375
0.054931640625
0.017578125
-0.073974609375
0.029296875
-0.0831298828125
0.0179443359375
-0.0281982421875
0.0146484375
-0.0172119140625
0.0157470703125
-0.0040283203125
-0.0311279296875
0.0556640625
-0.0245361328125
0.040283203125
-0.0238037109375
0.0201416015625
-0.0054931640625
-0.01171875
-0.0018310546875
-0.010986328125
-0.0047607421875
0.01025390625
0.0128173828125
0.003662109375
-0.008056640625
0.01904296875
0.0018310546875
0.0
-0.01318359375
-0.0010986328125
-0.0084228515625
-0.01904296875
-0.0120849609375
0.0040283203125
-0.010986328125
0.01171875
0.017578125
-0.025634765625
0.0032958984375
-0.0106201171875
0.0018310546875
-0.0076904296875
-0.0531005859375
0.2135009765625
-0.005859375
-0.0018310546875
0.0556640625
-0.238037109375
0.0245361328125
-0.0384521484375
-0.0047607421875
0.00732421875
-0.01171875
0.0194091796875
0.019775390625
0.0032958984375
0.01318359375
0.01318359375
0.005859375
0.0084228515625
-0.017578125
0.0076904296875
-0.0274658203125
0.00439453125
-0.044677734375
0.0450439453125
-0.0157470703125
0.0234375
0.009521484375
-0.0010986328125
0.0113525390625
-0.010986328125
0.02197265625
-0.04248046875
-0.022705078125
0.01025390625
-0.008056640625
0.0135498046875
-0.0146484375
0.0223388671875
-0.00732421875
0.0113525390625
0.0087890625
-0.0025634765625
0.0029296875
0.0076904296875
0.01904296875
-0.010986328125
-0.04248046875
0.262237548828125
0.0087890625
-0.0135498046875
0.0582275390625
-0.280548095703125
0.0362548828125
-0.0296630859375
0.0135498046875
-0.008056640625
-0.0010986328125
0.00439453125
-0.00146484375
0.01171875
-0.0106201171875
0.0347900390625
0.010986328125
0.00732421875
-0.018310546875
-0.005859375
-0.0179443359375
-0.009521484375
-0.032958984375
0.0230712890625
-0.0208740234375
0.0194091796875
0.0098876953125
-0.0018310546875
0.008056640625
-0.01318359375
0.0146484375
-0.021240234375
-0.003662109375
0.002197265625
0.0010986328125
-0.0076904296875
-0.0157470703125
0.0216064453125
0.0010986328125
0.009521484375
-0.0010986328125
0.005859375
-0.000732421875
0.0087890625
0.0098876953125
0.0098876953125
-0.0146484375
0.204010009765625
0.0146484375
-0.0260009765625
0.0018310546875
-0.192291259765625
-0.0010986328125
0.0054931640625
0.0003662109375
0.0164794921875
0.005859375
0.0142822265625
0.01611328125
0.0120849609375
0.0205078125
0.0098876953125
0.0296630859375
-0.0157470703125
0.002197265625
-0.0172119140625
0.0040283203125
-0.02197265625
-0.0069580078125
0.0003662109375
0.0029296875
-0.0040283203125
0.0032958984375
-0.000732421875
-0.0076904296875
0.0054931640625
-0.00146484375
0.0018310546875
-0.0040283203125
0.0047607421875
0.010986328125
-0.005859375
0.0032958984375
0.01025390625
0.013916015625
-0.0062255859375
0.0054931640625
-0.0018310546875
0.0018310546875
0.003662109375
-0.006591796875
0.0933837890625
-0.019775390625
0.0465087890625
0.024169921875
-0.1131591796875
0.0322265625
-0.0703125
0.0234375
-0.0267333984375
-0.002197265625
0.005126953125
-0.01025390625
0.0128173828125
-0.01025390625
0.017578125
-0.0062255859375
0.01171875
0.0032958984375
-0.010986328125
-0.0062255859375
-0.0142822265625
0.0040283203125
-0.012451171875
-0.008056640625
0.01318359375
0.0
0.0054931640625
-0.00439453125
0.0076904296875
-0.0018310546875
0.0
0.00439453125
-0.003662109375
-0.0010986328125
-0.0010986328125
0.008056640625
-0.0032958984375
-0.0003662109375
0.008056640625
0.0113525390625
-0.0087890625
-0.0003662109375
0.00439453125
0.0025634765625
-0.002197265625
-0.0260009765625
0.238067626953125
-0.0172119140625
0.0238037109375
0.0296630859375
-0.246856689453125
0.008056640625
-0.021240234375
0.005859375
-0.00439453125
-0.0069580078125
0.0113525390625
-0.00146484375
0.0062255859375
-0.00732421875
0.01318359375
-0.0032958984375
0.01025390625
0.005126953125
-0.009521484375
0.0010986328125
-0.017578125
0.0069580078125
-0.0157470703125
-0.008056640625
0.0047607421875
-0.0010986328125
-0.00146484375
-0.0091552734375
0.0062255859375
-0.003662109375
-0.0025634765625
-0.002197265625
-0.000732421875
-0.003662109375
-0.0003662109375
0.0047607421875
0.0040283203125
-0.00146484375
0.0087890625
0.009521484375
-0.0142822265625
-0.003662109375
0.0018310546875
0.0018310546875
-0.0047607421875
-0.032958984375
0.261138916015625
-0.016845703125
0.0164794921875
0.0274658203125
-0.267364501953125
0.005126953125
-0.0172119140625
0.0062255859375
-0.0029296875
-0.0054931640625
0.009521484375
0.002197265625
0.005859375
-0.008056640625
0.021240234375
-0.005126953125
0.01318359375
0.0003662109375
-0.00732421875
0.00146484375
-0.0164794921875
0.008056640625
-0.0113525390625
-0.003662109375
0.002197265625
0.0025634765625
-0.0054931640625
-0.009521484375
0.0047607421875
-0.003662109375
0.0
-0.0054931640625
0.008056640625
-0.0054931640625
0.0029296875
0.0
0.003662109375
-0.002197265625
0.00732421875
0.0106201171875
-0.0135498046875
0.0
-0.002197265625
0.005126953125
-0.005126953125
-0.0303955078125
0.197784423828125
-0.024169921875
0.029296875
0.0157470703125
-0.196319580078125
0.009521484375
-0.0322265625
0.005859375
-0.0047607421875
-0.0032958984375
0.006591796875
0.0047607421875
0.0010986328125
-0.0062255859375
0.0179443359375
-0.0018310546875
0.010986328125
-0.00146484375
-0.0040283203125
0.0032958984375
-0.022705078125
0.006591796875
-0.0164794921875
0.0010986328125
-0.0025634765625
0.0106201171875
-0.01025390625
-0.00146484375
-0.0018310546875
0.0032958984375
-0.0076904296875
-0.008056640625
0.0084228515625
-0.006591796875
0.0032958984375
-0.0047607421875
0.0047607421875
-0.0018310546875
0.009521484375
0.01025390625
-0.0076904296875
0.0010986328125
-0.0047607421875
0.0069580078125
-0.005859375
-0.01318359375
0.0538330078125
-0.0205078125
0.1292724609375
-0.0003662109375
-0.0450439453125
0.016845703125
-0.135498046875
0.0062255859375
-0.00439453125
-0.0003662109375
0.0054931640625
0.009521484375
-0.0003662109375
-0.0047607421875
0.0201416015625
-0.0003662109375
0.0164794921875
-0.0087890625
0.0091552734375
-0.002197265625
-0.0205078125
0.00146484375
-0.0157470703125
-0.0010986328125
0.0003662109375
0.00732421875
-0.00439453125
-0.002197265625
0.0025634765625
0.006591796875
-0.0087890625
-0.005126953125
0.005859375
-0.00146484375
0.0018310546875
-0.0069580078125
0.0062255859375
-0.00439453125
0.0098876953125
0.0054931640625
0.0010986328125
0.000732421875
-0.0040283203125
0.0087890625
-0.009521484375
-0.000732421875
0.002197265625
-0.0296630859375
0.220123291015625
-0.01611328125
0.0164794921875
0.029296875
-0.228179931640625
0.0062255859375
-0.010986328125
-0.0018310546875
0.005126953125
0.0062255859375
0.0
-0.000732421875
0.01171875
0.0076904296875
0.00732421875
-0.005859375
0.0146484375
0.0010986328125
-0.0150146484375
-0.0025634765625
-0.015380859375
-0.0018310546875
-0.0040283203125
0.0040283203125
-0.0025634765625
-0.0010986328125
0.00146484375
0.0091552734375
-0.01025390625
-0.0040283203125
0.0032958984375
0.002197265625
-0.0003662109375
-0.0076904296875
0.0091552734375
-0.0047607421875
0.00146484375
-0.000732421875
0.01025390625
0.000732421875
0.005859375
0.0106201171875
-0.0135498046875
-0.0010986328125
0.002197265625
0.0032958984375
0.0164794921875
-0.02490234375
0.219024658203125
-0.00146484375
-0.025634765625
0.01318359375
-0.217559814453125
-0.0010986328125
-0.0010986328125
0.0032958984375
0.0010986328125
-0.0029296875
0.008056640625
0.0054931640625
0.003662109375
-0.006591796875
0.018310546875
0.0032958984375
-0.000732421875
-0.0010986328125
-0.0098876953125
0.0018310546875
-0.0120849609375
0.0003662109375
0.0003662109375
-0.003662109375
0.005859375
0.005859375
-0.0032958984375
-0.0018310546875
0.000732421875
0.0062255859375
-0.006591796875
-0.0069580078125
0.01025390625
-0.003662109375
0.00439453125
-0.0091552734375
0.005126953125
-0.00732421875
0.01025390625
0.003662109375
0.003662109375
0.00146484375
-0.0047607421875
0.0091552734375
-0.0106201171875
-0.0069580078125
0.0146484375
-0.025634765625
0.243560791015625
-0.0098876953125
0.000732421875
0.022705078125
-0.250885009765625
0.0029296875
-0.008056640625
-0.0025634765625
0.0040283203125
0.0054931640625
0.0003662109375
-0.005126953125
0.01611328125
0.0047607421875
0.0084228515625
-0.005126953125
0.012451171875
0.0025634765625
-0.0142822265625
0.00146484375
-0.015380859375
-0.0010986328125
-0.003662109375
0.0032958984375
-0.0164794921875
-0.0029296875
-0.038818359375
0.006591796875
-0.047607421875
-0.0047607421875
-0.0194091796875
0.0018310546875
-0.0172119140625
-0.005859375
0.0018310546875
-0.00439453125
0.0
-0.0018310546875
0.0084228515625
-0.0018310546875
0.01171875
0.0087890625
-0.009521484375
-0.0003662109375
-0.002197265625
0.0076904296875
-0.005859375
-0.028564453125
0.201416015625
-0.0150146484375
0.0238037109375
0.019775390625
-0.1944580078125
0.0120849609375
-0.0252685546875
0.005126953125
-0.0010986328125
-0.0029296875
0.00732421875
0.00732421875
0.0029296875
-0.0040283203125
0.0208740234375
0.0025634765625
0.012451171875
-0.003662109375
0.000732421875
0.0003662109375
-0.0216064453125
0.002197265625
-0.010986328125
-0.002197265625
0.006591796875
0.0069580078125
-0.00146484375
-0.0018310546875
0.002197265625
0.00732421875
-0.005126953125
-0.0040283203125
0.0091552734375
-0.0018310546875
0.005126953125
-0.005859375
0.0087890625
-0.0040283203125
0.0076904296875
0.00439453125
0.0076904296875
0.002197265625
0.0025634765625
0.012451171875
-0.01318359375
-0.0040283203125
0.0091552734375
-0.0054931640625
0.06298828125
-0.027099609375
0.0882568359375
0.0025634765625
-0.060791015625
0.02197265625
-0.0831298828125
0.0
0.0076904296875
0.008056640625
0.0054931640625
-0.0010986328125
0.0157470703125
0.0069580078125
0.01318359375
-0.0054931640625
0.0303955078125
-0.002197265625
0.010986328125
-0.0029296875
-0.005859375
-0.000732421875
-0.0032958984375
0.0032958984375
0.0025634765625
-0.0029296875
0.00439453125
0.0087890625
-0.006591796875
-0.0032958984375
0.0062255859375
0.002197265625
-0.000732421875
-0.0076904296875
0.0087890625
-0.0040283203125
0.0040283203125
-0.0018310546875
0.0003662109375
-0.00439453125
0.0091552734375
0.0091552734375
-0.0010986328125
0.0010986328125
-0.0032958984375
0.0069580078125
-0.0087890625
-0.0054931640625
0.00439453125
-0.03515625
0.242462158203125
-0.01025390625
0.01025390625
0.03076171875
-0.249786376953125
0.0098876953125
-0.01611328125
-0.0025634765625
0.005126953125
0.008056640625
-0.0025634765625
-0.0054931640625
0.0146484375
-0.0010986328125
0.01171875
-0.005859375
0.0150146484375
0.0
-0.01025390625
0.003662109375
-0.019775390625
-0.00146484375
-0.0047607421875
0.00732421875
-0.00732421875
-0.00146484375
0.0003662109375
0.005126953125
-0.0076904296875
-0.00732421875
0.0062255859375
-0.0018310546875
0.0003662109375
-0.0032958984375
0.005126953125
-0.0029296875
0.0029296875
0.002197265625
-0.005126953125
-0.0032958984375
0.009521484375
0.010986328125
-0.005859375
-0.0018310546875
-0.0025634765625
0.0010986328125
-0.003662109375
-0.009521484375
0.0205078125
-0.0234375
0.223419189453125
0.0003662109375
-0.017578125
0.0179443359375
-0.229278564453125
0.010986328125
-0.01318359375
-0.0032958984375
0.0069580078125
0.0029296875
0.0010986328125
-0.01025390625
0.017578125
-0.0054931640625
0.016845703125
-0.0029296875
0.0091552734375
0.0025634765625
-0.01611328125
0.0106201171875
-0.02490234375
0.0
-0.0032958984375
0.0076904296875
-0.008056640625
-0.005859375
0.003662109375
-0.000732421875
-0.0025634765625
-0.0062255859375
0.0054931640625
-0.002197265625
0.0029296875
0.0010986328125
0.000732421875
-0.0025634765625
0.0018310546875
0.0054931640625
-0.0098876953125
-0.0040283203125
0.008056640625
0.00732421875
-0.0018310546875
-0.003662109375
-0.00146484375
-0.0018310546875
-0.0010986328125
-0.00439453125
0.0091552734375
-0.02783203125
0.241363525390625
0.00146484375
-0.0098876953125
0.0238037109375
-0.249420166015625
0.01318359375
-0.0201416015625
-0.0047607421875
0.005126953125
-0.0018310546875
0.0040283203125
-0.0084228515625
0.013916015625
-0.00439453125
0.0120849609375
0.0029296875
0.003662109375
0.002197265625
-0.018310546875
0.01171875
-0.03515625
-0.0003662109375
-0.0091552734375
0.003662109375
-0.00732421875
-0.0069580078125
0.005126953125
-0.0032958984375
-0.00146484375
-0.0032958984375
0.00146484375
-0.0018310546875
0.0025634765625
0.005859375
-0.0025634765625
-0.0010986328125
0.0029296875
0.006591796875
-0.0087890625
-0.005859375
0.0106201171875
0.0003662109375
0.0084228515625
-0.0025634765625
0.0018310546875
-0.0010986328125
-0.0029296875
0.0018310546875
0.0025634765625
-0.0172119140625
0.160400390625
-0.0054931640625
0.0150146484375
0.0142822265625
-0.1607666015625
0.01904296875
-0.0303955078125
-0.005859375
0.0179443359375
-0.00439453125
0.017578125
-0.00439453125
0.019775390625
-0.0025634765625
0.021240234375
0.005126953125
0.0150146484375
-0.000732421875
0.0
0.01025390625
-0.0296630859375
-0.0029296875
-0.009521484375
0.000732421875
-0.000732421875
-0.005859375
0.0084228515625
-0.0029296875
-0.0003662109375
0.000732421875
-0.0010986328125
-0.002197265625
0.0032958984375
0.0091552734375
-0.00732421875
-0.0010986328125
0.0018310546875
0.0029296875
-0.005126953125
-0.0091552734375
0.0106201171875
-0.0018310546875
0.0087890625
-0.0003662109375
0.0
-0.0003662109375
-0.0054931640625
0.0069580078125
-0.00439453125
-0.0098876953125
0.0794677734375
-0.0098876953125
0.0435791015625
0.0032958984375
-0.079833984375
0.018310546875
-0.060791015625
-0.0062255859375
0.0091552734375
-0.003662109375
0.008056640625
0.0010986328125
0.0076904296875
-0.0025634765625
0.0157470703125
0.0076904296875
0.008056640625
-0.0018310546875
0.0018310546875
0.008056640625
-0.0274658203125
-0.00439453125
-0.0091552734375
-0.002197265625
-0.0010986328125
-0.0025634765625
0.0032958984375
-0.00146484375
0.000732421875
0.0054931640625
-0.0047607421875
-0.00146484375
0.0029296875
0.0087890625
-0.008056640625
-0.005126953125
0.005859375
-0.00146484375
-0.0003662109375
-0.0091552734375
0.0069580078125
-0.0032958984375
0.009521484375
0.005126953125
0.000732421875
0.0003662109375
-0.005126953125
0.0084228515625
-0.0091552734375
-0.0047607421875
0.0172119140625
-0.013916015625
0.213897705078125
-0.005859375
-0.0084228515625
0.01611328125
-0.224151611328125
-0.00146484375
0.0
-0.0032958984375
0.0087890625
0.0032958984375
0.0047607421875
-0.00439453125
0.01318359375
0.0054931640625
0.0054931640625
-0.0054931640625
0.01171875
0.00439453125
-0.0146484375
0.0003662109375
-0.0113525390625
-0.0010986328125
-0.002197265625
0.000732421875
0.000732421875
-0.0018310546875
0.0010986328125
0.0084228515625
-0.0113525390625
-0.0029296875
0.0018310546875
0.0047607421875
-0.003662109375
-0.005859375
0.0091552734375
-0.0032958984375
0.002197265625
-0.00439453125
0.0025634765625
-0.005859375
0.005126953125
0.0047607421875
0.0032958984375
0.000732421875
-0.000732421875
0.009521484375
-0.0150146484375
-0.003662109375
0.0054931640625
-0.0076904296875
0.052001953125
-0.025634765625
0.153076171875
0.0029296875
-0.0589599609375
0.02197265625
-0.1622314453125
0.0
-0.0029296875
0.006591796875
-0.0029296875
-0.003662109375
0.009521484375
0.003662109375
0.005126953125
-0.008056640625
0.0201416015625
-0.00439453125
0.0047607421875
0.002197265625
-0.017578125
0.003662109375
-0.0205078125
0.005859375
-0.0128173828125
-0.0018310546875
-0.00146484375
0.0087890625
-0.013916015625
-0.0054931640625
-0.003662109375
-0.0010986328125
-0.0069580078125
-0.00439453125
0.0018310546875
-0.0018310546875
0.0
0.0018310546875
-0.0032958984375
-0.0025634765625
-0.0040283203125
0.0062255859375
-0.0047607421875
-0.002197265625
0.0084228515625
0.00732421875
-0.01171875
-0.0062255859375
0.0003662109375
0.0
-0.003662109375
-0.01904296875
0.233673095703125
-0.016845703125
0.0194091796875
0.02197265625
-0.244659423828125
0.0087890625
-0.0194091796875
0.0087890625
-0.0040283203125
-0.0047607421875
0.0128173828125
0.000732421875
0.0076904296875
-0.0025634765625
0.016845703125
-0.0025634765625
0.015380859375
0.0047607421875
-0.0076904296875
0.0018310546875
-0.019775390625
0.0076904296875
-0.0150146484375
-0.002197265625
0.008056640625
0.0010986328125
0.01318359375
-0.00732421875
0.0245361328125
-0.0029296875
0.0087890625
-0.0087890625
0.0047607421875
-0.01171875
0.00146484375
-0.005126953125
-0.0010986328125
-0.009521484375
0.0062255859375
0.0018310546875
-0.0062255859375
-0.010986328125
0.0146484375
-0.0040283203125
0.0054931640625
-0.0084228515625
0.0025634765625
-0.0029296875
0.0025634765625
0.0025634765625
0.0047607421875
-0.0230712890625
0.240631103515625
0.0106201171875
-0.013916015625
0.02490234375
-0.247955322265625
0.0098876953125
-0.015380859375
-0.0062255859375
0.0091552734375
-0.0010986328125
0.0062255859375
-0.0029296875
0.0106201171875
-0.003662109375
0.0146484375
0.0076904296875
0.0029296875
0.003662109375
-0.01318359375
0.01611328125
-0.0311279296875
0.0
-0.0047607421875
0.0010986328125
-0.0025634765625
-0.0054931640625
0.00732421875
-0.00146484375
0.00146484375
0.002197265625
-0.00146484375
-0.0010986328125
0.003662109375
0.0113525390625
-0.0062255859375
-0.00146484375
0.0040283203125
0.003662109375
-0.005859375
-0.00732421875
0.0150146484375
-0.0003662109375
0.008056640625
0.0010986328125
-0.002197265625
-0.0003662109375
-0.0003662109375
0.0091552734375
-0.0087890625
-0.0263671875
0.231475830078125
-0.002197265625
0.0062255859375
0.01904296875
-0.233673095703125
0.005859375
-0.0208740234375
-0.00732421875
0.009521484375
-0.0040283203125
0.009521484375
0.0
0.008056640625
-0.005126953125
0.0135498046875
0.005859375
0.003662109375
0.000732421875
-0.0040283203125
0.01171875
-0.0267333984375
-0.0029296875
-0.005126953125
-0.002197265625
-0.0018310546875
-0.0025634765625
-0.0025634765625
-0.002197265625
-0.006591796875
0.006591796875
-0.0098876953125
-0.0003662109375
-0.00146484375
0.0084228515625
-0.0106201171875
-0.00439453125
0.0040283203125
0.000732421875
-0.0003662109375
-0.0076904296875
0.0076904296875
-0.0040283203125
0.0091552734375
0.00439453125
0.0025634765625
0.002197265625
-0.003662109375
0.009521484375
-0.0113525390625
-0.000732421875
0.000732421875
-0.0234375
0.256744384765625
-0.018310546875
0.016845703125
0.0223388671875
-0.268463134765625
0.0003662109375
-0.01025390625
-0.010986328125
0.0128173828125
-0.005126953125
0.0098876953125
-0.0076904296875
0.01611328125
0.0054931640625
0.005859375
-0.0062255859375
0.016845703125
0.003662109375
-0.0025634765625
0.000732421875
-0.0054931640625
-0.000732421875
-0.005859375
-0.0003662109375
-0.0018310546875
-0.0032958984375
0.005126953125
0.00732421875
-0.0062255859375
-0.002197265625
0.000732421875
0.008056640625
-0.006591796875
-0.00439453125
0.010986328125
0.00146484375
0.000732421875
-0.005126953125
0.01025390625
-0.003662109375
0.00732421875
0.006591796875
0.0
-0.0018310546875
0.0120849609375
0.015380859375
-0.0150146484375
-0.0032958984375
0.0003662109375
0.00146484375
-0.0018310546875
-0.03076171875
0.214630126953125
-0.019775390625
0.02783203125
0.027099609375
-0.220855712890625
0.0135498046875
-0.0355224609375
0.0087890625
-0.0106201171875
0.002197265625
0.0
0.01318359375
-0.009521484375
-0.00439453125
0.01171875
-0.0054931640625
0.0172119140625
-0.0029296875
0.0062255859375
0.0
-0.0164794921875
0.00439453125
-0.01611328125
-0.00146484375
0.00732421875
0.0062255859375
0.0029296875
-0.01318359375
0.0216064453125
-0.003662109375
0.0142822265625
-0.0087890625
0.021240234375
-0.003662109375
0.01318359375
0.0040283203125
0.0040283203125
-0.000732421875
0.00439453125
0.006591796875
-0.0069580078125
-0.0069580078125
0.01171875
0.005859375
0.0
-0.00439453125
0.0029296875
-0.002197265625
-0.002197265625
-0.00146484375
0.0025634765625
-0.034423828125
0.202545166015625
-0.00439453125
0.006591796875
0.02783203125
-0.206207275390625
0.0172119140625
-0.0311279296875
-0.0047607421875
0.0047607421875
-0.002197265625
0.003662109375
-0.0106201171875
0.0172119140625
-0.0054931640625
0.0164794921875
0.000732421875
0.0142822265625
-0.0032958984375
-0.006591796875
0.010986328125
-0.0377197265625
-0.000732421875
-0.0098876953125
0.0047607421875
-0.005126953125
-0.0091552734375
0.008056640625
-0.0040283203125
0.0003662109375
-0.0047607421875
0.005859375
-0.0025634765625
0.003662109375
0.008056640625
0.00732421875
-0.00146484375
0.0201416015625
0.0091552734375
-0.0029296875
-0.0084228515625
0.0069580078125
-0.005859375
0.00732421875
-0.0120849609375
0.016845703125
-0.0069580078125
0.0018310546875
-0.0054931640625
0.0047607421875
-0.012451171875
0.0157470703125
-0.0369873046875
0.223785400390625
-0.02783203125
0.0164794921875
0.015380859375
-0.220855712890625
-0.017578125
0.0098876953125
-0.008056640625
0.0087890625
-0.0201416015625
0.02490234375
-0.0186767578125
0.0296630859375
-0.01611328125
0.0281982421875
-0.015380859375
0.021240234375
0.0179443359375
-0.0325927734375
-0.005126953125
-0.0186767578125
0.000732421875
-0.0098876953125
-0.018310546875
0.010986328125
-0.0128173828125
0.0010986328125
-0.0076904296875
0.0054931640625
-0.0076904296875
0.009521484375
0.0106201171875
-0.0084228515625
-0.0029296875
0.0040283203125
0.0120849609375
-0.01025390625
-0.0025634765625
0.005126953125
0.0091552734375
-0.01171875
0.0106201171875
-0.0040283203125
0.022705078125
-0.01318359375
0.0380859375
-0.032958984375
0.02783203125
-0.0150146484375
0.037353515625
-0.0201416015625
-0.0091552734375
0.226348876953125
0.006591796875
-0.0010986328125
0.0260009765625
-0.231842041015625
0.0205078125
-0.0205078125
0.022705078125
-0.02197265625
0.0216064453125
-0.021240234375
0.03369140625
-0.029296875
0.0201416015625
-0.0091552734375
0.025634765625
-0.00732421875
0.0069580078125
-0.008056640625
0.0062255859375
-0.0267333984375
-0.0010986328125
-0.0091552734375
-0.0040283203125
0.0040283203125
-0.000732421875
0.002197265625
-0.0076904296875
0.0047607421875
0.005859375
-0.0076904296875
-0.0087890625
0.0106201171875
-0.0032958984375
0.0032958984375
-0.01171875
0.0135498046875
-0.005859375
0.00439453125
-0.0054931640625
-0.002197265625
-0.00732421875
0.0047607421875
0.00439453125
-0.0010986328125
-0.0084228515625
0.0047607421875
0.0040283203125
-0.0084228515625
-0.0047607421875
0.003662109375
-0.0223388671875
0.219024658203125
-0.022705078125
0.0223388671875
0.017578125
-0.226715087890625
0.0208740234375
-0.0296630859375
0.005126953125
-0.00439453125
0.0186767578125
-0.0164794921875
0.0003662109375
0.0087890625
0.00732421875
0.0091552734375
0.00146484375
0.0157470703125
0.00439453125
-0.0142822265625
0.0029296875
-0.0318603515625
-0.0018310546875
-0.0106201171875
0.005859375
0.0
0.0010986328125
0.0032958984375
0.009521484375
-0.0076904296875
-0.0062255859375
0.012451171875
0.0062255859375
0.0003662109375
0.00439453125
0.002197265625
0.0087890625
-0.003662109375
0.0150146484375
-0.009521484375
0.00146484375
-0.0032958984375
0.00732421875
-0.0069580078125
-0.0062255859375
0.0054931640625
0.0025634765625
-0.0084228515625
-0.0076904296875
0.0076904296875
-0.005126953125
0.01025390625
-0.0391845703125
0.212066650390625
-0.003662109375
0.0018310546875
0.0450439453125
-0.215728759765625
0.0
-0.0018310546875
0.0087890625
-0.002197265625
-0.00439453125
0.0186767578125
0.0029296875
0.016845703125
-0.002197265625
0.02783203125
-0.0029296875
0.01611328125
0.003662109375
-0.0205078125
0.0003662109375
-0.02783203125
0.0087890625
-0.0208740234375
-0.0069580078125
0.0018310546875
0.002197265625
-0.005126953125
-0.006591796875
0.0076904296875
-0.00146484375
0.0032958984375
0.0
0.003662109375
-0.00146484375
0.0025634765625
0.005859375
-0.00439453125
-0.005859375
0.0025634765625
0.003662109375
-0.003662109375
-0.005126953125
0.0135498046875
0.0069580078125
-0.005126953125
0.005859375
-0.0029296875
0.0087890625
-0.0029296875
-0.0201416015625
0.163330078125
-0.015380859375
0.0205078125
0.037353515625
-0.1915283203125
0.00732421875
-0.0296630859375
-0.0018310546875
0.00146484375
-0.0150146484375
0.0208740234375
-0.009521484375
0.01611328125
-0.005859375
0.0179443359375
-0.005859375
0.017578125
0.0054931640625
-0.0087890625
0.0010986328125
-0.0205078125
0.0087890625
-0.0223388671875
-0.0098876953125
0.0087890625
-0.0047607421875
0.008056640625
-0.0087890625
0.0106201171875
-0.00439453125
0.002197265625
0.00146484375
-0.0003662109375
-0.0018310546875
0.00439453125
0.0084228515625
-0.0062255859375
-0.005126953125
0.005126953125
0.0025634765625
-0.003662109375
-0.0076904296875
0.0146484375
-0.00146484375
0.005859375
-0.000732421875
-0.003662109375
-0.003662109375
0.0003662109375
0.000732421875
0.0146484375
-0.012451171875
0.190460205078125
0.0069580078125
-0.029296875
0.002197265625
-0.190460205078125
0.0010986328125
-0.002197265625
-0.009521484375
0.0135498046875
-0.0062255859375
0.0120849609375
0.0010986328125
0.012451171875
-0.00146484375
0.0201416015625
0.0084228515625
0.0040283203125
-0.0032958984375
-0.01611328125
0.005859375
-0.03369140625
-0.006591796875
-0.002197265625
-0.0029296875
0.0003662109375
-0.002197265625
0.00146484375
0.0
-0.00146484375
0.01025390625
-0.0084228515625
0.0010986328125
0.00146484375
0.0087890625
-0.005126953125
-0.0040283203125
0.0069580078125
0.0003662109375
-0.002197265625
-0.0091552734375
0.01318359375
-0.0018310546875
0.0091552734375
0.0047607421875
-0.0054931640625
0.0
-0.0032958984375
0.012451171875
-0.0113525390625
-0.0234375
0.216461181640625
-0.0069580078125
0.0091552734375
0.015380859375
-0.215728759765625
0.0106201171875
-0.0186767578125
-0.0040283203125
0.0091552734375
-0.00439453125
0.01025390625
0.00439453125
0.00732421875
-0.00146484375
0.018310546875
0.0087890625
0.0054931640625
-0.0054931640625
-0.0054931640625
0.0040283203125
-0.03076171875
-0.0062255859375
-0.0084228515625
-0.003662109375
0.0040283203125
0.0
0.0029296875
-0.0029296875
-0.0003662109375
0.008056640625
-0.0084228515625
-0.0010986328125
0.0010986328125
0.008056640625
-0.0087890625
-0.008056640625
0.0087890625
-0.00439453125
0.0025634765625
-0.0087890625
0.01171875
-0.0029296875
0.0076904296875
0.0076904296875
-0.0098876953125
-0.000732421875
-0.0018310546875
0.01171875
-0.0120849609375
-0.0347900390625
0.194854736328125
-0.0062255859375
0.00732421875
0.0208740234375
-0.194488525390625
0.00146484375
-0.0150146484375
-0.0025634765625
0.0062255859375
-0.00439453125
0.0087890625
0.0054931640625
0.00439453125
-0.0040283203125
0.018310546875
0.0069580078125
0.006591796875
-0.0069580078125
-0.0010986328125
0.0018310546875
-0.0274658203125
-0.0054931640625
-0.006591796875
-0.00439453125
0.00146484375
0.003662109375
-0.0025634765625
-0.002197265625
0.003662109375
0.009521484375
-0.0062255859375
-0.0025634765625
0.005859375
0.005126953125
-0.0040283203125
-0.0087890625
0.009521484375
-0.0054931640625
0.00146484375
-0.00439453125
0.008056640625
0.0
0.00732421875
0.01171875
-0.0113525390625
0.0003662109375
-0.0018310546875
0.0106201171875
-0.00732421875
-0.03955078125
0.244659423828125
-0.006591796875
0.00146484375
0.0252685546875
-0.238067626953125
-0.0003662109375
-0.0047607421875
0.000732421875
0.00439453125
-0.0040283203125
0.01025390625
0.0076904296875
0.0025634765625
-0.0032958984375
0.0179443359375
0.006591796875
0.0047607421875
-0.005126953125
-0.0054931640625
0.0003662109375
-0.0216064453125
-0.0010986328125
-0.005859375
-0.0032958984375
0.0032958984375
0.00439453125
-0.003662109375
-0.002197265625
0.000732421875
0.0091552734375
-0.0098876953125
-0.005859375
0.006591796875
0.0018310546875
0.0003662109375
-0.00732421875
0.0087890625
-0.006591796875
0.0025634765625
0.0
0.00439453125
0.0
0.0062255859375
0.01318359375
-0.01318359375
0.0003662109375
-0.0003662109375
0.003662109375
0.0040283203125
-0.0296630859375
0.235870361328125
-0.0029296875
-0.0091552734375
0.0186767578125
-0.232574462890625
0.0010986328125
-0.0029296875
0.005126953125
0.0010986328125
-0.0032958984375
0.01025390625
0.008056640625
0.00439453125
-0.005859375
0.02197265625
0.00146484375
0.0076904296875
-0.005126953125
-0.006591796875
0.000732421875
-0.02197265625
0.0025634765625
-0.01025390625
-0.0025634765625
0.0018310546875
0.0084228515625
-0.00732421875
-0.002197265625
0.0
0.005859375
-0.0098876953125
-0.008056640625
0.005859375
-0.0025634765625
0.0025634765625
-0.0047607421875
0.0069580078125
-0.0047607421875
0.0003662109375
0.002197265625
0.000732421875
-0.00146484375
0.0076904296875
0.012451171875
-0.0142822265625
-0.002197265625
-0.000732421875
0.0054931640625
-0.0076904296875
-0.0325927734375
0.241363525390625
-0.01611328125
0.013916015625
0.0230712890625
-0.243194580078125
0.006591796875
-0.0150146484375
0.0076904296875
-0.0029296875
-0.003662109375
0.0091552734375
0.0069580078125
0.0040283203125
-0.008056640625
0.0234375
-0.002197265625
0.013916015625
-0.006591796875
-0.003662109375
-0.0029296875
-0.0234375
0.005859375
-0.0172119140625
-0.0018310546875
0.0003662109375
0.0087890625
-0.008056640625
-0.0047607421875
0.002197265625
0.0029296875
-0.005126953125
-0.0087890625
0.00732421875
-0.003662109375
0.002197265625
-0.0018310546875
0.003662109375
-0.00439453125
0.0010986328125
0.005859375
-0.0018310546875
-0.0018310546875
0.005859375
0.01171875
-0.013916015625
-0.0047607421875
0.0047607421875
0.0
0.0003662109375
-0.0391845703125
0.236602783203125
-0.01025390625
0.00732421875
0.0347900390625
-0.239898681640625
0.0010986328125
-0.0069580078125
0.008056640625
-0.0029296875
-0.0047607421875
0.0128173828125
0.0032958984375
0.008056640625
-0.009521484375
0.024169921875
-0.0032958984375
0.0150146484375
-0.0010986328125
-0.0076904296875
-0.0010986328125
-0.0216064453125
0.0076904296875
-0.01611328125
-0.002197265625
0.0025634765625
0.0098876953125
-0.0084228515625
-0.0062255859375
0.00439453125
0.0
-0.0003662109375
-0.0069580078125
0.0087890625
-0.0040283203125
0.00439453125
0.0018310546875
-0.0010986328125
-0.0032958984375
0.0
0.0076904296875
-0.0025634765625
-0.00146484375
0.0098876953125
0.0091552734375
-0.0113525390625
-0.0076904296875
0.002197265625
-0.0010986328125
0.0018310546875
-0.0263671875
0.215362548828125
-0.018310546875
0.0201416015625
0.0289306640625
-0.224884033203125
0.0120849609375
-0.024169921875
0.01025390625
-0.0054931640625
-0.008056640625
0.0135498046875
-0.002197265625
0.0098876953125
-0.008056640625
0.021240234375
-0.003662109375
0.0164794921875
0.0032958984375
-0.006591796875
0.0040283203125
-0.0230712890625
0.0142822265625
-0.0234375
-0.0018310546875
0.0003662109375
0.0062255859375
-0.005859375
-0.0076904296875
0.006591796875
-0.002197265625
-0.00146484375
-0.0025634765625
0.002197265625
-0.0018310546875
0.0040283203125
0.005859375
-0.002197265625
-0.0018310546875
0.0025634765625
0.0084228515625
-0.00732421875
-0.005126953125
0.01171875
0.0040283203125
-0.0018310546875
-0.005859375
0.000732421875
-0.0032958984375
0.002197265625
-0.0032958984375
0.035888671875
-0.0128173828125
0.158935546875
0.01171875
-0.0494384765625
0.0098876953125
-0.1651611328125
0.009521484375
-0.0076904296875
-0.008056640625
0.0120849609375
-0.003662109375
0.0098876953125
-0.0062255859375
0.0179443359375
-0.0032958984375
0.01904296875
0.0062255859375
0.0029296875
0.0003662109375
-0.018310546875
0.0120849609375
-0.032958984375
-0.0029296875
-0.0029296875
0.0025634765625
-0.003662109375
-0.0084228515625
0.0069580078125
-0.0040283203125
0.0
-0.0010986328125
-0.00146484375
-0.00146484375
0.00146484375
0.0087890625
-0.0062255859375
-0.0025634765625
0.0029296875
0.006591796875
-0.0098876953125
-0.0106201171875
0.01171875
-0.002197265625
0.008056640625
-0.0040283203125
0.0003662109375
-0.0025634765625
-0.0032958984375
0.006591796875
-0.003662109375
-0.0230712890625
0.189727783203125
-0.002197265625
0.00732421875
0.016845703125
-0.193389892578125
0.01318359375
-0.0289306640625
-0.0091552734375
0.0106201171875
-0.0047607421875
0.00732421875
-0.002197265625
0.0084228515625
-0.002197265625
0.013916015625
0.008056640625
0.0076904296875
-0.0032958984375
0.0
0.0087890625
-0.0318603515625
-0.0054931640625
-0.0087890625
-0.0010986328125
-0.000732421875
-0.0084228515625
0.0062255859375
-0.0047607421875
0.0018310546875
0.0029296875
-0.0032958984375
-0.002197265625
0.0029296875
0.01025390625
-0.00732421875
-0.003662109375
0.0040283203125
0.0040283203125
-0.00439453125
-0.0106201171875
0.009521484375
-0.0032958984375
0.010986328125
0.000732421875
0.0032958984375
-0.0010986328125
-0.0032958984375
0.008056640625
-0.003662109375
-0.008056640625
0.0831298828125
-0.0106201171875
0.050537109375
-0.00146484375
-0.08056640625
0.0201416015625
-0.0673828125
-0.0062255859375
0.008056640625
-0.0054931640625
0.0084228515625
0.0018310546875
0.008056640625
-0.002197265625
0.01318359375
0.01025390625
0.005859375
-0.0010986328125
0.00732421875
0.0091552734375
-0.024169921875
-0.00439453125
-0.0087890625
-0.0010986328125
0.000732421875
-0.0029296875
0.0040283203125
-0.0025634765625
0.0018310546875
0.00732421875
-0.0047607421875
-0.0010986328125
0.00146484375
0.01171875
-0.006591796875
-0.003662109375
0.0084228515625
0.0010986328125
-0.0003662109375
-0.009521484375
0.00732421875
-0.005126953125
0.0098876953125
0.0029296875
0.005126953125
0.0018310546875
-0.0040283203125
0.0120849609375
-0.012451171875
0.000732421875
-0.0003662109375
-0.0157470703125
0.238067626953125
-0.0205078125
0.0223388671875
0.0208740234375
-0.249786376953125
0.00732421875
-0.012451171875
-0.0025634765625
0.006591796875
0.00439453125
0.00146484375
-0.0032958984375
0.0120849609375
0.0084228515625
0.00439453125
-0.0047607421875
0.017578125
0.003662109375
-0.0062255859375
-0.003662109375
-0.013916015625
-0.0003662109375
-0.0113525390625
0.000732421875
-0.000732421875
-0.0018310546875
0.0040283203125
0.009521484375
-0.009521484375
-0.0025634765625
-0.000732421875
0.0069580078125
-0.0062255859375
-0.0069580078125
0.0084228515625
-0.0010986328125
0.002197265625
-0.0047607421875
0.005859375
-0.0047607421875
0.00146484375
0.0029296875
0.002197265625
-0.0003662109375
0.005126953125
0.0135498046875
-0.015380859375
-0.0025634765625
0.0010986328125
0.0047607421875
-0.00439453125
-0.0303955078125
0.250518798828125
-0.0120849609375
0.0087890625
0.0223388671875
-0.251617431640625
0.0054931640625
-0.012451171875
0.0087890625
-0.0040283203125
-0.002197265625
0.00732421875
0.00732421875
0.0010986328125
-0.006591796875
0.0205078125
0.0003662109375
0.01318359375
-0.005126953125
-0.0029296875
-0.0018310546875
-0.02490234375
0.005126953125
-0.017578125
-0.0029296875
0.0029296875
0.0087890625
-0.0084228515625
-0.0047607421875
0.0018310546875
0.0032958984375
-0.0047607421875
-0.0084228515625
0.008056640625
-0.00439453125
0.003662109375
-0.002197265625
0.003662109375
-0.0029296875
0.003662109375
0.0054931640625
-0.0076904296875
-0.0029296875
0.00732421875
0.012451171875
-0.006591796875
-0.0018310546875
-0.00146484375
0.0003662109375
-0.002197265625
-0.009521484375
0.01318359375
-0.0267333984375
0.227081298828125
0.003662109375
-0.010986328125
0.022705078125
-0.232574462890625
0.0128173828125
-0.01611328125
-0.0029296875
0.006591796875
0.005126953125
0.0
-0.0091552734375
0.0150146484375
-0.0032958984375
0.013916015625
-0.002197265625
0.0120849609375
-0.0025634765625
-0.01025390625
0.0076904296875
-0.0281982421875
-0.0010986328125
-0.005859375
0.01025390625
-0.01025390625
-0.0069580078125
0.0040283203125
0.0
-0.00146484375
-0.0069580078125
0.0084228515625
-0.0040283203125
0.005859375
0.0029296875
0.000732421875
-0.0003662109375
0.002197265625
0.0084228515625
-0.0087890625
-0.006591796875
0.0040283203125
0.0062255859375
0.002197265625
-0.005126953125
0.0087890625
-0.000732421875
-0.00439453125
-0.003662109375
0.003662109375
-0.006591796875
0.0413818359375
-0.012451171875
0.1494140625
0.0
-0.0406494140625
0.0296630859375
-0.1717529296875
-0.003662109375
0.0032958984375
0.0003662109375
0.0047607421875
-0.0087890625
0.0150146484375
-0.0047607421875
0.0128173828125
0.0003662109375
0.0150146484375
-0.00146484375
0.010986328125
0.012451171875
-0.0208740234375
0.0010986328125
-0.0164794921875
0.0087890625
-0.0120849609375
-0.0076904296875
0.0091552734375
-0.0025634765625
0.0025634765625
-0.00439453125
0.0029296875
-0.002197265625
0.00146484375
0.0062255859375
-0.0029296875
-0.00146484375
0.0025634765625
0.0106201171875
-0.0087890625
-0.005126953125
0.005126953125
0.0
-0.00146484375
-0.008056640625
0.0146484375
-0.000732421875
0.0047607421875
0.0029296875
-0.005126953125
-0.0010986328125
0.000732421875
0.005859375
0.016845703125
-0.0135498046875
0.202545166015625
0.0087890625
-0.03515625
0.005126953125
-0.202911376953125
0.0003662109375
-0.0018310546875
-0.0069580078125
0.0120849609375
-0.0032958984375
0.010986328125
0.0047607421875
0.0062255859375
-0.0025634765625
0.0157470703125
0.0098876953125
0.0025634765625
-0.0010986328125
-0.0091552734375
0.0084228515625
-0.027099609375
-0.005859375
0.0
-0.0029296875
0.003662109375
-0.0003662109375
0.0003662109375
-0.0018310546875
-0.000732421875
0.0076904296875
-0.0076904296875
-0.00146484375
0.0029296875
0.009521484375
-0.005859375
-0.0069580078125
0.0084228515625
-0.00146484375
0.0018310546875
-0.0084228515625
0.00439453125
-0.0054931640625
0.01025390625
0.003662109375
0.0054931640625
-0.0003662109375
-0.0029296875
0.010986328125
-0.0113525390625
-0.00146484375
0.0010986328125
-0.01611328125
0.235504150390625
-0.01904296875
0.0172119140625
0.0157470703125
-0.244659423828125
0.005126953125
-0.009521484375
-0.0003662109375
0.008056640625
0.008056640625
0.00439453125
-0.0018310546875
0.0179443359375
0.0120849609375
0.013916015625
-0.0040283203125
0.022705078125
0.0003662109375
-0.0164794921875
-0.0084228515625
-0.0340576171875
-0.005126953125
-0.030029296875
-0.0018310546875
-0.0289306640625
-0.0076904296875
-0.0274658203125
0.0076904296875
-0.041748046875
-0.003662109375
-0.0281982421875
0.0069580078125
-0.029296875
-0.0069580078125
-0.0216064453125
-0.0018310546875
-0.027862548828125
-0.0029296875
-0.019439697265625
-0.0040283203125
-0.0238037109375
0.005126953125
-0.024169921875
-0.0010986328125
-0.0234375
0.0150146484375
-0.04541015625
-0.0025634765625
-0.0164794921875
0.0069580078125
-0.018310546875
-0.02197265625
0.185699462890625
-0.01318359375
-0.005859375
0.01904296875
-0.216094970703125
0.005126953125
-0.017578125
0.005859375
-0.000732421875
-0.0069580078125
0.02197265625
0.0054931640625
0.0076904296875
-0.0084228515625
0.02490234375
-0.0018310546875
0.0281982421875
-0.005126953125
0.01171875
-0.0010986328125
-0.0194091796875
0.006591796875
-0.02490234375
-0.002197265625
-0.002197265625
0.0106201171875
-0.01025390625
-0.0091552734375
0.0062255859375
-0.0010986328125
0.000732421875
-0.009521484375
0.0172119140625
-0.0029296875
0.01611328125
0.000732421875
0.013916015625
-0.0018310546875
0.0194091796875
0.0084228515625
0.003662109375
-0.0054931640625
0.018310546875
0.0098876953125
0.008056640625
-0.0062255859375
0.0087890625
0.00146484375
-0.0018310546875
0.0010986328125
-0.002197265625
-0.021240234375
0.256744384765625
-0.005859375
0.0179443359375
0.0164794921875
-0.254180908203125
0.01904296875
-0.02197265625
-0.0076904296875
0.017578125
0.0
0.0106201171875
-0.0098876953125
0.025299072265625
-0.0018310546875
0.0208740234375
0.0018310546875
0.0208740234375
0.0
0.012847900390625
0.01318359375
-0.01611328125
0.0018310546875
-0.0025634765625
0.0098876953125
-0.0069580078125
-0.009521484375
0.0069580078125
-0.0040283203125
0.00439453125
-0.0069580078125
0.01025390625
-0.002197265625
0.0040283203125
0.0047607421875
-0.00146484375
0.0010986328125
0.003662109375
0.0146484375
-0.006591796875
-0.0029296875
0.010986328125
0.0047607421875
0.0
-0.0062255859375
0.0179443359375
-0.00146484375
0.013916015625
0.0003662109375
0.0069580078125
-0.000732421875
0.01171875
0.00732421875
0.028564453125
-0.005126953125
0.242095947265625
0.0098876953125
-0.030029296875
-0.0076904296875
-0.224517822265625
-0.005126953125
0.0084228515625
-0.010986328125
0.0216064453125
-0.006591796875
0.016845703125
-0.000732421875
0.01171875
-0.0091552734375
0.0238037109375
0.0091552734375
0.0113525390625
-0.0025634765625
0.0
0.008056640625
-0.0245361328125
-0.0113525390625
0.0076904296875
-0.0040283203125
0.00439453125
0.0025634765625
-0.0040283203125
-0.003662109375
-0.000732421875
0.003662109375
-0.005859375
-0.005126953125
0.005859375
0.010986328125
-0.0054931640625
-0.0091552734375
0.0146484375
-0.0047607421875
0.01025390625
-0.01318359375
0.0179443359375
-0.0087890625
0.0087890625
0.0003662109375
0.0113525390625
0.0029296875
0.005126953125
0.017578125
-0.0194091796875
0.002197265625
0.0003662109375
0.009521484375
0.0274658203125
-0.0120849609375
0.188629150390625
0.000732421875
-0.038818359375
0.0010986328125
-0.181304931640625
0.00146484375
0.0029296875
0.01171875
-0.0010986328125
0.0003662109375
0.0106201171875
0.0113525390625
0.00439453125
-0.010986328125
0.0311279296875
0.000732421875
0.0120849609375
-0.00732421875
-0.0087890625
0.00146484375
-0.027099609375
0.005859375
-0.01318359375
-0.0010986328125
0.0003662109375
0.012451171875
-0.0128173828125
-0.002197265625
0.00146484375
0.0106201171875
-0.0091552734375
-0.0120849609375
0.013916015625
-0.005126953125
0.008056640625
-0.00732421875
0.0098876953125
-0.00439453125
0.005126953125
0.005859375
-0.006591796875
-0.0047607421875
0.008056640625
0.015380859375
-0.005859375
-0.0018310546875
-0.0003662109375
0.0062255859375
-0.01025390625
-0.009521484375
0.0106201171875
-0.0311279296875
0.1556396484375
-0.0040283203125
0.009521484375
0.028564453125
-0.1549072265625
0.0252685546875
-0.0263671875
0.005859375
0.00146484375
0.01611328125
-0.006591796875
-0.008056640625
0.021240234375
-0.0040283203125
0.018310546875
-0.0113525390625
0.0274658203125
-0.0025634765625
0.00439453125
0.0186767578125
-0.040283203125
0.0135498046875
-0.0303955078125
0.0260009765625
-0.025634765625
0.003662109375
-0.00439453125
0.009521484375
-0.0106201171875
-0.0098876953125
0.0098876953125
-0.0054931640625
0.0047607421875
-0.002197265625
0.0010986328125
-0.0040283203125
0.0010986328125
0.009521484375
-0.0106201171875
-0.0054931640625
0.00439453125
0.0087890625
-0.0120849609375
-0.01318359375
0.0164794921875
-0.0029296875
0.0069580078125
-0.0069580078125
0.0032958984375
-0.0029296875
0.002197265625
0.0025634765625
0.0040283203125
-0.043212890625
0.203643798828125
0.0150146484375
-0.0238037109375
0.0322265625
-0.202178955078125
0.0040283203125
-0.006591796875
-0.013916015625
0.01611328125
-0.008056640625
0.012451171875
-0.0091552734375
0.01904296875
-0.0106201171875
0.0234375
0.002197265625
0.0091552734375
-0.0025634765625
-0.009521484375
0.021240234375
-0.041748046875
-0.00732421875
-0.003662109375
-0.005126953125
-0.0025634765625
-0.012451171875
0.006591796875
-0.0062255859375
-0.00146484375
0.0010986328125
-0.0054931640625
-0.0062255859375
0.0062255859375
0.0106201171875
-0.0062255859375
-0.0098876953125
0.0157470703125
-0.0054931640625
0.0106201171875
-0.0216064453125
0.022705078125
0.0289306640625
-0.0355224609375
0.03955078125
-0.0501708984375
-0.151611328125
0.146484375
-0.170684814453125
0.1732177734375
-0.111724853515625
0.106964111328125
-0.1490478515625
0.143951416015625
-0.217193603515625
0.487823486328125
-0.163360595703125
0.15966796875
-0.140625
-0.1318359375
-0.191162109375
0.192291259765625
-0.155303955078125
0.198516845703125
-0.087921142578125
0.130401611328125
0.0
0.0
0.0
0.0
0.0
0.0
0.0
0.0
0.0
0.0
0.0
0.0
0.0
0.0
0.0
0.0
0.042510986328125
-0.079864501953125
0.178741455078125
-0.223052978515625
0.280914306640625
-0.286407470703125
0.269927978515625
-0.272125244140625
0.1439208984375
-0.1527099609375
0.0908203125
-0.0985107421875
0.139190673828125
-0.126007080078125
0.170318603515625
-0.149810791015625
0.1300048828125
-0.1190185546875
0.022705078125
-0.0128173828125
0.0281982421875
-0.029296875
0.0355224609375
-0.046875
0.0560302734375
-0.0684814453125
0.044677734375
-0.0120849609375
0.009521484375
0.1981201171875
0.0435791015625
-0.101104736328125
0.066680908203125
-0.303253173828125
0.058624267578125
-0.0772705078125
0.0087890625
-0.0322265625
-0.070343017578125
0.0538330078125
-0.232940673828125
0.223419189453125
-0.300689697265625
0.297393798828125
-0.334014892578125
0.348297119140625
-0.328155517578125
0.34393310546875
-0.303619384765625
0.329986572265625
-0.215728759765625
0.298492431640625
-0.035186767578125
0.073272705078125
0.0
0.0
0.0
0.024169921875
0.0
0.0
0.231475830078125
-0.299957275390625
0.41094970703125
-0.47796630859375
0.292999267578125
-0.292266845703125
0.1259765625
-0.117919921875
-0.062255859375
0.08203125
-0.150146484375
0.169189453125
-0.159698486328125
0.1680908203125
0.046142578125
-0.0501708984375
0.30255126953125
-0.320465087890625
0.345367431640625
-0.371368408203125
0.279815673828125
-0.283111572265625
0.189727783203125
0.0501708984375
0.148681640625
-0.1593017578125
0.09814453125
-0.373199462890625
0.0911865234375
-0.130767822265625
0.0721435546875
-0.082061767578125
0.053497314453125
-0.05419921875
0.037017822265625
-0.0234375
0.0120849609375
0.0076904296875
0.0128173828125
0.01171875
-0.0098876953125
0.0172119140625
0.01025390625
-0.0303955078125
-0.023101806640625
0.0062255859375
-0.049835205078125
0.05712890625
-0.0347900390625
0.0560302734375
-0.02197265625
0.0362548828125
0.005859375
0.0084228515625
0.005859375
0.0106201171875
-0.0150146484375
0.029693603515625
-0.047607421875
0.061553955078125
-0.027099609375
0.032958984375
0.00146484375
-0.0054931640625
0.0054931640625
-0.0128173828125
-0.0142822265625
0.005126953125
-0.0750732421875
0.06884765625
-0.0985107421875
0.1146240234375
-0.069580078125
0.085693359375
-0.0428466796875
0.050537109375
-0.052001953125
0.0626220703125
-0.0322265625
0.0604248046875
-0.045074462890625
0.183868408203125
-0.0113525390625
-0.015380859375
0.0128173828125
-0.154571533203125
-0.030426025390625
0.01611328125
-0.024169921875
0.009185791015625
-0.0648193359375
0.067413330078125
-0.06591796875
0.08349609375
-0.078369140625
0.10693359375
-0.05126953125
0.071044921875
-0.02783203125
0.01171875
-0.0091552734375
-0.0223388671875
0.0615234375
-0.084228515625
0.044677734375
-0.0604248046875
0.0318603515625
-0.0322265625
0.0146484375
0.0040283203125
0.0391845703125
-0.0179443359375
0.0604248046875
-0.053466796875
0.0245361328125
-0.0281982421875
-0.0205078125
0.0223388671875
-0.0018310546875
0.00732421875
0.0322265625
-0.024169921875
0.0142822265625
-0.008056640625
0.0322265625
-0.021240234375
-0.00146484375
0.0098876953125
0.019073486328125
-0.026763916015625
0.0047607421875
-0.008056640625
-0.0047607421875
0.0029296875
-0.0230712890625
0.185302734375
-0.008453369140625
0.0032958984375
0.071807861328125
-0.248321533203125
-0.0084228515625
0.0029296875
-0.0223388671875
0.0267333984375
-0.0234375
0.030426025390625
-0.018341064453125
0.032257080078125
-0.0120849609375
0.0318603515625
-0.016845703125
0.0380859375
0.0146484375
-0.0098876953125
0.00439453125
-0.02490234375
0.015380859375
-0.0289306640625
-0.0146484375
0.0142822265625
-0.0076904296875
0.006591796875
-0.0098876953125
0.0087890625
-0.0091552734375
0.0106201171875
0.005859375
-0.00439453125
-0.0087890625
0.00732421875
0.01318359375
-0.0120849609375
-0.0142822265625
0.0146484375
-0.0032958984375
0.0047607421875
-0.0150146484375
0.016845703125
-0.0091552734375
0.0054931640625
0.0
0.0047607421875
-0.00439453125
0.01171875
0.0179443359375
-0.0186767578125
-0.005126953125
0.0032958984375
0.010986328125
-0.009521484375
-0.0567626953125
0.256011962890625
-0.0205078125
0.0223388671875
0.0325927734375
-0.236968994140625
0.0054931640625
-0.0128173828125
0.0091552734375
-0.0025634765625
-0.0076904296875
0.0128173828125
0.0098876953125
-0.003662109375
-0.01611328125
0.0281982421875
-0.0054931640625
0.0205078125
-0.0150146484375
0.018310546875
0.0025634765625
-0.0205078125
0.008056640625
-0.0238037109375
-0.0040283203125
0.0003662109375
0.012451171875
-0.0135498046875
-0.0069580078125
0.0040283203125
0.009521484375
-0.0157470703125
-0.0142822265625
0.00732421875
-0.0029296875
0.002197265625
-0.0084228515625
0.009521484375
-0.005126953125
0.006591796875
0.0091552734375
-0.003662109375
-0.002197265625
0.005859375
0.013916015625
-0.0128173828125
-0.01318359375
0.0157470703125
-0.002197265625
0.010986328125
-0.022705078125
0.0205078125
0.0076904296875
-0.015380859375
0.0347900390625
-0.0399169921875
-0.0692138671875
0.15673828125
-0.0703125
0.0838623046875
-0.0457763671875
-0.0721435546875
-0.1358642578125
0.091552734375
-0.260772705078125
0.266265869140625
-0.202911376953125
0.236602783203125
-0.0552978515625
0.08642578125
0.0816650390625
-0.069580078125
0.117919921875
-0.1175537109375
0.0655517578125
-0.0765380859375
0.0501708984375
-0.0809326171875
0.003662109375
-0.037353515625
0.0098876953125
-0.026763916015625
-0.01171875
0.009521484375
0.0142822265625
-0.01904296875
0.0311279296875
-0.048736572265625
0.058258056640625
-0.085693359375
0.084625244140625
-0.113525390625
0.053466796875
-0.0684814453125
0.079833984375
0.031494140625
0.0791015625
0.217559814453125
0.116455078125
0.167022705078125
0.127105712890625
0.03515625
0.094512939453125
-0.0010986328125
0.0867919921875
-0.0355224609375
0.08056640625
-0.087921142578125
0.088623046875
-0.160797119140625
0.0494384765625
-0.1351318359375
0.0263671875
-0.057861328125
-0.223785400390625
0.356353759765625
-0.205810546875
0.1607666015625
0.082061767578125
-0.281280517578125
0.066650390625
-0.1201171875
0.0010986328125
-0.0560302734375
-0.04541015625
-0.002197265625
-0.0274658203125
0.0
-0.064483642578125
0.025634765625
-0.008056640625
-0.078369140625
0.130401611328125
-0.255279541015625
0.125244140625
-0.214263916015625
0.0325927734375
-0.064453125
-0.0274658203125
0.0113525390625
-0.02783203125
0.0186767578125
-0.029296875
0.0267333984375
-0.0128173828125
0.01611328125
-0.02490234375
0.0281982421875
-0.0267333984375
0.0311279296875
-0.0399169921875
0.041748046875
-0.0421142578125
0.041015625
-0.024566650390625
0.0263671875
-0.028594970703125
0.0347900390625
-0.003662109375
0.0186767578125
-0.0069580078125
0.008056640625
0.000732421875
-0.0142822265625
-0.024169921875
0.014312744140625
-0.0479736328125
0.133697509765625
-0.0501708984375
0.0509033203125
-0.038818359375
-0.050537109375
-0.024169921875
0.0333251953125
-0.040283203125
0.05419921875
-0.021240234375
0.0369873046875
-0.0296630859375
0.044677734375
0.017578125
-0.0054931640625
0.0146484375
0.0018310546875
0.0084228515625
-0.0040283203125
0.0289306640625
-0.0552978515625
0.0106201171875
-0.040283203125
0.01611328125
-0.02490234375
-0.0054931640625
-0.0025634765625
0.017578125
-0.0311279296875
0.0084228515625
-0.0150146484375
0.009521484375
-0.0120849609375
0.0113525390625
-0.015380859375
0.0150146484375
-0.017578125
0.0208740234375
-0.0223388671875
0.0032958984375
-0.0025634765625
0.006591796875
-0.00439453125
-0.0216064453125
0.0172119140625
-0.0186767578125
0.0245361328125
-0.0194091796875
0.027099609375
-0.005126953125
0.00146484375
-0.006591796875
0.0084228515625
-0.0113525390625
0.0230712890625
-0.0186767578125
0.277618408203125
-0.01025390625
0.0054931640625
0.0281982421875
-0.287139892578125
-0.0069580078125
0.00146484375
-0.003662109375
0.0084228515625
-0.0106201171875
0.01904296875
-0.002197265625
0.0128173828125
0.0205078125
0.000732421875
0.02197265625
0.0040283203125
0.0245361328125
-0.029296875
-0.0040283203125
-0.029296875
-0.0062255859375
-0.01318359375
-0.0216064453125
0.0157470703125
-0.0040283203125
0.0040283203125
0.000732421875
-0.0025634765625
0.0018310546875
-0.0040283203125
0.0150146484375
-0.01318359375
0.000732421875
0.000732421875
0.0010986328125
0.0076904296875
-0.0150146484375
0.0201416015625
0.0120849609375
-0.0120849609375
-0.0098876953125
0.0062255859375
-0.0003662109375
0.006591796875
0.01025390625
-0.00439453125
-0.0018310546875
-0.0062255859375
0.010986328125
-0.013916015625
-0.015380859375
0.032958984375
0.000732421875
0.2135009765625
-0.00732421875
-0.01904296875
0.0076904296875
-0.230712890625
0.0040283203125
-0.003662109375
0.0
0.005859375
0.0069580078125
-0.0003662109375
-0.005126953125
0.0113525390625
0.0069580078125
0.0084228515625
-0.0128173828125
0.0260009765625
0.0
-0.0120849609375
-0.003662109375
-0.0260009765625
0.0025634765625
-0.0157470703125
0.0018310546875
-0.000732421875
-0.00439453125
0.0047607421875
0.0087890625
-0.0062255859375
-0.0032958984375
0.0029296875
0.008056640625
-0.00732421875
-0.0084228515625
0.0106201171875
0.0018310546875
0.0025634765625
-0.0025634765625
0.0040283203125
-0.00146484375
-0.0018310546875
0.005126953125
0.0025634765625
-0.003662109375
0.0120849609375
0.0135498046875
-0.01318359375
-0.008056640625
0.0040283203125
0.0084228515625
-0.00439453125
-0.019775390625
0.1402587890625
-0.0142822265625
0.0380859375
0.018310546875
-0.1409912109375
0.0142822265625
-0.046875
0.01171875
-0.0069580078125
-0.01171875
0.0135498046875
0.00439453125
0.0029296875
-0.0128173828125
0.02197265625
-0.003662109375
0.0164794921875
-0.0062255859375
0.0164794921875
0.0003662109375
-0.0164794921875
0.0091552734375
-0.028564453125
-0.0032958984375
-0.00146484375
0.0069580078125
-0.0040283203125
-0.0076904296875
0.0084228515625
0.005859375
-0.0029296875
-0.0025634765625
0.0054931640625
0.0054931640625
-0.0010986328125
0.00146484375
0.00146484375
-0.0003662109375
0.003662109375
0.009521484375
-0.00146484375
-0.005859375
0.005859375
0.0047607421875
-0.00732421875
-0.010986328125
0.0186767578125
0.0113525390625
-0.0003662109375
-0.0003662109375
-0.0029296875
-0.00146484375
-0.0040283203125
-0.0032958984375
0.03955078125
-0.0157470703125
0.1995849609375
0.0113525390625
-0.05419921875
-0.00439453125
-0.1922607421875
0.0076904296875
-0.008056640625
-0.0120849609375
0.0150146484375
-0.002197265625
0.008056640625
0.0003662109375
0.01318359375
-0.00732421875
0.0223388671875
0.0029296875
0.0098876953125
-0.0040283203125
-0.0047607421875
0.0128173828125
-0.0303955078125
-0.005859375
-0.002197265625
0.0
0.000732421875
-0.0084228515625
0.0069580078125
-0.002197265625
-0.0032958984375
0.002197265625
-0.0032958984375
-0.002197265625
0.00439453125
0.0091552734375
-0.003662109375
-0.0062255859375
0.00732421875
0.005859375
-0.0029296875
-0.0091552734375
0.0098876953125
-0.0032958984375
-0.0018310546875
-0.006591796875
0.012451171875
-0.0029296875
0.00732421875
0.0087890625
-0.012451171875
-0.0025634765625
-0.0003662109375
0.009521484375
-0.0084228515625
-0.0296630859375
0.273590087890625
-0.0069580078125
0.005126953125
0.0150146484375
-0.270294189453125
0.009521484375
-0.0172119140625
0.0029296875
0.0032958984375
-0.00439453125
0.0098876953125
0.00732421875
0.0062255859375
-0.0047607421875
0.0223388671875
0.0098876953125
0.009521484375
-0.01025390625
0.005859375
0.005859375
-0.0303955078125
-0.002197265625
-0.010986328125
-0.0087890625
0.00439453125
0.0054931640625
-0.005859375
-0.00439453125
0.00146484375
0.0106201171875
-0.010986328125
-0.005859375
0.00732421875
0.0018310546875
0.0010986328125
-0.0076904296875
0.0120849609375
0.0003662109375
0.0018310546875
-0.0003662109375
0.002197265625
-0.003662109375
0.000732421875
0.0054931640625
-0.0029296875
-0.005126953125
0.0128173828125
0.008056640625
-0.01171875
-0.009521484375
0.0029296875
0.0018310546875
-0.002197265625
-0.02783203125
0.182769775390625
-0.013916015625
0.0172119140625
0.0267333984375
-0.189727783203125
0.009521484375
-0.0201416015625
0.0087890625
-0.0040283203125
-0.009521484375
0.0150146484375
0.0025634765625
0.00732421875
-0.006591796875
0.022705078125
0.0032958984375
0.017578125
0.000732421875
0.0062255859375
-0.00146484375
-0.0186767578125
0.008056640625
-0.028564453125
-0.0047607421875
-0.0025634765625
0.00732421875
-0.0084228515625
-0.0076904296875
0.0054931640625
0.0018310546875
-0.0018310546875
-0.0047607421875
0.0069580078125
0.0
0.002197265625
0.0029296875
-0.0010986328125
-0.002197265625
0.0025634765625
0.01025390625
-0.006591796875
-0.008056640625
0.005859375
0.00146484375
-0.0018310546875
-0.0069580078125
0.0172119140625
0.0032958984375
-0.002197265625
-0.000732421875
-0.0069580078125
-0.00146484375
0.0
-0.0113525390625
0.1197509765625
-0.0252685546875
0.0596923828125
0.024169921875
-0.138427734375
0.013916015625
-0.057861328125
0.003662109375
-0.00146484375
-0.0076904296875
0.01171875
-0.0018310546875
0.006591796875
-0.0003662109375
0.01025390625
-0.005126953125
0.018310546875
0.008056640625
-0.0025634765625
-0.0040283203125
-0.0087890625
0.009521484375
-0.0201416015625
-0.005859375
0.00146484375
0.0
-0.0040283203125
-0.003662109375
0.0
-0.0018310546875
-0.0003662109375
0.0047607421875
-0.0047607421875
-0.0040283203125
0.005126953125
0.008056640625
-0.0047607421875
-0.0091552734375
0.0076904296875
0.0018310546875
-0.00146484375
-0.006591796875
0.0084228515625
-0.0018310546875
-0.002197265625
-0.0003662109375
0.0054931640625
-0.002197265625
0.0106201171875
0.0106201171875
-0.012451171875
-0.0032958984375
0.0003662109375
0.01025390625
-0.0087890625
-0.0303955078125
0.271392822265625
-0.013916015625
0.0142822265625
0.01904296875
-0.269927978515625
0.01025390625
-0.021240234375
0.005126953125
-0.0025634765625
-0.005126953125
0.0106201171875
0.006591796875
0.0029296875
-0.009521484375
0.0208740234375
0.0025634765625
0.01318359375
-0.0040283203125
0.005859375
0.0040283203125
-0.0194091796875
0.0029296875
-0.0142822265625
-0.0010986328125
-0.0047607421875
0.0087890625
-0.01025390625
-0.005859375
0.005859375
0.005859375
-0.0054931640625
-0.00732421875
0.0054931640625
0.00146484375
-0.0010986328125
-0.00439453125
0.00732421875
-0.000732421875
0.0010986328125
0.0032958984375
-0.003662109375
-0.0062255859375
0.00439453125
0.0062255859375
-0.006591796875
-0.0087890625
0.0157470703125
0.00439453125
-0.0010986328125
-0.006591796875
-0.000732421875
0.0
-0.0010986328125
-0.0120849609375
0.06591796875
-0.0113525390625
0.12744140625
0.019775390625
-0.0791015625
0.0062255859375
-0.134033203125
0.0091552734375
-0.0098876953125
-0.0091552734375
0.0128173828125
-0.0003662109375
0.0076904296875
-0.0054931640625
0.0157470703125
0.00146484375
0.015380859375
0.005859375
0.0062255859375
-0.0025634765625
-0.009521484375
0.01025390625
-0.0296630859375
-0.00732421875
-0.005126953125
0.003662109375
-0.0069580078125
-0.0084228515625
0.0054931640625
0.000732421875
-0.0025634765625
0.0
0.0010986328125
-0.00146484375
0.0029296875
0.008056640625
-0.005126953125
-0.0054931640625
0.0040283203125
0.00732421875
-0.008056640625
-0.008056640625
0.005859375
0.0040283203125
-0.005859375
-0.01171875
0.018310546875
0.0010986328125
0.00146484375
0.0076904296875
-0.0128173828125
-0.0047607421875
0.0025634765625
-0.0025634765625
0.0582275390625
-0.0238037109375
0.1007080078125
0.017578125
-0.076171875
0.008056640625
-0.091552734375
0.002197265625
-0.003662109375
-0.002197265625
0.005126953125
-0.00146484375
0.010986328125
0.006591796875
0.0084228515625
-0.003662109375
0.0223388671875
0.010986328125
0.0040283203125
-0.0098876953125
-0.005859375
0.0
-0.025634765625
-0.005126953125
-0.0084228515625
0.0
-0.0047607421875
0.00146484375
-0.0025634765625
-0.0029296875
0.0010986328125
0.010986328125
-0.00732421875
-0.005859375
0.0069580078125
0.0047607421875
-0.003662109375
-0.0087890625
0.0076904296875
0.0003662109375
0.0
-0.003662109375
0.003662109375
-0.003662109375
0.0018310546875
0.0069580078125
0.003662109375
-0.0010986328125
0.003662109375
0.0106201171875
-0.015380859375
-0.0076904296875
0.0076904296875
-0.015380859375
0.12158203125
-0.0267333984375
0.0615234375
0.01611328125
-0.13037109375
0.022705078125
-0.0670166015625
-0.000732421875
0.0
0.00732421875
-0.0018310546875
-0.009521484375
0.0146484375
0.0029296875
0.00439453125
-0.009521484375
0.019775390625
0.0003662109375
0.005859375
0.0
-0.005126953125
0.0032958984375
-0.01318359375
0.0076904296875
-0.01171875
-0.003662109375
0.000732421875
0.00732421875
-0.0084228515625
-0.008056640625
0.006591796875
0.003662109375
-0.0025634765625
-0.0069580078125
0.0091552734375
0.0
0.000732421875
0.000732421875
0.0
-0.0018310546875
0.0029296875
0.008056640625
-0.00732421875
-0.0084228515625
0.0054931640625
0.005859375
0.0032958984375
-0.0062255859375
0.0091552734375
0.0029296875
-0.0091552734375
-0.0029296875
0.003662109375
-0.015380859375
0.093017578125
-0.015380859375
0.101806640625
0.01025390625
-0.0955810546875
0.0303955078125
-0.125244140625
-0.005859375
0.0040283203125
0.0018310546875
0.00146484375
-0.009521484375
0.015380859375
-0.00146484375
0.01171875
-0.0003662109375
0.012451171875
-0.000732421875
0.0076904296875
0.0113525390625
-0.013916015625
-0.002197265625
-0.0098876953125
0.0084228515625
-0.015380859375
-0.008056640625
0.003662109375
0.000732421875
-0.0040283203125
-0.00439453125
0.003662109375
-0.0003662109375
0.0010986328125
0.00439453125
-0.0018310546875
-0.0029296875
0.0040283203125
0.0087890625
-0.0054931640625
-0.0087890625
0.0069580078125
0.0003662109375
-0.0040283203125
-0.0113525390625
0.01171875
-0.000732421875
0.0069580078125
-0.0003662109375
-0.0025634765625
-0.0029296875
-0.008056640625
0.005859375
-0.00732421875
-0.0281982421875
0.158935546875
-0.0120849609375
0.02783203125
0.0113525390625
-0.1549072265625
0.0205078125
-0.047607421875
-0.0025634765625
0.003662109375
-0.0010986328125
0.0069580078125
0.002197265625
0.0076904296875
-0.0018310546875
0.0142822265625
0.010986328125
0.0076904296875
-0.005859375
0.0120849609375
0.0054931640625
-0.017578125
-0.006591796875
-0.012451171875
0.0010986328125
-0.0113525390625
-0.0003662109375
-0.0029296875
-0.000732421875
-0.002197265625
0.0076904296875
-0.0069580078125
-0.0062255859375
0.005859375
0.003662109375
-0.006591796875
-0.0113525390625
0.008056640625
0.0003662109375
0.000732421875
-0.0091552734375
0.0047607421875
-0.006591796875
-0.00146484375
0.0003662109375
0.005126953125
0.0
0.0054931640625
0.01318359375
-0.0150146484375
-0.005859375
0.005126953125
-0.003662109375
0.0263671875
-0.013916015625
0.196319580078125
0.0084228515625
-0.0347900390625
0.0062255859375
-0.195953369140625
0.0018310546875
-0.0025634765625
0.0076904296875
-0.0003662109375
-0.0054931640625
0.0128173828125
0.008056640625
0.0054931640625
-0.0062255859375
0.0238037109375
0.00439453125
0.010986328125
-0.0069580078125
0.0018310546875
-0.0018310546875
-0.022705078125
0.0025634765625
-0.0208740234375
-0.002197265625
-0.00439453125
0.0087890625
-0.008056640625
-0.006591796875
0.0054931640625
0.0062255859375
-0.0040283203125
-0.0076904296875
0.0084228515625
0.00146484375
-0.0010986328125
-0.0010986328125
0.0040283203125
-0.000732421875
0.0010986328125
0.005126953125
-0.008056640625
-0.00439453125
0.0106201171875
0.0106201171875
0.0010986328125
-0.005126953125
0.0018310546875
0.0047607421875
-0.0062255859375
-0.0029296875
0.00732421875
-0.0318603515625
0.290802001953125
-0.005859375
0.0054931640625
0.0318603515625
-0.299224853515625
0.0172119140625
-0.02490234375
-0.0054931640625
0.008056640625
0.00439453125
0.0018310546875
-0.0113525390625
0.016845703125
0.0003662109375
0.0091552734375
-0.000732421875
0.0113525390625
0.0010986328125
0.0
0.01171875
-0.0135498046875
-0.0003662109375
-0.0047607421875
0.0084228515625
-0.010986328125
-0.0069580078125
0.0062255859375
0.0018310546875
-0.0040283203125
-0.008056640625
0.005126953125
0.0003662109375
0.0003662109375
0.0025634765625
0.000732421875
-0.0025634765625
0.0029296875
0.0084228515625
-0.006591796875
-0.0062255859375
0.00439453125
0.00439453125
0.000732421875
-0.0087890625
0.017578125
0.0032958984375
-0.006591796875
-0.0010986328125
-0.00439453125
0.0010986328125
0.0
-0.021240234375
0.208770751953125
-0.0234375
0.037353515625
0.035888671875
-0.229278564453125
0.01171875
-0.0377197265625
0.0040283203125
-0.0040283203125
-0.0084228515625
0.0120849609375
-0.0029296875
0.0091552734375
-0.0003662109375
0.010986328125
-0.00146484375
0.0128173828125
0.0098876953125
-0.0040283203125
-0.00146484375
-0.005859375
0.0091552734375
-0.0179443359375
-0.008056640625
0.0025634765625
0.0018310546875
-0.00439453125
-0.0032958984375
0.00146484375
0.0003662109375
-0.0003662109375
0.006591796875
-0.00439453125
-0.0040283203125
0.00439453125
0.0076904296875
-0.005859375
-0.0076904296875
0.008056640625
0.002197265625
-0.0029296875
-0.009521484375
0.0106201171875
0.000732421875
0.009521484375
0.0032958984375
-0.002197265625
-0.0003662109375
-0.0076904296875
0.0091552734375
-0.0087890625
-0.02783203125
0.185699462890625
-0.0135498046875
0.029296875
0.01171875
-0.182769775390625
0.0216064453125
-0.0487060546875
-0.000732421875
0.002197265625
-0.0010986328125
0.0054931640625
0.0032958984375
0.0062255859375
-0.0029296875
0.0157470703125
0.01025390625
0.0062255859375
-0.005859375
0.0120849609375
0.003662109375
-0.0146484375
-0.0076904296875
-0.01025390625
0.0010986328125
-0.0087890625
0.0003662109375
-0.0029296875
-0.00146484375
-0.000732421875
0.008056640625
-0.006591796875
-0.00439453125
0.0054931640625
0.008056640625
-0.00439453125
-0.0084228515625
0.008056640625
0.0018310546875
-0.00146484375
-0.00439453125
0.0029296875
-0.0029296875
0.0076904296875
0.0047607421875
0.0054931640625
0.0003662109375
-0.0018310546875
0.0106201171875
-0.012451171875
-0.002197265625
0.002197265625
-0.027099609375
0.255279541015625
-0.022705078125
0.02490234375
0.0325927734375
-0.268829345703125
0.010986328125
-0.022705078125
-0.002197265625
0.0029296875
0.006591796875
0.0003662109375
-0.0054931640625
0.015380859375
0.0091552734375
0.0076904296875
-0.0054931640625
0.021240234375
0.002197265625
0.0032958984375
-0.0054931640625
-0.0120849609375
0.000732421875
-0.0230712890625
0.0062255859375
-0.0120849609375
-0.0010986328125
-0.000732421875
0.0091552734375
-0.0084228515625
-0.0062255859375
0.005126953125
0.0069580078125
-0.0032958984375
-0.006591796875
0.0069580078125
0.0
-0.000732421875
-0.000732421875
0.0025634765625
-0.0032958984375
0.0018310546875
0.005859375
0.0029296875
-0.0010986328125
0.005126953125
0.01025390625
-0.0146484375
-0.0087890625
0.0069580078125
-0.013916015625
0.0999755859375
-0.0263671875
0.1058349609375
0.015380859375
-0.1087646484375
0.0263671875
-0.1138916015625
0.0
-0.0003662109375
0.0087890625
-0.0032958984375
-0.009521484375
0.0135498046875
0.0029296875
0.00439453125
-0.009521484375
0.0186767578125
0.0018310546875
0.0040283203125
0.0025634765625
-0.0032958984375
0.00146484375
-0.00732421875
0.0084228515625
-0.012451171875
-0.0040283203125
0.002197265625
0.008056640625
-0.00732421875
-0.0087890625
0.0062255859375
0.002197265625
-0.002197265625
-0.005126953125
0.00732421875
0.000732421875
0.00439453125
0.0029296875
-0.000732421875
-0.0040283203125
0.0003662109375
0.008056640625
-0.000732421875
-0.0062255859375
0.0150146484375
0.0076904296875
-0.0087890625
-0.005859375
0.0010986328125
0.005859375
-0.00439453125
-0.02197265625
0.292266845703125
-0.0172119140625
0.0186767578125
0.027099609375
-0.306549072265625
0.008056640625
-0.022705078125
0.0091552734375
-0.0047607421875
-0.009521484375
0.0135498046875
-0.0003662109375
0.0069580078125
-0.0069580078125
0.018310546875
0.0
0.01025390625
0.0047607421875
-0.0047607421875
0.0010986328125
-0.01025390625
0.009521484375
-0.01611328125
-0.005859375
0.0003662109375
0.005859375
-0.0069580078125
-0.009521484375
0.005126953125
-0.0003662109375
-0.0025634765625
-0.0018310546875
0.00439453125
-0.000732421875
0.0010986328125
0.006591796875
-0.0040283203125
-0.005126953125
0.0040283203125
0.005859375
-0.003662109375
-0.0084228515625
0.0179443359375
0.0040283203125
-0.0047607421875
-0.0054931640625
-0.0018310546875
0.0010986328125
-0.0010986328125
-0.022705078125
0.206207275390625
-0.0234375
0.0362548828125
0.0322265625
-0.225616455078125
0.015380859375
-0.0399169921875
0.008056640625
-0.0040283203125
-0.01025390625
0.0128173828125
-0.0010986328125
0.0091552734375
-0.0029296875
0.0164794921875
0.000732421875
0.01318359375
0.0084228515625
-0.0018310546875
-0.003662109375
-0.010986328125
0.0084228515625
-0.027099609375
-0.006591796875
-0.002197265625
0.00439453125
-0.0054931640625
-0.005126953125
0.0018310546875
0.000732421875
-0.00146484375
0.0025634765625
0.0
-0.0018310546875
0.002197265625
0.0084228515625
-0.0047607421875
-0.0062255859375
0.005126953125
0.00439453125
-0.008056640625
-0.0091552734375
0.015380859375
0.003662109375
0.0003662109375
0.0003662109375
-0.0069580078125
0.0003662109375
-0.000732421875
-0.01025390625
0.10400390625
-0.0216064453125
0.054931640625
0.02490234375
-0.12158203125
0.012451171875
-0.0545654296875
0.0040283203125
-0.002197265625
-0.0091552734375
0.0128173828125
-0.0018310546875
0.0091552734375
0.0010986328125
0.012451171875
0.0010986328125
0.017578125
0.0106201171875
0.00439453125
-0.009521484375
-0.003662109375
0.0032958984375
-0.0260009765625
-0.0091552734375
-0.005126953125
-0.0003662109375
-0.00439453125
-0.0029296875
0.0029296875
0.0003662109375
0.0
0.0032958984375
-0.000732421875
-0.0032958984375
0.0025634765625
0.0098876953125
-0.0084228515625
-0.01025390625
0.01025390625
0.0054931640625
-0.0062255859375
-0.0091552734375
0.016845703125
0.005126953125
0.0
0.005859375
-0.009521484375
-0.0054931640625
0.005859375
-0.006591796875
0.099609375
-0.0260009765625
0.085693359375
0.0234375
-0.12158203125
0.0135498046875
-0.0853271484375
0.0025634765625
-0.0025634765625
-0.005859375
0.009521484375
-0.0032958984375
0.0087890625
0.0040283203125
0.0032958984375
-0.0040283203125
0.010986328125
0.009521484375
-0.0010986328125
-0.0062255859375
0.0054931640625
0.005126953125
-0.0084228515625
-0.0069580078125
0.002197265625
0.0
-0.0032958984375
0.0010986328125
-0.00146484375
-0.0010986328125
-0.0010986328125
0.008056640625
-0.00732421875
-0.005126953125
0.006591796875
0.00732421875
-0.0025634765625
-0.0098876953125
0.01025390625
-0.00146484375
-0.0047607421875
-0.00439453125
0.009521484375
0.0040283203125
0.00439453125
0.0091552734375
-0.0128173828125
-0.0010986328125
-0.000732421875
-0.0003662109375
0.03955078125
-0.009521484375
0.236602783203125
0.0120849609375
-0.0545654296875
-0.005126953125
-0.234405517578125
0.0025634765625
-0.00732421875
-0.000732421875
0.0032958984375
-0.0032958984375
0.0098876953125
0.006591796875
0.002197265625
-0.005126953125
0.013916015625
0.0091552734375
0.0018310546875
-0.0047607421875
0.0040283203125
0.0062255859375
-0.012451171875
-0.0032958984375
-0.002197265625
-0.00146484375
-0.003662109375
0.0040283203125
-0.005126953125
-0.0025634765625
-0.000732421875
0.0087890625
-0.01025390625
-0.0087890625
0.0098876953125
0.0076904296875
-0.0025634765625
-0.009521484375
0.0106201171875
-0.0032958984375
-0.0010986328125
0.0010986328125
0.005126953125
-0.0003662109375
0.0098876953125
0.01171875
-0.01318359375
-0.0032958984375
-0.00146484375
0.010986328125
-0.0062255859375
-0.0274658203125
0.300323486328125
-0.005859375
0.0025634765625
0.009521484375
-0.296661376953125
0.0054931640625
-0.0179443359375
0.005126953125
-0.0010986328125
-0.0091552734375
0.0106201171875
0.005859375
0.0010986328125
-0.0120849609375
0.021240234375
0.005859375
0.0069580078125
-0.00439453125
0.005859375
0.0003662109375
-0.013916015625
-0.0003662109375
-0.0113525390625
-0.00146484375
-0.005126953125
0.0084228515625
-0.0087890625
-0.0047607421875
0.0025634765625
0.0069580078125
-0.0076904296875
-0.0087890625
0.0084228515625
0.00146484375
-0.000732421875
-0.0029296875
0.0062255859375
-0.00146484375
-0.00146484375
0.000732421875
0.0029296875
-0.000732421875
0.0087890625
0.01318359375
-0.0135498046875
-0.005126953125
0.00146484375
0.006591796875
-0.000732421875
-0.030029296875
0.282012939453125
-0.0069580078125
0.0010986328125
0.0238037109375
-0.281646728515625
0.0062255859375
-0.0128173828125
0.0084228515625
-0.0040283203125
-0.0047607421875
0.01171875
0.0062255859375
0.0047607421875
-0.0069580078125
0.0216064453125
0.0054931640625
0.0113525390625
-0.005859375
0.005126953125
-0.0040283203125
-0.0179443359375
0.003662109375
-0.021240234375
-0.0018310546875
-0.0040283203125
0.0084228515625
-0.0091552734375
-0.00732421875
0.0047607421875
0.0047607421875
-0.0040283203125
-0.00732421875
0.0084228515625
0.0010986328125
-0.0003662109375
-0.000732421875
0.002197265625
-0.0025634765625
-0.0003662109375
0.0062255859375
0.0
-0.0029296875
0.010986328125
0.0113525390625
-0.012451171875
-0.005126953125
0.0032958984375
0.003662109375
0.0018310546875
-0.0325927734375
0.287872314453125
-0.005859375
0.0032958984375
0.0311279296875
-0.294464111328125
0.003662109375
-0.01318359375
0.009521484375
-0.0040283203125
-0.0087890625
0.013916015625
0.00146484375
0.005126953125
-0.0087890625
0.016845703125
0.0029296875
0.0069580078125
0.0010986328125
0.00146484375
0.0018310546875
-0.008056640625
0.0076904296875
-0.015380859375
-0.0047607421875
0.0003662109375
0.009521484375
-0.008056640625
-0.00732421875
0.0054931640625
0.002197265625
-0.0025634765625
-0.0047607421875
0.005859375
0.0003662109375
0.0
0.0032958984375
-0.0029296875
-0.0032958984375
0.0010986328125
0.0076904296875
-0.00146484375
-0.00439453125
0.01318359375
0.0069580078125
-0.01025390625
-0.0076904296875
0.0
0.00439453125
-0.0029296875
-0.02490234375
0.266632080078125
-0.0205078125
0.029296875
0.0296630859375
-0.280914306640625
0.012451171875
-0.03515625
0.0084228515625
-0.005859375
-0.0087890625
0.0120849609375
-0.000732421875
0.0062255859375
-0.0076904296875
0.0164794921875
-0.0003662109375
0.0113525390625
0.0047607421875
-0.002197265625
0.002197265625
-0.010986328125
0.0106201171875
-0.0164794921875
-0.00732421875
0.0018310546875
0.00146484375
-0.005126953125
-0.01025390625
0.005126953125
-0.000732421875
-0.0025634765625
-0.00146484375
0.0029296875
-0.0010986328125
0.002197265625
0.00732421875
-0.0032958984375
-0.0047607421875
0.0047607421875
0.0032958984375
0.000732421875
-0.00732421875
0.0172119140625
0.005859375
-0.0062255859375
-0.0025634765625
-0.0029296875
0.0032958984375
-0.0003662109375
-0.0186767578125
0.211334228515625
-0.021240234375
0.0325927734375
0.028564453125
-0.227813720703125
0.010986328125
-0.0347900390625
0.006591796875
-0.003662109375
-0.006591796875
0.0135498046875
-0.000732421875
0.0106201171875
-0.002197265625
0.015380859375
0.0025634765625
0.0146484375
0.009521484375
-0.003662109375
-0.0047607421875
-0.010986328125
0.00439453125
-0.0194091796875
-0.0087890625
0.000732421875
0.00439453125
-0.00439453125
-0.0032958984375
0.0010986328125
-0.00146484375
-0.0018310546875
0.0025634765625
-0.00146484375
-0.0010986328125
0.00146484375
0.00732421875
-0.0047607421875
-0.0069580078125
0.00439453125
0.0032958984375
0.0010986328125
-0.0069580078125
0.013916015625
0.0040283203125
-0.0054931640625
0.00146484375
-0.0054931640625
0.0032958984375
-0.00439453125
-0.015380859375
0.245391845703125
-0.0179443359375
0.0201416015625
0.0281982421875
-0.262237548828125
0.0047607421875
-0.0135498046875
0.003662109375
0.0025634765625
-0.0062255859375
0.012451171875
-0.000732421875
0.0091552734375
0.00439453125
0.0150146484375
0.0010986328125
0.0157470703125
0.0076904296875
-0.006591796875
-0.0087890625
-0.012451171875
0.0025634765625
-0.02197265625
-0.006591796875
0.000732421875
0.003662109375
-0.0040283203125
0.0
-0.0003662109375
0.0003662109375
-0.0018310546875
0.0076904296875
-0.0040283203125
-0.00146484375
0.0029296875
0.0084228515625
-0.00732421875
-0.0091552734375
0.0087890625
0.00146484375
0.0076904296875
-0.0025634765625
0.008056640625
0.0032958984375
-0.0062255859375
0.003662109375
-0.0010986328125
-0.017578125
0.1116943359375
-0.012451171875
0.0509033203125
0.0084228515625
-0.1087646484375
0.025634765625
-0.06884765625
-0.005126953125
0.0047607421875
-0.000732421875
0.0040283203125
-0.00439453125
0.0128173828125
-0.0018310546875
0.01171875
0.006591796875
0.005859375
-0.0010986328125
0.00732421875
0.0098876953125
-0.0150146484375
-0.005859375
-0.0069580078125
0.003662109375
-0.009521484375
-0.0040283203125
0.0025634765625
0.0018310546875
-0.0032958984375
0.0032958984375
-0.0040283203125
-0.000732421875
0.0
0.009521484375
-0.005859375
-0.005126953125
0.005126953125
0.0032958984375
-0.0054931640625
-0.01171875
0.0113525390625
0.0010986328125
0.008056640625
0.0003662109375
-0.0003662109375
-0.0010986328125
-0.0084228515625
0.0054931640625
-0.0029296875
-0.0289306640625
0.185699462890625
-0.015380859375
0.0413818359375
0.0142822265625
-0.181304931640625
0.024169921875
-0.0615234375
-0.0032958984375
0.00439453125
-0.0003662109375
0.0047607421875
0.0003662109375
0.005859375
-0.0032958984375
0.010986328125
0.0084228515625
0.0029296875
-0.0040283203125
0.005859375
0.00732421875
-0.0135498046875
-0.005859375
-0.0029296875
0.00146484375
-0.005126953125
-0.002197265625
0.00146484375
-0.002197265625
-0.0003662109375
0.005126953125
-0.006591796875
-0.003662109375
0.002197265625
0.0069580078125
-0.005126953125
-0.0087890625
0.0091552734375
0.0
-0.00146484375
-0.00732421875
0.01025390625
0.0
0.009521484375
0.005126953125
-0.006591796875
-0.0003662109375
-0.006591796875
0.01025390625
-0.0076904296875
-0.03076171875
0.226348876953125
-0.013916015625
0.0274658203125
0.017578125
-0.223052978515625
0.017578125
-0.0406494140625
-0.000732421875
0.002197265625
-0.0018310546875
0.006591796875
0.00439453125
0.0047607421875
-0.0040283203125
0.0164794921875
0.0091552734375
0.0069580078125
-0.0047607421875
0.0062255859375
0.0018310546875
-0.015380859375
-0.0069580078125
-0.009521484375
-0.0010986328125
-0.00732421875
0.002197265625
-0.00439453125
-0.0010986328125
0.000732421875
0.009521484375
-0.0087890625
-0.005859375
0.00439453125
0.0032958984375
-0.0010986328125
-0.0084228515625
0.0076904296875
-0.0010986328125
-0.0032958984375
-0.0040283203125
0.0098876953125
0.0
0.00732421875
0.009521484375
-0.012451171875
-0.0018310546875
-0.0003662109375
0.0032958984375
0.0113525390625
-0.01611328125
0.235137939453125
0.003662109375
-0.021240234375
0.0040283203125
-0.232208251953125
0.0040283203125
-0.0076904296875
0.002197265625
0.00146484375
-0.003662109375
0.0113525390625
0.009521484375
0.0047607421875
-0.0025634765625
0.0186767578125
0.00732421875
0.0076904296875
-0.0106201171875
0.0029296875
-0.0047607421875
-0.02197265625
-0.0018310546875
-0.0146484375
-0.0003662109375
-0.0029296875
0.0062255859375
-0.0076904296875
-0.00439453125
0.0018310546875
0.008056640625
-0.005126953125
-0.0069580078125
0.0076904296875
0.002197265625
0.0
-0.006591796875
0.00439453125
-0.0029296875
0.005859375
0.0032958984375
0.00732421875
0.000732421875
-0.003662109375
0.009521484375
-0.01318359375
-0.0029296875
0.0054931640625
-0.02783203125
0.234771728515625
-0.0245361328125
0.0322265625
0.03369140625
-0.247589111328125
0.013916015625
-0.0333251953125
0.0
0.0025634765625
0.005126953125
0.0029296875
-0.006591796875
0.0135498046875
0.006591796875
0.005859375
-0.006591796875
0.016845703125
0.0029296875
0.0
-0.0054931640625
-0.005126953125
0.0003662109375
-0.01171875
0.0040283203125
-0.0047607421875
-0.002197265625
0.0003662109375
0.0087890625
-0.009521484375
-0.006591796875
0.005859375
0.0047607421875
-0.0032958984375
-0.0076904296875
0.006591796875
-0.0010986328125
-0.000732421875
-0.0029296875
0.0040283203125
0.0
0.0098876953125
0.0098876953125
-0.005859375
-0.0025634765625
-0.00439453125
0.008056640625
-0.005859375
-0.0333251953125
0.1728515625
-0.021240234375
0.05859375
0.01904296875
-0.1695556640625
0.024169921875
-0.0743408203125
0.005859375
-0.00439453125
-0.003662109375
0.0084228515625
0.0069580078125
0.0010986328125
-0.0087890625
0.0150146484375
0.0032958984375
0.005859375
-0.0054931640625
0.008056640625
0.0040283203125
-0.0084228515625
0.0025634765625
-0.006591796875
-0.0003662109375
-0.0025634765625
0.00732421875
-0.0069580078125
-0.003662109375
0.002197265625
0.006591796875
-0.0069580078125
-0.0087890625
0.0062255859375
0.00146484375
-0.0010986328125
-0.0047607421875
0.00732421875
-0.0010986328125
-0.0018310546875
0.0018310546875
0.0040283203125
-0.0025634765625
0.010986328125
0.01171875
-0.0128173828125
-0.0054931640625
0.0010986328125
0.0069580078125
-0.0040283203125
-0.0296630859375
0.309112548828125
-0.01171875
0.008056640625
0.021240234375
-0.312408447265625
0.0091552734375
-0.0205078125
0.006591796875
-0.002197265625
-0.0069580078125
0.012451171875
0.0087890625
0.002197265625
-0.0106201171875
0.022705078125
0.006591796875
0.0040283203125
-0.0032958984375
0.00146484375
0.0
-0.01171875
0.0047607421875
-0.012451171875
-0.005859375
0.0018310546875
0.01025390625
-0.009521484375
-0.009521484375
0.0062255859375
0.00439453125
-0.005859375
-0.0054931640625
0.005859375
0.0003662109375
0.0003662109375
-0.000732421875
0.0018310546875
-0.0029296875
0.0
0.00732421875
0.0029296875
-0.0025634765625
0.0076904296875
0.008056640625
-0.013916015625
-0.0069580078125
0.0047607421875
-0.0128173828125
0.0758056640625
-0.0142822265625
0.1380615234375
0.01171875
-0.084228515625
0.013916015625
-0.148681640625
0.0
0.0003662109375
0.00732421875
0.0003662109375
-0.0087890625
0.0142822265625
0.0040283203125
0.009521484375
-0.0054931640625
0.0223388671875
0.0029296875
0.0069580078125
-0.000732421875
-0.009521484375
-0.003662109375
-0.0186767578125
0.0076904296875
-0.015380859375
-0.005126953125
0.0025634765625
0.006591796875
-0.0087890625
-0.00732421875
0.00439453125
0.0018310546875
-0.0018310546875
-0.00439453125
0.0054931640625
-0.0003662109375
0.00146484375
0.0025634765625
-0.0047607421875
-0.0054931640625
0.01025390625
0.0098876953125
0.000732421875
-0.003662109375
-0.000732421875
0.005126953125
-0.00732421875
-0.0076904296875
0.015380859375
-0.0216064453125
0.262969970703125
-0.003662109375
-0.003662109375
0.0205078125
-0.269927978515625
0.013916015625
-0.0179443359375
-0.00439453125
0.008056640625
0.005126953125
0.0040283203125
-0.0091552734375
0.019775390625
0.003662109375
0.01318359375
0.0010986328125
0.0157470703125
-0.002197265625
-0.0029296875
0.0
-0.0234375
-0.0040283203125
-0.0142822265625
0.006591796875
-0.010986328125
-0.0091552734375
0.005859375
0.002197265625
-0.0029296875
-0.0091552734375
0.0084228515625
0.0003662109375
0.0010986328125
0.0010986328125
0.00146484375
-0.0032958984375
0.0010986328125
0.006591796875
-0.0018310546875
-0.0040283203125
0.0128173828125
0.0087890625
-0.009521484375
-0.006591796875
0.000732421875
0.00439453125
-0.0003662109375
-0.032958984375
0.230010986328125
-0.0157470703125
0.0267333984375
0.0362548828125
-0.239532470703125
0.0142822265625
-0.03662109375
0.0113525390625
-0.00732421875
-0.0084228515625
0.012451171875
0.0003662109375
0.006591796875
-0.0076904296875
0.0157470703125
0.0029296875
0.0069580078125
0.00439453125
0.0
0.0003662109375
-0.0069580078125
0.009521484375
-0.0142822265625
-0.0047607421875
0.0
0.005859375
-0.0069580078125
-0.0084228515625
0.00732421875
0.00146484375
-0.0025634765625
-0.0032958984375
0.0025634765625
-0.000732421875
0.00146484375
0.00439453125
-0.002197265625
-0.005859375
0.00146484375
0.008056640625
0.000732421875
-0.0054931640625
0.01171875
0.005859375
-0.0113525390625
-0.005859375
0.00439453125
-0.0150146484375
0.07470703125
-0.0135498046875
0.186798095703125
0.0098876953125
-0.0787353515625
0.0234375
-0.206207275390625
-0.0025634765625
0.0010986328125
0.0054931640625
0.0
-0.0106201171875
0.0157470703125
-0.0010986328125
0.01025390625
-0.0029296875
0.015380859375
0.000732421875
0.0047607421875
0.0091552734375
-0.0128173828125
-0.000732421875
-0.0076904296875
0.0084228515625
-0.0113525390625
-0.009521484375
0.00439453125
0.00146484375
-0.003662109375
-0.0062255859375
0.005859375
0.0003662109375
-0.002197265625
0.002197265625
-0.0010986328125
-0.0018310546875
0.00439453125
0.006591796875
-0.0062255859375
-0.0084228515625
0.01171875
0.005859375
0.00439453125
-0.005126953125
0.0029296875
0.0029296875
-0.008056640625
0.0029296875
-0.00146484375
-0.0223388671875
0.267730712890625
-0.012451171875
0.019775390625
0.017578125
-0.273956298828125
0.0230712890625
-0.040283203125
-0.0069580078125
0.0087890625
0.000732421875
0.0062255859375
-0.0076904296875
0.0157470703125
-0.000732421875
0.01318359375
0.003662109375
0.01025390625
0.0010986328125
-0.0003662109375
0.01025390625
-0.019775390625
-0.0069580078125
-0.005126953125
0.00439453125
-0.0091552734375
-0.008056640625
0.005859375
0.000732421875
-0.00146484375
-0.002197265625
0.0010986328125
-0.000732421875
0.00146484375
0.0069580078125
-0.0018310546875
-0.005126953125
0.0054931640625
0.0047607421875
-0.0091552734375
-0.009521484375
0.0146484375
0.0047607421875
0.0047607421875
-0.0018310546875
-0.002197265625
0.0003662109375
-0.0025634765625
-0.0069580078125
0.0428466796875
-0.00439453125
0.186798095703125
0.016845703125
-0.05419921875
-0.0032958984375
-0.187530517578125
0.006591796875
-0.005126953125
-0.0087890625
0.013916015625
-0.0003662109375
0.0098876953125
0.0003662109375
0.0172119140625
0.002197265625
0.0164794921875
0.010986328125
0.00439453125
-0.00732421875
-0.0025634765625
0.0032958984375
-0.0245361328125
-0.0069580078125
-0.002197265625
0.0018310546875
-0.0029296875
-0.0054931640625
0.0032958984375
0.0
0.0003662109375
0.0032958984375
-0.00146484375
-0.0029296875
0.0032958984375
0.0091552734375
-0.0040283203125
-0.0084228515625
0.0054931640625
0.0018310546875
0.0047607421875
-0.0062255859375
0.015380859375
0.00439453125
-0.0062255859375
0.000732421875
0.0
-0.00439453125
0.01318359375
-0.0186767578125
0.257843017578125
-0.005126953125
-0.00439453125
0.0347900390625
-0.277618408203125
-0.003662109375
-0.000732421875
0.00146484375
0.0040283203125
-0.005859375
0.0135498046875
-0.00146484375
0.01171875
0.005859375
0.012451171875
0.0
0.0120849609375
0.0076904296875
-0.0120849609375
-0.0084228515625
-0.0087890625
0.00439453125
-0.0157470703125
-0.00732421875
0.003662109375
0.0
-0.000732421875
-0.0003662109375
-0.0010986328125
-0.00146484375
0.0010986328125
0.008056640625
-0.0032958984375
-0.0047607421875
0.00439453125
0.0047607421875
-0.00732421875
-0.01025390625
0.0120849609375
0.00146484375
0.0087890625
-0.00146484375
0.000732421875
0.0018310546875
-0.00732421875
0.005859375
-0.002197265625
-0.03515625
0.233306884765625
-0.009521484375
0.03076171875
0.02490234375
-0.233306884765625
0.0216064453125
-0.0523681640625
-0.0062255859375
0.0062255859375
-0.0018310546875
0.0062255859375
-0.0032958984375
0.0098876953125
-0.0040283203125
0.01025390625
0.008056640625
0.0018310546875
-0.002197265625
0.0047607421875
0.0106201171875
-0.0135498046875
-0.005126953125
0.000732421875
0.00146484375
-0.003662109375
-0.0040283203125
0.002197265625
0.0
-0.002197265625
0.005126953125
-0.005126953125
-0.0029296875
0.000732421875
0.008056640625
-0.006591796875
-0.008056640625
0.009521484375
0.0
-0.00439453125
-0.0091552734375
0.01318359375
0.002197265625
0.00732421875
0.003662109375
-0.00732421875
0.0003662109375
-0.0047607421875
0.0025634765625
0.019775390625
-0.0142822265625
0.267730712890625
0.009521484375
-0.0340576171875
0.0018310546875
-0.266998291015625
0.005126953125
-0.009521484375
-0.003662109375
0.0069580078125
-0.002197265625
0.0076904296875
0.0032958984375
0.0076904296875
-0.00439453125
0.0150146484375
0.009521484375
-0.0018310546875
-0.0047607421875
-0.0003662109375
0.005859375
-0.0157470703125
-0.005859375
-0.00146484375
-0.0010986328125
-0.0018310546875
0.0003662109375
-0.000732421875
-0.0018310546875
0.0
0.0084228515625
-0.0091552734375
-0.00439453125
0.0040283203125
0.0062255859375
-0.0040283203125
-0.01025390625
0.0069580078125
-0.00146484375
0.0040283203125
-0.0025634765625
0.012451171875
0.0025634765625
-0.003662109375
0.00732421875
-0.0128173828125
-0.0010986328125
0.0010986328125
-0.0194091796875
0.224151611328125
-0.0263671875
0.037353515625
0.03076171875
-0.243194580078125
0.010986328125
-0.03515625
0.0010986328125
0.00146484375
0.000732421875
0.00732421875
-0.0032958984375
0.012451171875
0.0098876953125
0.006591796875
-0.0032958984375
0.0186767578125
0.0062255859375
-0.0025634765625
-0.0098876953125
-0.008056640625
-0.0003662109375
-0.0150146484375
-0.002197265625
-0.002197265625
-0.00146484375
-0.000732421875
0.005126953125
-0.0047607421875
-0.0032958984375
0.0010986328125
0.0084228515625
-0.0047607421875
-0.0069580078125
0.0091552734375
0.002197265625
-0.002197265625
-0.0087890625
0.005859375
-0.000732421875
0.0084228515625
0.0047607421875
0.0029296875
0.0
-0.0054931640625
0.009521484375
-0.0091552734375
-0.017578125
0.06005859375
-0.0054931640625
0.146881103515625
0.0029296875
-0.050537109375
0.0120849609375
-0.158966064453125
0.0
0.0010986328125
-0.00146484375
0.00732421875
0.0054931640625
0.0054931640625
-0.0032958984375
0.0164794921875
0.01171875
0.0091552734375
-0.0054931640625
0.0172119140625
-0.00146484375
-0.01171875
-0.0087890625
-0.01318359375
-0.0003662109375
-0.0098876953125
0.0010986328125
-0.0029296875
-0.0040283203125
0.000732421875
0.008056640625
-0.008056640625
-0.005859375
0.006591796875
0.005126953125
-0.003662109375
-0.009521484375
0.006591796875
-0.0018310546875
-0.002197265625
-0.0018310546875
0.01171875
0.000732421875
0.00439453125
0.009521484375
-0.0128173828125
-0.0032958984375
0.0032958984375
-0.0054931640625
0.05419921875
-0.0205078125
0.169219970703125
0.013916015625
-0.0670166015625
0.0091552734375
-0.165191650390625
0.0025634765625
-0.0029296875
0.002197265625
0.0029296875
-0.0047607421875
0.0128173828125
0.0069580078125
0.00439453125
-0.0069580078125
0.0172119140625
0.006591796875
0.002197265625
-0.005859375
0.0018310546875
0.0018310546875
-0.0113525390625
0.0010986328125
-0.0029296875
-0.000732421875
0.0003662109375
0.0062255859375
-0.0076904296875
-0.00439453125
0.003662109375
0.008056640625
-0.005126953125
-0.008056640625
0.009521484375
0.0018310546875
-0.000732421875
-0.0047607421875
0.000732421875
0.0
0.0025634765625
0.005126953125
0.0047607421875
0.0010986328125
-0.0032958984375
0.0113525390625
-0.0150146484375
-0.0010986328125
0.0003662109375
-0.0238037109375
0.299957275390625
-0.02490234375
0.0274658203125
0.0281982421875
-0.316802978515625
0.0128173828125
-0.029296875
0.0
0.000732421875
0.005859375
0.0
-0.0076904296875
0.013916015625
0.005126953125
0.003662109375
-0.0087890625
0.0150146484375
0.00439453125
-0.00439453125
0.0003662109375
-0.00732421875
0.0010986328125
-0.005859375
0.0040283203125
-0.0054931640625
-0.0025634765625
-0.0003662109375
0.008056640625
-0.0091552734375
-0.008056640625
0.0047607421875
0.003662109375
-0.0029296875
-0.0076904296875
0.0076904296875
0.0
0.0
-0.002197265625
-0.0029296875
-0.0025634765625
0.00732421875
0.0113525390625
-0.0010986328125
-0.002197265625
-0.0029296875
0.0076904296875
-0.0087890625
-0.0208740234375
0.073974609375
-0.0087890625
0.173980712890625
0.006591796875
-0.069580078125
0.0091552734375
-0.185699462890625
0.00732421875
-0.0084228515625
-0.0040283203125
0.0054931640625
0.0062255859375
0.0010986328125
-0.008056640625
0.017578125
0.0032958984375
0.01025390625
-0.005126953125
0.0098876953125
0.0025634765625
-0.0113525390625
0.0018310546875
-0.012451171875
-0.00146484375
-0.006591796875
0.0076904296875
-0.0098876953125
-0.0047607421875
0.00439453125
0.005126953125
-0.0076904296875
-0.009521484375
0.005859375
0.0
0.002197265625
-0.0047607421875
0.005859375
-0.0025634765625
-0.00146484375
0.0018310546875
0.0029296875
-0.003662109375
0.01171875
0.0113525390625
-0.010986328125
-0.0047607421875
0.0010986328125
0.0069580078125
-0.006591796875
-0.03369140625
0.284576416015625
-0.013916015625
0.01611328125
0.0267333984375
-0.287872314453125
0.0084228515625
-0.0205078125
0.0087890625
-0.003662109375
-0.0054931640625
0.0120849609375
0.0062255859375
0.006591796875
-0.0062255859375
0.0208740234375
0.00439453125
0.01025390625
-0.0032958984375
0.0040283203125
-0.00439453125
-0.0164794921875
0.00439453125
-0.0223388671875
-0.0029296875
-0.0010986328125
0.008056640625
-0.0087890625
-0.008056640625
0.0025634765625
0.0029296875
-0.00439453125
-0.0054931640625
0.0069580078125
0.000732421875
0.0003662109375
0.0003662109375
-0.0010986328125
-0.00439453125
0.0054931640625
0.008056640625
0.0018310546875
-0.0029296875
0.0032958984375
0.008056640625
-0.0120849609375
-0.0069580078125
0.0062255859375
-0.021240234375
0.160430908203125
-0.0216064453125
0.03515625
0.0216064453125
-0.169952392578125
0.0274658203125
-0.049072265625
0.000732421875
0.0010986328125
0.0091552734375
-0.00146484375
-0.0091552734375
0.0150146484375
0.002197265625
0.0084228515625
-0.00439453125
0.016845703125
0.0029296875
0.00146484375
0.0032958984375
-0.010986328125
-0.00146484375
-0.0113525390625
0.0091552734375
-0.0135498046875
-0.006591796875
0.003662109375
0.00439453125
-0.006591796875
-0.0087890625
0.0054931640625
0.0010986328125
-0.0010986328125
-0.002197265625
0.0032958984375
-0.0025634765625
0.0010986328125
0.0032958984375
-0.005126953125
-0.003662109375
0.01025390625
0.0113525390625
-0.0029296875
-0.0054931640625
0.0010986328125
0.003662109375
-0.005859375
-0.0208740234375
0.0780029296875
-0.0186767578125
0.194488525390625
0.01611328125
-0.0816650390625
0.0164794921875
-0.204742431640625
0.010986328125
-0.0098876953125
-0.0069580078125
0.01025390625
0.0018310546875
0.0025634765625
-0.0098876953125
0.017578125
0.0
0.0098876953125
-0.000732421875
0.0054931640625
0.0032958984375
-0.0047607421875
0.01025390625
-0.0128173828125
-0.0029296875
-0.0003662109375
0.0069580078125
-0.0069580078125
-0.0087890625
0.006591796875
0.002197265625
-0.0032958984375
-0.005859375
0.0040283203125
-0.0003662109375
0.0003662109375
0.0025634765625
-0.0003662109375
-0.00439453125
0.0018310546875
0.0069580078125
-0.0018310546875
-0.0054931640625
0.015380859375
0.0069580078125
-0.0084228515625
-0.00732421875
0.0
0.0032958984375
-0.000732421875
-0.0289306640625
0.256011962890625
-0.019775390625
0.029296875
0.03515625
-0.269927978515625
0.01171875
-0.0355224609375
0.0076904296875
-0.005126953125
-0.0091552734375
0.012451171875
-0.000732421875
0.0084228515625
-0.0062255859375
0.0172119140625
0.0
0.0084228515625
0.0054931640625
-0.003662109375
0.0
-0.0087890625
0.0091552734375
-0.01611328125
-0.0062255859375
0.0025634765625
0.00439453125
-0.0054931640625
-0.0091552734375
0.0040283203125
0.0
-0.0025634765625
0.0010986328125
0.002197265625
-0.0003662109375
0.0032958984375
0.006591796875
-0.005126953125
-0.006591796875
0.002197265625
0.005859375
0.005126953125
-0.0062255859375
0.01611328125
0.0040283203125
-0.0084228515625
-0.003662109375
0.0025634765625
-0.0040283203125
0.019775390625
0.00146484375
0.254180908203125
-0.0029296875
-0.01611328125
0.009521484375
-0.272125244140625
-0.002197265625
-0.0018310546875
0.00439453125
0.0010986328125
-0.008056640625
0.0164794921875
-0.000732421875
0.012451171875
0.0
0.0150146484375
0.0010986328125
0.0098876953125
0.005859375
-0.0128173828125
-0.0069580078125
-0.0142822265625
0.0054931640625
-0.0157470703125
-0.0076904296875
0.006591796875
0.0025634765625
-0.0029296875
-0.003662109375
0.0010986328125
0.000732421875
0.0010986328125
0.0047607421875
0.0
-0.0025634765625
0.00439453125
0.005859375
-0.0047607421875
-0.009521484375
0.0135498046875
0.005126953125
0.0040283203125
-0.0010986328125
0.00146484375
0.003662109375
-0.0054931640625
0.0029296875
0.0018310546875
-0.027099609375
0.276519775390625
-0.0029296875
0.0040283203125
0.0205078125
-0.277618408203125
0.013916015625
-0.01904296875
-0.0069580078125
0.0113525390625
0.0
0.0062255859375
-0.0040283203125
0.0157470703125
0.002197265625
0.0128173828125
0.0084228515625
0.0076904296875
-0.0029296875
0.00439453125
0.0047607421875
-0.021240234375
-0.00732421875
-0.0098876953125
0.0029296875
-0.0062255859375
-0.0069580078125
0.0040283203125
0.0003662109375
-0.0018310546875
0.00146484375
0.0
-0.0010986328125
0.00146484375
0.0069580078125
-0.0040283203125
-0.005859375
0.0032958984375
0.0029296875
-0.0003662109375
-0.006591796875
0.0164794921875
0.0047607421875
-0.00439453125
-0.000732421875
-0.003662109375
0.0025634765625
0.000732421875
-0.021240234375
0.210235595703125
-0.019775390625
0.03369140625
0.0318603515625
-0.227081298828125
0.009521484375
-0.03515625
0.0040283203125
-0.002197265625
-0.0087890625
0.0128173828125
-0.0018310546875
0.01025390625
0.000732421875
0.0106201171875
0.0003662109375
0.01025390625
0.009521484375
-0.0054931640625
-0.0032958984375
-0.0062255859375
0.0054931640625
-0.0142822265625
-0.0069580078125
0.0032958984375
0.0010986328125
-0.002197265625
-0.00439453125
0.00146484375
-0.0010986328125
-0.0018310546875
0.00439453125
-0.0047607421875
-0.0032958984375
0.0029296875
0.0069580078125
-0.0054931640625
-0.0076904296875
0.0029296875
0.003662109375
0.0047607421875
-0.00439453125
0.0098876953125
0.002197265625
-0.0084228515625
0.0029296875
-0.0032958984375
-0.0142822265625
0.0714111328125
-0.0047607421875
0.172515869140625
0.0054931640625
-0.0714111328125
0.017578125
-0.193389892578125
-0.00439453125
0.002197265625
0.000732421875
0.0040283203125
-0.00439453125
0.012451171875
-0.0018310546875
0.0120849609375
0.0076904296875
0.009521484375
0.0040283203125
0.0076904296875
0.0146484375
-0.0157470703125
-0.0029296875
-0.0054931640625
0.0032958984375
-0.00732421875
-0.006591796875
0.005126953125
-0.0003662109375
0.0
0.0010986328125
-0.0025634765625
-0.00146484375
-0.0003662109375
0.0076904296875
-0.0054931640625
-0.0054931640625
0.00732421875
0.002197265625
-0.005859375
-0.0106201171875
0.0120849609375
-0.0003662109375
0.009521484375
-0.00146484375
-0.003662109375
-0.0003662109375
-0.0076904296875
0.008056640625
-0.0047607421875
-0.0205078125
0.285308837890625
-0.0062255859375
0.0025634765625
0.008056640625
-0.287139892578125
0.0098876953125
-0.02197265625
-0.0054931640625
0.00732421875
-0.002197265625
0.0062255859375
-0.0003662109375
0.008056640625
-0.0018310546875
0.0128173828125
0.01025390625
0.0010986328125
-0.0018310546875
-0.0029296875
0.005859375
-0.022705078125
-0.00732421875
-0.006591796875
-0.0003662109375
-0.0040283203125
-0.0025634765625
-0.000732421875
-0.0003662109375
-0.003662109375
0.005859375
-0.0047607421875
-0.003662109375
0.0018310546875
0.00732421875
-0.0069580078125
-0.0084228515625
0.0076904296875
-0.0018310546875
-0.00146484375
-0.005859375
0.0142822265625
0.0040283203125
0.0018310546875
0.00439453125
-0.012451171875
-0.002197265625
-0.0003662109375
-0.00732421875
0.1029052734375
-0.0252685546875
0.0560302734375
0.018310546875
-0.1182861328125
0.01318359375
-0.0545654296875
0.0029296875
-0.0003662109375
-0.0025634765625
0.0098876953125
-0.0018310546875
0.01025390625
0.00732421875
0.008056640625
-0.000732421875
0.016845703125
0.0091552734375
-0.000732421875
-0.0098876953125
-0.0062255859375
-0.0018310546875
-0.0205078125
-0.005126953125
-0.003662109375
0.0
-0.0025634765625
0.0025634765625
-0.0047607421875
-0.0010986328125
-0.0003662109375
0.0087890625
-0.005859375
-0.0054931640625
0.0062255859375
0.0025634765625
-0.003662109375
-0.0098876953125
0.008056640625
0.0
0.0087890625
0.00146484375
0.00146484375
0.0010986328125
-0.00732421875
0.006591796875
-0.0054931640625
-0.0186767578125
0.0985107421875
-0.010986328125
0.0699462890625
0.0062255859375
-0.0941162109375
0.0186767578125
-0.085693359375
-0.0032958984375
0.002197265625
-0.000732421875
0.005859375
0.0010986328125
0.0084228515625
-0.0029296875
0.01171875
0.0087890625
0.0040283203125
-0.0032958984375
0.0091552734375
0.005859375
-0.0128173828125
-0.0047607421875
-0.0076904296875
0.00146484375
-0.008056640625
-0.0010986328125
-0.0010986328125
-0.0040283203125
-0.0003662109375
0.00146484375
-0.0062255859375
-0.00732421875
0.00146484375
0.0054931640625
-0.005126953125
-0.005126953125
0.0087890625
0.000732421875
0.0
-0.0040283203125
0.0142822265625
0.00146484375
0.0113525390625
0.005859375
-0.005126953125
0.0025634765625
0.0
0.012451171875
0.0010986328125
-0.0318603515625
0.309844970703125
-0.0062255859375
0.008056640625
0.0216064453125
-0.298858642578125
0.0087890625
-0.0128173828125
-0.000732421875
0.00732421875
-0.0025634765625
0.0113525390625
0.005126953125
0.01025390625
-0.003662109375
0.019775390625
0.0029296875
0.0098876953125
-0.0076904296875
0.006591796875
0.0029296875
-0.0076904296875
-0.0025634765625
0.0003662109375
0.0
0.00146484375
0.003662109375
0.002197265625
-0.0018310546875
0.0047607421875
0.006591796875
-0.0032958984375
-0.0062255859375
0.008056640625
0.00146484375
0.005126953125
-0.0029296875
0.0054931640625
-0.0076904296875
0.005859375
-0.006591796875
0.0194091796875
0.0047607421875
0.0018310546875
0.006591796875
-0.009521484375
-0.0054931640625
0.005126953125
-0.005859375
0.074737548828125
-0.02197265625
0.089019775390625
0.008056640625
-0.081329345703125
0.0142822265625
-0.087188720703125
0.00732421875
-0.0047607421875
0.005859375
0.00146484375
-0.0029296875
0.01171875
0.008056640625
0.01025390625
-0.0025634765625
0.022705078125
0.0054931640625
0.0025634765625
-0.005859375
-0.012451171875
-0.0025634765625
-0.0216064453125
0.00146484375
-0.0098876953125
0.0032958984375
-0.0032958984375
0.0091552734375
-0.0076904296875
-0.0047607421875
0.0018310546875
0.008056640625
-0.006591796875
-0.0029296875
0.00732421875
-0.0010986328125
0.0029296875
-0.0054931640625
0.0010986328125
-0.0025634765625
0.008056640625
0.005859375
0.0029296875
0.00146484375
-0.005859375
0.009521484375
-0.0098876953125
-0.0120849609375
0.0296630859375
-0.0047607421875
0.159698486328125
-0.0054931640625
-0.01611328125
0.0040283203125
-0.164093017578125
0.008056640625
-0.00732421875
-0.0003662109375
0.00439453125
0.0018310546875
0.01025390625
-0.008056640625
0.027099609375
0.00732421875
0.0142822265625
-0.0010986328125
0.01171875
-0.0018310546875
-0.01611328125
-0.0098876953125
-0.0230712890625
-0.0069580078125
-0.005859375
0.002197265625
-0.0025634765625
0.0025634765625
-0.008056640625
0.01318359375
-0.0157470703125
-0.0040283203125
0.003662109375
0.0003662109375
0.002197265625
-0.0087890625
0.0087890625
-0.002197265625
-0.003662109375
0.0025634765625
0.0032958984375
0.003662109375
0.0032958984375
0.0120849609375
-0.0146484375
-0.0040283203125
0.00146484375
0.0003662109375
0.0040283203125
-0.03076171875
0.214630126953125
0.00146484375
-0.0091552734375
0.0234375
-0.215728759765625
0.0025634765625
-0.0069580078125
0.003662109375
0.0029296875
-0.0047607421875
0.012451171875
0.00439453125
0.0091552734375
-0.00732421875
0.025634765625
0.0018310546875
0.0098876953125
-0.0062255859375
-0.0076904296875
-0.0003662109375
-0.024169921875
0.0025634765625
-0.0135498046875
-0.0025634765625
-0.0032958984375
0.0047607421875
-0.006591796875
-0.0054931640625
0.0054931640625
0.005126953125
-0.0029296875
-0.00732421875
0.006591796875
-0.0003662109375
0.0
-0.00439453125
0.0003662109375
-0.0018310546875
0.0076904296875
0.008056640625
0.002197265625
0.000732421875
-0.0047607421875
0.0087890625
-0.0106201171875
-0.01171875
0.0281982421875
-0.009521484375
0.232574462890625
-0.003662109375
-0.0201416015625
0.0106201171875
-0.242462158203125
0.005859375
-0.0091552734375
-0.0010986328125
0.002197265625
0.0062255859375
0.000732421875
-0.0069580078125
0.01611328125
0.0025634765625
0.01171875
-0.0076904296875
0.0146484375
0.003662109375
-0.0150146484375
0.0040283203125
-0.0216064453125
0.0010986328125
-0.0076904296875
0.005126953125
-0.0032958984375
-0.0029296875
0.0032958984375
0.0069580078125
-0.0084228515625
-0.00732421875
0.0025634765625
0.0018310546875
-0.002197265625
-0.00439453125
0.0069580078125
-0.0010986328125
0.000732421875
0.000732421875
0.00439453125
-0.0010986328125
0.0113525390625
0.010986328125
-0.01171875
-0.003662109375
-0.00146484375
0.01025390625
-0.006591796875
-0.02490234375
0.255645751953125
-0.0172119140625
0.0186767578125
0.0164794921875
-0.257843017578125
0.0113525390625
-0.025634765625
0.0069580078125
-0.0040283203125
-0.00439453125
0.0106201171875
0.0054931640625
0.005859375
-0.0076904296875
0.0230712890625
0.00146484375
0.015380859375
-0.003662109375
-0.0032958984375
0.0018310546875
-0.0274658203125
0.0040283203125
-0.015380859375
-0.0018310546875
0.000732421875
0.0084228515625
-0.0084228515625
-0.0047607421875
0.0018310546875
0.003662109375
-0.0062255859375
-0.0069580078125
0.0054931640625
0.0
0.00146484375
-0.0018310546875
0.0025634765625
-0.0025634765625
0.0
0.005859375
0.0025634765625
-0.000732421875
0.0029296875
0.009521484375
-0.0172119140625
-0.00732421875
0.0040283203125
-0.0142822265625
0.105865478515625
-0.0245361328125
0.0596923828125
0.01318359375
-0.115020751953125
0.0245361328125
-0.07177734375
0.000732421875
-0.003662109375
0.0076904296875
-0.0029296875
-0.00732421875
0.015380859375
0.0040283203125
0.0120849609375
-0.005859375
0.0230712890625
0.0
-0.0010986328125
-0.000732421875
-0.0234375
-0.00146484375
-0.0201416015625
0.006591796875
-0.0120849609375
-0.0040283203125
0.000732421875
0.006591796875
-0.0087890625
-0.0069580078125
0.0025634765625
0.0010986328125
-0.0029296875
-0.00439453125
0.0040283203125
-0.019775390625
-0.0238037109375
-0.0040283203125
-0.037353515625
