-0.749725341796875
0.738006591796875
-0.749725341796875
0.738372802734375
0.0
0.0003662109375
0.036651611328125
0.0
0.067413330078125
0.0
0.059326171875
0.0
0.0355224609375
0.0
0.0596923828125
0.0
-0.0150146484375
0.0
-0.0150146484375
0.0
0.0662841796875
0.0
0.0146484375
0.0
0.031494140625
0.0
0.0498046875
0.0
0.0322265625
0.0
0.0087890625
0.0
0.00732421875
0.0
0.024169921875
0.0
0.0208740234375
0.0
0.025634765625
0.0
0.0322265625
0.0
0.035888671875
0.0
0.045806884765625
0.0
0.040313720703125
0.0
0.025634765625
0.0
0.0164794921875
0.0
0.0260009765625
0.0
0.0150146484375
0.0
0.041748046875
0.0
0.052001953125
0.0
0.0245361328125
0.0
0.035888671875
0.0
0.028564453125
0.0
0.005859375
0.0
-0.0194091796875
0.0
-0.0113525390625
0.0
0.00146484375
0.0
0.008056640625
0.0
0.01171875
0.0
0.01318359375
-0.176910400390625
0.017578125
-0.34832763671875
0.006591796875
-0.251983642578125
0.0076904296875
-0.1201171875
0.0084228515625
-0.0831298828125
0.0084228515625
-0.07177734375
0.041015625
-0.133331298828125
-0.0194091796875
0.54022216796875
-0.0113525390625
0.645355224609375
0.0494384765625
0.0
0.0208740234375
0.0
0.0289306640625
0.0
0.03955078125
-0.164459228515625
0.0234375
-0.667327880859375
0.000732421875
-0.58636474609375
-0.0003662109375
-0.0567626953125
0.006591796875
0.355255126953125
0.01171875
0.45745849609375
0.0084228515625
-0.1534423828125
0.0146484375
-0.41278076171875
0.014678955078125
-0.194854736328125
0.007354736328125
-0.081298828125
-0.0010986328125
-0.01318359375
-0.0010986328125
0.059326171875
-0.007354736328125
0.233673095703125
0.0201416015625
0.205108642578125
-0.030029296875
0.229278564453125
-0.026397705078125
0.13916015625
0.043243408203125
-0.078033447265625
0.012481689453125
0.048736572265625
0.0267333984375
-0.01025390625
0.038818359375
-0.146148681640625
0.0172119140625
-0.101806640625
-0.0084228515625
-0.03369140625
-0.009521484375
-0.01171875
0.0032958984375
-0.0128173828125
0.000732421875
-0.0135498046875
-0.000732421875
0.0032958984375
0.0003662109375
0.0252685546875
-0.0010986328125
0.311309814453125
-0.0040283203125
0.48419189453125
-0.005126953125
0.186431884765625
-0.002197265625
0.0
-0.0040283203125
0.0
0.0238037109375
0.0
-0.0223388671875
0.0
-0.009521484375
0.0003662109375
0.0399169921875
0.0
0.0040283203125
-0.0003662109375
0.0146484375
0.0
0.024169921875
0.0003662109375
0.010986328125
0.0
-0.0172119140625
0.0
-0.0142822265625
0.0
-0.003662109375
-0.234405517578125
-0.002197265625
-0.53582763671875
-0.0047607421875
-0.49188232421875
-0.0003662109375
-0.271026611328125
0.0135498046875
-0.128173828125
0.0084228515625
-0.077667236328125
0.0062255859375
-0.041412353515625
0.005126953125
-0.029296875
0.0062255859375
-0.018310546875
0.041748046875
-0.13330078125
-0.0260009765625
0.043975830078125
-0.02197265625
0.212066650390625
0.044677734375
0.315704345703125
0.012451171875
0.835418701171875
0.0150146484375
0.55413818359375
0.0164794921875
-0.0003662109375
-0.00439453125
-0.126373291015625
-0.027099609375
-0.209869384765625
-0.0194091796875
-0.243560791015625
-0.00146484375
-0.322662353515625
0.010986328125
-0.429962158203125
0.008056640625
-0.61456298828125
0.006591796875
-0.43841552734375
0.008056640625
-0.127838134765625
0.0
-0.01904296875
-0.01025390625
0.0362548828125
-0.0029296875
0.369903564453125
0.0003662109375
0.97607421875
0.0380859375
0.29705810546875
-0.0318603515625
-0.255279541015625
-0.0333251953125
-0.087921142578125
0.049072265625
-0.42193603515625
0.005859375
-0.430328369140625
0.0091552734375
-0.1951904296875
0.022705078125
-0.0303955078125
0.013916015625
0.0029296875
-0.0069580078125
0.065185546875
-0.0164794921875
0.150146484375
-0.00732421875
0.1666259765625
-0.005126953125
0.098876953125
-0.00439453125
0.036651611328125
-0.0029296875
0.00146484375
0.00146484375
-0.011749267578125
-0.000732421875
0.024200439453125
-0.00732421875
0.052764892578125
-0.002197265625
0.0615234375
-0.0040283203125
0.043212890625
0.0369873046875
-0.0838623046875
-0.0311279296875
0.0615234375
-0.0296630859375
0.166259765625
0.046142578125
0.052734375
0.0047607421875
0.148712158203125
0.0135498046875
0.153106689453125
0.019775390625
0.0098876953125
0.0018310546875
-0.0377197265625
-0.0245361328125
0.027099609375
-0.0234375
0.046142578125
-0.0120849609375
-0.0201416015625
-0.005126953125
-0.0391845703125
0.00146484375
0.0025634765625
0.0003662109375
-0.0069580078125
0.0106201171875
0.010986328125
0.002197265625
0.1995849609375
0.0003662109375
0.53472900390625
0.008056640625
0.323394775390625
0.01025390625
-0.0003662109375
0.0487060546875
0.033721923828125
-0.0303955078125
-0.172515869140625
-0.0274658203125
-0.57025146484375
0.0450439453125
-0.149444580078125
0.0084228515625
0.136962890625
0.0098876953125
-0.324493408203125
0.0205078125
-0.382354736328125
0.016845703125
-0.175048828125
-0.0025634765625
0.52557373046875
-0.0029296875
0.57391357421875
0.0062255859375
-0.212432861328125
0.0091552734375
-0.56219482421875
0.0003662109375
-0.47979736328125
-0.006591796875
-0.305084228515625
-0.005126953125
-0.1776123046875
-0.0003662109375
-0.0369873046875
-0.0084228515625
0.029296875
-0.009521484375
0.046875
-0.0010986328125
0.0926513671875
0.027099609375
-0.0150146484375
-0.057861328125
0.0596923828125
-0.0333251953125
0.1124267578125
0.0611572265625
-0.0186767578125
0.0069580078125
-0.0025634765625
0.0091552734375
0.003662109375
0.0179443359375
0.0303955078125
0.0084228515625
0.0150146484375
-0.0120849609375
0.02490234375
-0.0245361328125
0.0457763671875
-0.0135498046875
0.05126953125
-0.0106201171875
0.031494140625
-0.006591796875
0.026763916015625
-0.0010986328125
0.040313720703125
0.003662109375
0.0230712890625
0.0025634765625
0.0157470703125
-0.0098876953125
0.01318359375
-0.0047607421875
0.0201416015625
-0.005126953125
0.01904296875
0.0087890625
-0.074371337890625
-0.044677734375
0.025634765625
-0.0201416015625
0.085723876953125
0.043212890625
-0.018310546875
0.00732421875
-0.01318359375
0.012451171875
-0.00439453125
0.0150146484375
0.01318359375
0.008056640625
0.02490234375
-0.013916015625
0.0472412109375
-0.0179443359375
0.0791015625
-0.0076904296875
0.0908203125
-0.00439453125
0.099609375
0.0003662109375
0.136627197265625
-0.0084228515625
0.129669189453125
-0.003662109375
0.079833984375
0.0
0.0142822265625
-0.00439453125
-0.0205078125
-0.00439453125
-0.047607421875
-0.0025634765625
-0.054931640625
0.0029296875
-0.0721435546875
-0.0340576171875
-0.008056640625
-0.01611328125
0.0589599609375
0.0391845703125
-0.0230712890625
0.0263671875
-0.03515625
0.0087890625
-0.0076904296875
0.0146484375
0.000732421875
0.0142822265625
-0.0018310546875
-0.0054931640625
-0.0098876953125
-0.01611328125
0.0010986328125
-0.0098876953125
-0.0029296875
0.000732421875
-0.010986328125
0.0
-0.041778564453125
0.0010986328125
-0.034454345703125
0.005126953125
-0.01171875
0.0018310546875
0.0025634765625
-0.0069580078125
0.045440673828125
-0.0062255859375
0.057891845703125
0.0010986328125
0.0443115234375
0.0186767578125
-0.072540283203125
-0.05859375
0.03662109375
-0.0201416015625
0.087188720703125
0.0684814453125
-0.0296630859375
0.01171875
0.01904296875
0.008056640625
0.0443115234375
0.01904296875
0.01904296875
0.01318359375
-0.028564453125
-0.009521484375
-0.0040283203125
-0.025634765625
0.006591796875
-0.013916015625
-0.006591796875
-0.0032958984375
-0.0194091796875
0.00146484375
-0.025634765625
0.000732421875
-0.0135498046875
0.0029296875
-0.0113525390625
0.008056640625
-0.0164794921875
0.0
-0.02197265625
0.002197265625
-0.013916015625
0.002197265625
-0.0128173828125
0.0135498046875
-0.067047119140625
-0.054931640625
0.0615234375
-0.0150146484375
0.164825439453125
0.0626220703125
0.1087646484375
0.01171875
0.097412109375
0.0087890625
0.115020751953125
0.013916015625
-0.01904296875
0.0186767578125
-0.145416259765625
-0.00146484375
-0.05126953125
-0.018310546875
-0.00439453125
-0.0120849609375
-0.0234375
-0.003662109375
-0.04833984375
0.0003662109375
-0.0435791015625
-0.003662109375
-0.0347900390625
0.00146484375
-0.017578125
0.0029296875
-0.0157470703125
-0.00146484375
-0.0164794921875
-0.00439453125
-0.0040283203125
-0.002197265625
0.0054931640625
0.0047607421875
0.005859375
-0.049072265625
0.1036376953125
-0.0128173828125
0.1424560546875
0.05126953125
0.0172119140625
0.021240234375
-0.030029296875
0.0087890625
0.052734375
0.0135498046875
-0.003662109375
0.01904296875
-0.122314453125
0.000732421875
-0.08203125
-0.010986328125
-0.034423828125
-0.0062255859375
-0.017578125
-0.0010986328125
-0.0135498046875
-0.005126953125
-0.021240234375
-0.0032958984375
-0.0355224609375
-0.0029296875
-0.0274658203125
-0.002197265625
-0.029327392578125
-0.0047607421875
-0.037384033203125
-0.0098876953125
-0.0362548828125
-0.0069580078125
-0.0201416015625
-0.0106201171875
-0.027099609375
-0.0040283203125
-0.0274658203125
-0.03369140625
0.075439453125
-0.0076904296875
0.06005859375
0.025634765625
-0.046875
0.0
-0.0509033203125
0.006591796875
-0.03515625
0.002197265625
-0.022705078125
-0.008056640625
-0.0322265625
-0.021240234375
-0.04541015625
-0.0113525390625
-0.0263671875
-0.0029296875
-0.0238037109375
-0.002197265625
-0.0501708984375
0.0047607421875
-0.041015625
0.0091552734375
0.00146484375
0.01904296875
0.029296875
0.010986328125
0.0325927734375
0.00439453125
0.0384521484375
0.0018310546875
0.0347900390625
0.0
0.0142822265625
0.0142822265625
-0.0380859375
-0.0238037109375
0.0673828125
-0.002197265625
0.0966796875
0.0362548828125
-0.015380859375
0.009521484375
0.0179443359375
0.010986328125
0.0230712890625
0.0146484375
0.00439453125
-0.0010986328125
0.0087890625
-0.018310546875
0.0146484375
-0.0113525390625
0.01611328125
-0.00439453125
0.00439453125
-0.0003662109375
-0.00732421875
-0.005126953125
-0.000732421875
0.000732421875
0.015380859375
0.005126953125
0.0047607421875
0.0029296875
0.074371337890625
0.0069580078125
0.614593505859375
0.0164794921875
0.53436279296875
0.0380859375
0.0003662109375
0.0003662109375
-0.0003662109375
-0.0128173828125
-0.44207763671875
0.021240234375
-1.0
0.01318359375
-0.780120849609375
0.0029296875
0.08349609375
0.018310546875
0.040283203125
0.028564453125
-0.295928955078125
0.00146484375
-0.13623046875
-0.0194091796875
-0.005859375
-0.01904296875
0.029296875
-0.0120849609375
0.0234375
-0.0157470703125
0.052734375
-0.01171875
0.129669189453125
-0.005126953125
0.187530517578125
-0.0091552734375
0.139892578125
-0.0142822265625
-0.00146484375
-0.015380859375
-0.1043701171875
-0.00732421875
-0.0849609375
-0.0106201171875
-0.059326171875
0.0018310546875
-0.045074462890625
-0.0322265625
0.10400390625
-0.0128173828125
0.128570556640625
0.0289306640625
0.0399169921875
0.000732421875
0.07177734375
0.0054931640625
0.066650390625
0.00439453125
0.024169921875
-0.002197265625
0.0135498046875
-0.0164794921875
0.018310546875
-0.0113525390625
0.0076904296875
0.0
0.0
0.0029296875
-0.0047607421875
0.0062255859375
0.0076904296875
0.0025634765625
0.0223388671875
0.00439453125
0.0098876953125
-0.003662109375
-0.018310546875
-0.003662109375
-0.008056640625
0.0010986328125
0.006591796875
-0.000732421875
-0.003662109375
0.0260009765625
-0.076904296875
-0.0303955078125
0.060089111328125
-0.01904296875
0.133331298828125
0.03955078125
0.0029296875
0.01171875
0.0252685546875
0.0157470703125
0.0296630859375
0.01904296875
0.0205078125
0.0029296875
0.0208740234375
-0.017578125
0.0245361328125
-0.01171875
0.032958984375
-0.003662109375
0.0223388671875
-0.00146484375
0.0263671875
-0.0062255859375
0.032958984375
0.0
0.025634765625
0.002197265625
0.0120849609375
-0.0032958984375
0.0054931640625
-0.0029296875
0.00732421875
-0.002197265625
0.002197265625
0.0062255859375
-0.03076171875
-0.0443115234375
0.0296630859375
-0.0157470703125
0.072509765625
0.046875
-0.0032958984375
0.0201416015625
-0.0032958984375
0.008056640625
0.025634765625
0.01611328125
0.0142822265625
0.0216064453125
-0.0010986328125
-0.003662109375
0.00146484375
-0.0201416015625
0.01904296875
-0.015380859375
0.0135498046875
-0.005126953125
-0.0040283203125
-0.005126953125
-0.0062255859375
-0.0040283203125
-0.0010986328125
-0.0025634765625
0.013916015625
-0.00146484375
0.0029296875
-0.003662109375
-0.003662109375
-0.0087890625
-0.0029296875
-0.0032958984375
0.0032958984375
-0.0091552734375
-0.00439453125
0.0091552734375
-0.0732421875
-0.029296875
0.0498046875
-0.0150146484375
0.084228515625
0.0289306640625
-0.02490234375
0.000732421875
-0.0135498046875
0.0113525390625
-0.0179443359375
0.0069580078125
-0.009521484375
-0.0047607421875
-0.006591796875
-0.0186767578125
-0.0029296875
-0.0172119140625
-0.0003662109375
-0.003662109375
-0.0054931640625
0.0062255859375
-0.018310546875
0.0098876953125
-0.006591796875
0.005126953125
0.0172119140625
0.012451171875
0.0281982421875
0.0047607421875
0.01171875
-0.005126953125
-0.0113525390625
-0.005126953125
-0.024169921875
-0.0069580078125
-0.0296630859375
0.041015625
-0.1614990234375
-0.0380859375
0.017578125
-0.0362548828125
0.1475830078125
0.046875
-0.017578125
0.008056640625
0.01904296875
0.0106201171875
0.01611328125
0.0164794921875
0.0040283203125
0.0054931640625
0.0091552734375
-0.013916015625
0.010986328125
-0.0106201171875
0.0150146484375
-0.0047607421875
0.0029296875
-0.0010986328125
0.0
-0.0040283203125
0.0040283203125
0.00146484375
0.0054931640625
0.005126953125
0.0069580078125
-0.00146484375
0.016845703125
-0.0025634765625
0.03515625
-0.0040283203125
0.038116455078125
-0.00146484375
0.018341064453125
-0.0018310546875
-0.038848876953125
-0.0208740234375
0.0435791015625
0.0062255859375
0.044708251953125
0.040283203125
-0.0340576171875
0.0377197265625
0.0443115234375
0.050537109375
0.0941162109375
0.03955078125
0.090087890625
0.00146484375
0.1446533203125
-0.0208740234375
0.208038330078125
-0.01904296875
-0.0142822265625
-0.005126953125
-0.238800048828125
-0.0018310546875
-0.19189453125
-0.01025390625
-0.09375
-0.0084228515625
-0.0340576171875
-0.0025634765625
-0.027496337890625
-0.005859375
-0.024932861328125
-0.0150146484375
-0.0179443359375
-0.0087890625
-0.0142822265625
-0.010986328125
-0.00146484375
0.03369140625
-0.1629638671875
-0.0384521484375
0.008056640625
-0.041015625
0.1351318359375
0.041015625
-0.0355224609375
-0.0029296875
-0.0164794921875
0.005126953125
-0.0223388671875
0.00732421875
-0.0098876953125
-0.0025634765625
-0.0032958984375
-0.0205078125
-0.0003662109375
-0.02197265625
-0.0032958984375
-0.0054931640625
-0.0084228515625
-0.0018310546875
-0.0150146484375
0.0018310546875
-0.002197265625
-0.000732421875
0.0135498046875
0.005126953125
0.015380859375
0.00146484375
0.0040283203125
-0.005859375
-0.006591796875
-0.002197265625
-0.0128173828125
-0.0003662109375
-0.0087890625
0.02197265625
-0.0977783203125
-0.0443115234375
0.021240234375
-0.0194091796875
0.1138916015625
0.0494384765625
-0.01171875
0.0106201171875
0.0062255859375
0.0084228515625
0.022705078125
0.01611328125
0.017578125
0.0146484375
0.0069580078125
-0.0091552734375
0.0040283203125
-0.0164794921875
0.008056640625
-0.0069580078125
-0.0025634765625
-0.0010986328125
-0.002197265625
-0.0069580078125
0.0010986328125
-0.0047607421875
0.0040283203125
0.0040283203125
0.0047607421875
-0.0040283203125
0.0
-0.0084228515625
0.006591796875
-0.0040283203125
0.0054931640625
-0.00146484375
0.01904296875
0.0340576171875
-0.120849609375
-0.0523681640625
0.0146484375
-0.032958984375
0.1278076171875
0.0604248046875
-0.02197265625
0.0091552734375
-0.0025634765625
0.0106201171875
-0.021240234375
0.0234375
-0.019775390625
0.0146484375
-0.0142822265625
-0.0150146484375
-0.00146484375
-0.0303955078125
0.00732421875
-0.015380859375
0.0010986328125
-0.0025634765625
-0.0010986328125
-0.0032958984375
-0.0029296875
-0.002197265625
0.00439453125
-0.0018310546875
0.0128173828125
0.00146484375
0.0069580078125
-0.0029296875
-0.01025390625
-0.00146484375
-0.0047607421875
-0.002197265625
-0.000732421875
-0.0029296875
-0.04248046875
-0.0120849609375
-0.0164794921875
-0.0238037109375
0.0677490234375
0.015380859375
0.0245361328125
0.0238037109375
-0.0252685546875
0.0047607421875
0.0029296875
0.01171875
-0.0029296875
0.01611328125
-0.0164794921875
-0.000732421875
-0.00732421875
-0.0172119140625
0.0047607421875
-0.0062255859375
0.0098876953125
0.0
0.0032958984375
0.0010986328125
0.00439453125
-0.005859375
0.0076904296875
-0.0029296875
0.00439453125
0.0040283203125
-0.00439453125
-0.0025634765625
0.0025634765625
-0.005859375
0.013916015625
-0.0040283203125
0.0106201171875
-0.0032958984375
0.0128173828125
0.0377197265625
-0.120849609375
-0.0325927734375
0.021240234375
-0.03662109375
0.125244140625
0.04541015625
-0.0216064453125
0.0128173828125
-0.0076904296875
0.01611328125
-0.012451171875
0.022705078125
-0.0029296875
0.0087890625
-0.005859375
-0.0098876953125
0.0069580078125
-0.01611328125
0.0087890625
-0.009521484375
-0.0113525390625
-0.008056640625
-0.017578125
-0.0047607421875
0.0
-0.00146484375
0.0377197265625
0.000732421875
0.030029296875
-0.0029296875
0.0062255859375
-0.010986328125
0.0010986328125
-0.0025634765625
-0.008056640625
-0.0029296875
-0.009521484375
0.02197265625
-0.1387939453125
-0.0472412109375
0.003662109375
-0.027099609375
0.1146240234375
0.0487060546875
-0.0260009765625
0.0025634765625
-0.0157470703125
0.0087890625
-0.013916015625
0.010986328125
-0.0003662109375
0.005126953125
0.0120849609375
-0.01318359375
0.0245361328125
-0.019775390625
0.019775390625
-0.0076904296875
0.00439453125
-0.00146484375
-0.015380859375
0.0032958984375
-0.0216064453125
0.0
-0.01904296875
0.0040283203125
0.0
0.005126953125
0.000732421875
0.0010986328125
-0.0098876953125
-0.0032958984375
-0.0018310546875
-0.0025634765625
-0.0010986328125
0.0003662109375
-0.016845703125
-0.0120849609375
-0.0234375
-0.0164794921875
0.06298828125
0.021240234375
0.03662109375
0.0333251953125
-0.03662109375
0.0062255859375
-0.0146484375
0.0135498046875
-0.016845703125
0.0172119140625
-0.01025390625
-0.0040283203125
-0.0069580078125
-0.022705078125
0.0047607421875
-0.02197265625
0.000732421875
-0.006591796875
-0.010986328125
-0.002197265625
-0.0106201171875
-0.00146484375
0.0
0.0
0.0172119140625
0.002197265625
0.01171875
-0.0025634765625
0.0003662109375
-0.006591796875
-0.01171875
0.0025634765625
-0.0172119140625
0.0010986328125
-0.0157470703125
0.0457763671875
-0.1622314453125
-0.038818359375
0.018310546875
-0.041748046875
0.1505126953125
0.0465087890625
-0.0223388671875
0.005126953125
-0.0069580078125
0.0135498046875
-0.00732421875
0.01904296875
-0.0069580078125
0.0076904296875
0.006591796875
-0.0157470703125
0.0435791015625
-0.017578125
0.105133056640625
-0.0087890625
0.151641845703125
-0.00732421875
0.15966796875
-0.008056640625
0.11572265625
-0.0069580078125
-0.0128173828125
0.0018310546875
-0.098876953125
-0.0040283203125
-0.091552734375
-0.0047607421875
-0.0567626953125
-0.002197265625
-0.0333251953125
0.000732421875
-0.0267333984375
0.0516357421875
-0.176544189453125
-0.041015625
-0.005859375
-0.041015625
0.1336669921875
0.050537109375
-0.033355712890625
0.0091552734375
-0.02197265625
0.0098876953125
-0.0289306640625
0.01318359375
-0.0157470703125
0.0054931640625
-0.0091552734375
-0.0157470703125
-0.003662109375
-0.019775390625
0.0
-0.005859375
-0.012451171875
0.0047607421875
-0.008056640625
0.0025634765625
0.000732421875
0.0029296875
0.0087890625
0.0032958984375
0.016845703125
0.00439453125
-0.0128173828125
0.0
-0.03076171875
-0.0010986328125
-0.0296630859375
0.0040283203125
-0.0391845703125
0.002197265625
-0.075439453125
-0.0113525390625
-0.0223388671875
-0.0223388671875
0.0662841796875
0.01904296875
0.0047607421875
0.0311279296875
-0.043212890625
0.0120849609375
-0.022705078125
0.01904296875
-0.009521484375
0.015380859375
-0.003662109375
-0.0029296875
0.0106201171875
-0.018310546875
0.0146484375
-0.00439453125
0.006591796875
0.016845703125
-0.0047607421875
0.0208740234375
-0.0069580078125
0.000732421875
0.0047607421875
-0.010986328125
0.0106201171875
-0.00439453125
0.0205078125
-0.0128173828125
0.0347900390625
-0.0208740234375
0.0567626953125
-0.017578125
0.046875
-0.009521484375
0.010986328125
0.027099609375
-0.1197509765625
-0.031494140625
0.005859375
-0.024169921875
0.10400390625
0.04541015625
-0.022705078125
0.0146484375
-0.01025390625
0.01611328125
-0.0135498046875
0.03076171875
-0.009521484375
0.01904296875
-0.0032958984375
-0.01025390625
0.01025390625
-0.0179443359375
0.0142822265625
-0.0113525390625
0.000732421875
-0.0087890625
-0.0040283203125
-0.0128173828125
-0.003662109375
-0.009521484375
0.0069580078125
-0.0062255859375
0.0076904296875
-0.010986328125
0.0120849609375
-0.01611328125
0.025634765625
-0.0069580078125
0.0142822265625
-0.0032958984375
0.0260009765625
0.0157470703125
-0.0970458984375
-0.043212890625
0.0
-0.025634765625
0.09228515625
0.0501708984375
-0.037353515625
0.009521484375
-0.021240234375
0.0062255859375
-0.0084228515625
0.0135498046875
0.006591796875
0.00732421875
0.0157470703125
-0.0113525390625
0.0662841796875
-0.0223388671875
0.076934814453125
-0.0091552734375
0.032623291015625
-0.006591796875
0.0010986328125
-0.00439453125
-0.0091552734375
-0.005859375
0.05859375
-0.005859375
0.1025390625
-0.0003662109375
0.0640869140625
-0.005859375
0.0164794921875
-0.005126953125
-0.0439453125
-0.0032958984375
-0.084228515625
-0.002197265625
-0.097412109375
0.015380859375
-0.151641845703125
-0.0238037109375
-0.012481689453125
-0.00732421875
0.0465087890625
0.0391845703125
-0.052001953125
0.01318359375
-0.021240234375
0.01904296875
-0.0223388671875
0.02783203125
-0.019775390625
0.0087890625
-0.0120849609375
-0.01025390625
-0.0025634765625
-0.008056640625
0.002197265625
-0.0062255859375
-0.0054931640625
-0.0091552734375
-0.01025390625
-0.0084228515625
-0.0091552734375
0.000732421875
-0.002197265625
0.0018310546875
-0.008056640625
-0.002197265625
-0.006591796875
-0.005859375
0.0025634765625
-0.00146484375
0.0018310546875
-0.000732421875
0.010986328125
0.0465087890625
-0.1373291015625
-0.0340576171875
0.0179443359375
-0.0362548828125
0.1380615234375
0.05712890625
-0.0230712890625
0.0120849609375
-0.005859375
0.012451171875
-0.0098876953125
0.0194091796875
-0.0084228515625
0.0084228515625
-0.01171875
-0.0186767578125
0.0032958984375
-0.0263671875
0.01025390625
-0.013916015625
0.0054931640625
-0.0084228515625
0.00439453125
-0.000732421875
0.0025634765625
-0.0032958984375
0.006591796875
-0.0003662109375
0.013916015625
0.0029296875
0.0
-0.0032958984375
-0.0091552734375
-0.0010986328125
-0.005859375
-0.000732421875
-0.013916015625
0.0018310546875
-0.041015625
-0.0106201171875
-0.0106201171875
-0.0263671875
0.078369140625
0.0098876953125
0.0384521484375
0.025634765625
0.0003662109375
0.00439453125
0.02490234375
0.010986328125
-0.0087890625
0.0142822265625
-0.02490234375
-0.0047607421875
-0.01318359375
-0.01611328125
0.000732421875
-0.0087890625
0.0018310546875
0.0
-0.0047607421875
0.002197265625
-0.00732421875
-0.0018310546875
-0.0003662109375
0.01611328125
-0.0062255859375
0.041748046875
-0.0205078125
0.027099609375
0.0216064453125
-0.0479736328125
-0.01025390625
-0.054931640625
-0.028564453125
-0.0087890625
0.016845703125
-0.0003662109375
0.0040283203125
0.0084228515625
-0.0029296875
0.0157470703125
-0.0120849609375
0.0172119140625
0.0032958984375
0.0029296875
0.0263671875
-0.0040283203125
0.0245361328125
-0.0054931640625
0.01025390625
-0.0018310546875
0.0029296875
-0.0003662109375
0.0029296875
-0.0010986328125
-0.0029296875
0.0003662109375
-0.0047607421875
-0.0025634765625
-0.0029296875
0.0018310546875
0.0018310546875
-0.000732421875
0.005859375
0.005126953125
-0.000732421875
0.005859375
-0.005126953125
-0.000732421875
0.0
0.002197265625
0.000732421875
0.0018310546875
0.0010986328125
0.02490234375
-0.100341796875
-0.0523681640625
0.0120849609375
-0.02783203125
0.103271484375
0.0523681640625
-0.0172119140625
0.0076904296875
-0.01611328125
0.0113525390625
-0.019775390625
0.01611328125
-0.0172119140625
0.008056640625
-0.0157470703125
-0.01025390625
-0.0025634765625
-0.0252685546875
0.02490234375
-0.0179443359375
0.01904296875
-0.0003662109375
0.0
-0.0018310546875
0.005126953125
-0.002197265625
0.0040283203125
0.00146484375
0.00732421875
0.002197265625
0.0003662109375
-0.0003662109375
-0.00732421875
-0.0054931640625
-0.00439453125
0.0010986328125
-0.005126953125
-0.0029296875
-0.021240234375
0.0157470703125
-0.059326171875
-0.0289306640625
0.0758056640625
-0.016845703125
0.0882568359375
0.034423828125
-0.040283203125
0.0047607421875
-0.0289306640625
0.0146484375
-0.0179443359375
0.01171875
-0.009521484375
-0.005859375
0.00146484375
-0.0205078125
0.0135498046875
-0.012451171875
0.0091552734375
-0.0010986328125
0.0054931640625
-0.00146484375
0.00439453125
-0.0025634765625
0.0120849609375
-0.0018310546875
0.0113525390625
0.0054931640625
-0.00146484375
0.0003662109375
-0.0029296875
-0.002197265625
0.002197265625
-0.000732421875
0.0040283203125
-0.00146484375
0.0010986328125
0.04541015625
-0.126708984375
-0.03515625
0.018310546875
-0.0380859375
0.12890625
0.04248046875
-0.017578125
0.009521484375
-0.0010986328125
0.0172119140625
-0.0054931640625
0.022705078125
-0.0120849609375
0.0091552734375
-0.005859375
-0.013916015625
0.00732421875
-0.0113525390625
0.0113525390625
-0.00732421875
-0.00146484375
-0.0084228515625
-0.003662109375
-0.0098876953125
0.00439453125
-0.0047607421875
0.01171875
0.002197265625
0.000732421875
-0.0040283203125
-0.0098876953125
-0.0076904296875
-0.0010986328125
-0.0032958984375
0.0010986328125
0.002197265625
0.009521484375
0.03076171875
-0.1116943359375
-0.052001953125
0.006591796875
-0.02783203125
0.1065673828125
0.0618896484375
-0.0205078125
0.01611328125
-0.0032958984375
0.0135498046875
-0.0106201171875
0.018310546875
-0.010986328125
0.01025390625
-0.00732421875
-0.012451171875
0.0054931640625
-0.0274658203125
0.0194091796875
-0.0146484375
0.010986328125
-0.0025634765625
-0.0047607421875
-0.0029296875
-0.005859375
-0.0018310546875
-0.0018310546875
-0.0029296875
0.0054931640625
0.0032958984375
0.003662109375
-0.002197265625
-0.0076904296875
-0.00439453125
-0.0032958984375
-0.0025634765625
-0.0040283203125
-0.0047607421875
-0.021240234375
0.0311279296875
-0.1190185546875
-0.0318603515625
0.0450439453125
-0.0267333984375
0.1171875
0.041015625
-0.0347900390625
0.0091552734375
0.0
0.0106201171875
0.0040283203125
0.012451171875
0.003662109375
-0.00146484375
0.0098876953125
-0.018310546875
0.01171875
-0.0146484375
0.0018310546875
-0.00732421875
-0.010986328125
-0.002197265625
-0.0091552734375
-0.0040283203125
-0.0018310546875
-0.0018310546875
0.01025390625
0.003662109375
0.005126953125
0.000732421875
-0.0047607421875
-0.0032958984375
-0.0010986328125
-0.00146484375
-0.002197265625
0.000732421875
0.00732421875
0.034423828125
-0.111328125
-0.0531005859375
0.00732421875
-0.032958984375
0.111328125
0.0633544921875
-0.012451171875
0.01025390625
-0.0018310546875
0.01171875
-0.006591796875
0.019775390625
-0.0062255859375
0.0120849609375
-0.008056640625
-0.0069580078125
0.005859375
-0.01611328125
0.0128173828125
-0.006591796875
0.0054931640625
-0.00732421875
-0.0018310546875
-0.006591796875
-0.002197265625
-0.0032958984375
0.01171875
0.000732421875
0.0047607421875
0.0040283203125
-0.008056640625
-0.003662109375
-0.005859375
-0.0010986328125
0.0018310546875
0.0003662109375
0.00146484375
0.01171875
-0.0545654296875
-0.0391845703125
0.02197265625
-0.0150146484375
0.057861328125
0.0465087890625
-0.02783203125
0.013916015625
-0.013916015625
0.0120849609375
-0.010986328125
0.0135498046875
-0.018310546875
0.0113525390625
-0.010986328125
-0.01025390625
0.0054931640625
-0.02490234375
0.0194091796875
-0.013916015625
0.008056640625
-0.00439453125
-0.0029296875
0.0
0.002197265625
-0.00439453125
-0.0029296875
-0.00146484375
0.0084228515625
0.000732421875
0.0054931640625
-0.002197265625
-0.005859375
-0.003662109375
0.0047607421875
-0.0032958984375
0.01171875
-0.00439453125
0.012451171875
0.0377197265625
-0.1578369140625
-0.0399169921875
0.0172119140625
-0.041015625
0.1497802734375
0.0487060546875
-0.0318603515625
0.0087890625
-0.0098876953125
0.0113525390625
-0.0098876953125
0.0142822265625
-0.0032958984375
0.002197265625
0.000732421875
-0.0128173828125
0.012451171875
-0.0150146484375
0.0128173828125
-0.002197265625
0.003662109375
-0.0003662109375
-0.0010986328125
-0.0025634765625
0.0032958984375
-0.0003662109375
0.0069580078125
0.0047607421875
-0.0084228515625
0.0003662109375
-0.0069580078125
-0.005859375
0.00146484375
0.0
0.000732421875
-0.00146484375
0.0091552734375
0.046875
-0.13330078125
-0.049072265625
0.0142822265625
-0.0421142578125
0.139892578125
0.0574951171875
-0.0120849609375
0.0069580078125
0.009521484375
0.01318359375
0.01904296875
0.0205078125
-0.0062255859375
0.0179443359375
-0.0238037109375
-0.0087890625
0.00146484375
-0.016845703125
0.0084228515625
-0.0069580078125
-0.0029296875
-0.003662109375
-0.0062255859375
-0.0025634765625
-0.0010986328125
-0.00439453125
0.0
0.0003662109375
0.00146484375
-0.0032958984375
-0.00439453125
-0.006591796875
-0.0069580078125
-0.0040283203125
-0.0029296875
-0.0029296875
-0.0032958984375
-0.0018310546875
-0.032958984375
-0.02197265625
-0.0029296875
-0.0216064453125
0.0626220703125
0.0201416015625
-0.0025634765625
0.0267333984375
-0.041015625
0.0076904296875
-0.0135498046875
0.01171875
-0.01171875
0.01025390625
-0.00732421875
-0.005859375
0.0010986328125
-0.0194091796875
0.017578125
-0.0146484375
0.0205078125
-0.0010986328125
0.0179443359375
-0.00146484375
0.0054931640625
-0.0029296875
-0.0029296875
-0.0018310546875
0.006591796875
0.005126953125
-0.0029296875
0.000732421875
-0.0135498046875
-0.0062255859375
-0.01171875
-0.0018310546875
-0.0087890625
-0.0047607421875
0.0062255859375
0.0435791015625
-0.13330078125
-0.044677734375
0.0230712890625
-0.03955078125
0.1439208984375
0.05419921875
-0.02197265625
0.0106201171875
-0.01171875
0.013916015625
-0.012451171875
0.0146484375
-0.00439453125
0.0087890625
0.0047607421875
-0.0135498046875
0.03369140625
-0.015380859375
0.0384521484375
-0.005859375
-0.002197265625
-0.003662109375
-0.024169921875
-0.006591796875
-0.0098876953125
-0.00146484375
-0.0003662109375
0.0069580078125
0.000732421875
-0.0025634765625
0.015380859375
-0.003662109375
0.022705078125
-0.0010986328125
-0.0047607421875
-0.0018310546875
-0.010986328125
0.0322265625
-0.1358642578125
-0.046875
-0.0029296875
-0.0289306640625
0.11279296875
0.056396484375
-0.0267333984375
0.009521484375
-0.0054931640625
0.0087890625
-0.010986328125
0.0150146484375
-0.010986328125
0.0054931640625
-0.0029296875
-0.012451171875
0.0062255859375
-0.0186767578125
0.010986328125
-0.01025390625
-0.0003662109375
-0.002197265625
-0.0084228515625
-0.003662109375
-0.005859375
-0.00146484375
0.0003662109375
-0.0003662109375
0.0076904296875
0.003662109375
0.0029296875
-0.0010986328125
-0.002197265625
-0.0040283203125
0.00732421875
-0.000732421875
0.010986328125
-0.0054931640625
-0.0135498046875
0.01904296875
-0.0904541015625
-0.029296875
0.0384521484375
-0.01318359375
0.0889892578125
0.0399169921875
-0.0267333984375
0.0087890625
-0.0128173828125
0.0128173828125
-0.012451171875
0.0128173828125
-0.0076904296875
0.000732421875
0.0032958984375
-0.0179443359375
0.01171875
-0.01171875
0.01025390625
-0.003662109375
0.005859375
-0.0010986328125
0.002197265625
-0.0040283203125
0.0040283203125
0.0
0.005126953125
0.00439453125
-0.0018310546875
-0.0018310546875
-0.0054931640625
-0.0003662109375
0.0
-0.002197265625
-0.00146484375
-0.0018310546875
-0.0010986328125
0.044677734375
-0.1417236328125
-0.0384521484375
0.018310546875
-0.04248046875
0.147216796875
0.0472412109375
-0.013916015625
0.01171875
-0.0025634765625
0.012451171875
-0.0106201171875
0.019775390625
-0.006591796875
0.0069580078125
0.0
-0.01171875
0.008056640625
-0.0120849609375
0.010986328125
-0.0018310546875
-0.002197265625
-0.0018310546875
-0.006591796875
-0.008056640625
-0.002197265625
-0.0032958984375
0.009521484375
0.0029296875
0.000732421875
0.0010986328125
-0.01171875
-0.0076904296875
-0.0047607421875
-0.005126953125
-0.00146484375
-0.00439453125
0.0040283203125
0.0054931640625
-0.059326171875
-0.0406494140625
0.02490234375
-0.0186767578125
0.0794677734375
0.0439453125
-0.0164794921875
0.0120849609375
-0.01171875
0.0076904296875
-0.0084228515625
0.01171875
-0.012451171875
0.0076904296875
-0.012451171875
-0.00732421875
-0.0025634765625
-0.0223388671875
0.0087890625
-0.012451171875
0.006591796875
-0.0003662109375
-0.005859375
0.0040283203125
-0.005859375
-0.002197265625
-0.0018310546875
-0.00146484375
0.0120849609375
0.0029296875
0.015380859375
-0.0025634765625
0.01171875
-0.00439453125
0.01611328125
-0.0032958984375
0.0025634765625
-0.0025634765625
-0.0062255859375
0.0413818359375
-0.16552734375
-0.03955078125
0.01318359375
-0.0421142578125
0.153076171875
0.049072265625
-0.0245361328125
0.008056640625
0.0113525390625
0.0084228515625
0.0552978515625
0.015380859375
0.0758056640625
0.000732421875
0.089019775390625
-0.0172119140625
0.104034423828125
-0.0172119140625
0.03076171875
-0.0040283203125
-0.081298828125
-0.00146484375
-0.108062744140625
-0.005126953125
-0.063018798828125
0.0
-0.0263671875
0.003662109375
-0.024169921875
0.000732421875
-0.0201416015625
-0.00439453125
-0.0106201171875
-0.000732421875
-0.0106201171875
0.000732421875
-0.002197265625
0.050537109375
-0.1483154296875
-0.047607421875
0.0062255859375
-0.0465087890625
0.1373291015625
0.05859375
-0.015380859375
0.009521484375
-0.003662109375
0.015380859375
-0.015380859375
0.0205078125
-0.0157470703125
0.0113525390625
-0.0128173828125
-0.010986328125
0.0025634765625
-0.01318359375
0.0135498046875
-0.0018310546875
0.0047607421875
-0.0047607421875
-0.002197265625
-0.00439453125
0.002197265625
-0.0054931640625
0.0076904296875
0.0032958984375
0.0025634765625
0.003662109375
-0.010986328125
-0.0054931640625
-0.010986328125
-0.00439453125
-0.0018310546875
-0.003662109375
0.0054931640625
-0.0010986328125
-0.0087890625
-0.0128173828125
-0.012451171875
-0.022705078125
0.05712890625
0.0120849609375
0.0164794921875
0.028564453125
-0.043212890625
0.009521484375
-0.0179443359375
0.0120849609375
-0.0234375
0.010986328125
-0.0179443359375
-0.0076904296875
-0.00732421875
-0.0186767578125
0.0128173828125
-0.013916015625
0.0157470703125
-0.0018310546875
0.0076904296875
0.002197265625
0.0069580078125
0.000732421875
0.01171875
0.000732421875
0.02490234375
0.0018310546875
0.01171875
-0.0029296875
-0.00732421875
-0.0076904296875
-0.010986328125
-0.0003662109375
-0.0087890625
-0.00146484375
0.002197265625
0.038818359375
-0.1424560546875
-0.0457763671875
0.0142822265625
-0.0380859375
0.142822265625
0.0538330078125
-0.013916015625
0.0087890625
-0.0010986328125
0.012451171875
-0.005126953125
0.0142822265625
-0.005859375
0.00732421875
-0.0040283203125
-0.0142822265625
0.0087890625
-0.016845703125
0.01171875
-0.00439453125
0.0047607421875
-0.002197265625
-0.0010986328125
-0.0025634765625
0.0047607421875
-0.00146484375
0.0087890625
0.0062255859375
-0.002197265625
-0.00146484375
-0.0025634765625
-0.0047607421875
0.0018310546875
-0.002197265625
0.000732421875
-0.0003662109375
0.0091552734375
0.0399169921875
-0.1168212890625
-0.0538330078125
0.008056640625
-0.0340576171875
0.11865234375
0.0589599609375
-0.0146484375
0.0113525390625
-0.00146484375
0.013916015625
-0.0087890625
0.024169921875
-0.0098876953125
0.0201416015625
-0.0047607421875
-0.0091552734375
0.006591796875
-0.016845703125
0.015380859375
-0.008056640625
0.003662109375
-0.0032958984375
-0.0040283203125
-0.00732421875
-0.00146484375
-0.0054931640625
0.00146484375
-0.00146484375
0.008056640625
0.000732421875
-0.0003662109375
-0.0032958984375
-0.0113525390625
-0.0076904296875
-0.0062255859375
-0.003662109375
-0.0018310546875
-0.0098876953125
-0.009521484375
0.0146484375
-0.085693359375
-0.0281982421875
0.04248046875
-0.01611328125
0.0908203125
0.034423828125
-0.03076171875
0.005126953125
-0.0098876953125
0.010986328125
-0.0146484375
0.0084228515625
-0.0135498046875
-0.00146484375
-0.002197265625
-0.018310546875
0.0135498046875
-0.01318359375
0.0172119140625
-0.0029296875
0.012451171875
-0.003662109375
0.0018310546875
-0.0054931640625
0.0
-0.0054931640625
0.0069580078125
0.005126953125
0.0003662109375
0.0
-0.005859375
-0.0054931640625
-0.0018310546875
-0.0018310546875
0.0010986328125
0.000732421875
0.0084228515625
0.025634765625
-0.094482421875
-0.050537109375
0.0128173828125
-0.0223388671875
0.101806640625
0.05859375
-0.0164794921875
0.01318359375
-0.005859375
0.01025390625
-0.0062255859375
0.01611328125
-0.0076904296875
0.01171875
-0.0062255859375
-0.0062255859375
0.0029296875
-0.0135498046875
0.009521484375
-0.0069580078125
0.003662109375
-0.0029296875
0.0
-0.0062255859375
-0.0010986328125
-0.003662109375
0.010986328125
0.0018310546875
0.0069580078125
0.0018310546875
-0.006591796875
-0.0062255859375
-0.0029296875
-0.003662109375
-0.005126953125
0.0003662109375
-0.0025634765625
0.0062255859375
-0.0479736328125
-0.0439453125
0.0245361328125
-0.0135498046875
0.0611572265625
0.0556640625
-0.0267333984375
0.02197265625
-0.016845703125
0.0113525390625
-0.008056640625
0.0128173828125
-0.008056640625
0.0135498046875
-0.006591796875
-0.0032958984375
0.0029296875
-0.022705078125
0.0142822265625
-0.013916015625
0.009521484375
-0.0087890625
0.0010986328125
-0.003662109375
-0.00146484375
-0.0018310546875
-0.0003662109375
-0.0040283203125
0.008056640625
0.0025634765625
0.003662109375
-0.0010986328125
-0.006591796875
-0.0018310546875
-0.0069580078125
-0.00146484375
-0.008056640625
-0.00439453125
0.00439453125
0.0303955078125
-0.1519775390625
-0.0377197265625
0.0146484375
-0.0325927734375
0.1534423828125
0.0435791015625
-0.0263671875
0.01025390625
-0.012451171875
0.0091552734375
-0.01318359375
0.01318359375
-0.0029296875
0.0040283203125
0.01171875
-0.01318359375
0.021240234375
-0.0172119140625
0.015380859375
-0.0069580078125
-0.0018310546875
-0.0018310546875
-0.006591796875
-0.0040283203125
-0.006591796875
-0.0025634765625
0.0003662109375
-0.0025634765625
0.0091552734375
0.002197265625
0.0010986328125
-0.0025634765625
-0.005126953125
-0.0029296875
-0.00146484375
0.00146484375
0.0003662109375
0.0029296875
-0.0260009765625
-0.015380859375
-0.0201416015625
-0.021240234375
0.052001953125
0.0245361328125
0.02197265625
0.029296875
-0.0260009765625
0.0113525390625
-0.005859375
0.0157470703125
-0.008056640625
0.016845703125
-0.0091552734375
0.0
0.0029296875
-0.017578125
0.0157470703125
-0.0087890625
0.010986328125
-0.005126953125
0.000732421875
-0.005126953125
-0.0025634765625
-0.006591796875
0.0025634765625
-0.0032958984375
0.0084228515625
-0.0003662109375
0.0010986328125
-0.009521484375
-0.005859375
-0.0142822265625
0.0
-0.0142822265625
-0.00146484375
-0.0098876953125
-0.0032958984375
0.0311279296875
-0.1197509765625
-0.0325927734375
0.0205078125
-0.03076171875
0.123779296875
0.044677734375
-0.016845703125
0.012451171875
-0.0025634765625
0.015380859375
-0.0069580078125
0.0267333984375
-0.005859375
0.01318359375
-0.0032958984375
-0.0106201171875
0.006591796875
-0.0146484375
0.0098876953125
-0.0032958984375
-0.0029296875
-0.000732421875
-0.0018310546875
-0.0018310546875
0.00146484375
-0.000732421875
0.0084228515625
0.003662109375
-0.000732421875
0.003662109375
-0.0106201171875
-0.009521484375
-0.0025634765625
-0.005126953125
-0.0010986328125
-0.0032958984375
0.0025634765625
0.0062255859375
-0.076904296875
-0.038818359375
0.016845703125
-0.016845703125
0.0823974609375
0.0435791015625
-0.0238037109375
0.0106201171875
-0.018310546875
0.0069580078125
-0.01611328125
0.01171875
-0.0113525390625
0.008056640625
-0.0047607421875
-0.009521484375
0.00732421875
-0.01904296875
0.015380859375
-0.008056640625
0.015380859375
-0.0018310546875
0.013916015625
-0.00146484375
0.005126953125
-0.005859375
-0.0040283203125
-0.00146484375
0.00439453125
0.0018310546875
0.0
-0.0003662109375
-0.012451171875
-0.000732421875
-0.0032958984375
-0.000732421875
-0.002197265625
-0.002197265625
-0.0098876953125
0.0281982421875
-0.11279296875
-0.029296875
0.02783203125
-0.024169921875
0.116455078125
0.0443115234375
-0.0179443359375
0.0106201171875
-0.00439453125
0.0120849609375
-0.0087890625
0.016845703125
-0.0062255859375
0.0010986328125
0.0010986328125
-0.015380859375
0.0113525390625
-0.0150146484375
0.0113525390625
-0.0054931640625
0.0040283203125
-0.005859375
-0.0003662109375
-0.01025390625
0.003662109375
-0.0054931640625
0.01318359375
-0.0047607421875
0.00439453125
-0.0120849609375
0.01318359375
-0.0179443359375
0.052001953125
-0.0084228515625
0.083892822265625
0.0003662109375
0.103302001953125
0.052734375
-0.096710205078125
-0.0355224609375
0.0040283203125
-0.037353515625
0.0791015625
0.05712890625
-0.101104736328125
0.00732421875
-0.0439453125
0.0113525390625
-0.046142578125
0.0216064453125
-0.04833984375
0.0164794921875
-0.0325927734375
-0.0076904296875
-0.0091552734375
-0.0164794921875
0.0010986328125
-0.0076904296875
-0.0003662109375
-0.0025634765625
-0.0025634765625
0.0032958984375
-0.00146484375
0.00146484375
0.0003662109375
0.002197265625
0.005859375
0.0
-0.0010986328125
-0.0054931640625
-0.006591796875
-0.00439453125
-0.002197265625
0.0003662109375
-0.0087890625
0.0
-0.0333251953125
0.002197265625
-0.0545654296875
-0.02490234375
0.0589599609375
-0.0018310546875
0.0582275390625
0.03515625
-0.0263671875
0.0087890625
0.00146484375
0.0106201171875
0.0003662109375
0.0135498046875
0.00146484375
-0.0032958984375
0.0018310546875
-0.017578125
0.003662109375
-0.0128173828125
0.0003662109375
-0.0018310546875
-0.0025634765625
-0.0032958984375
-0.0018310546875
-0.003662109375
0.0018310546875
-0.0018310546875
0.01025390625
0.0040283203125
0.0029296875
0.0010986328125
0.000732421875
-0.0062255859375
0.0025634765625
0.0003662109375
0.0003662109375
-0.0010986328125
0.0098876953125
0.03955078125
-0.119384765625
-0.052001953125
0.0062255859375
-0.0362548828125
0.123046875
0.0604248046875
-0.0040283203125
0.008056640625
0.002197265625
0.01171875
-0.0069580078125
0.0164794921875
-0.0054931640625
0.013916015625
-0.006591796875
-0.010986328125
-0.0032958984375
-0.018310546875
0.0010986328125
-0.0076904296875
0.002197265625
-0.0018310546875
-0.0003662109375
0.0010986328125
-0.0003662109375
-0.000732421875
0.0069580078125
0.005126953125
0.005859375
0.0
-0.0029296875
-0.005859375
-0.0062255859375
-0.006591796875
-0.0047607421875
-0.0047607421875
-0.000732421875
-0.000732421875
-0.0234375
-0.0245361328125
-0.003662109375
-0.0216064453125
0.0574951171875
0.0234375
0.00732421875
0.0260009765625
-0.0263671875
0.0029296875
0.00439453125
0.005126953125
0.0018310546875
0.0054931640625
-0.0062255859375
-0.0084228515625
-0.0047607421875
-0.01904296875
0.0113525390625
-0.0128173828125
0.0062255859375
0.0003662109375
-0.00732421875
0.000732421875
-0.008056640625
0.0010986328125
-0.00146484375
0.0010986328125
0.005859375
0.0062255859375
-0.005859375
0.0010986328125
-0.009521484375
-0.005126953125
-0.0025634765625
0.00146484375
-0.0010986328125
0.000732421875
0.0098876953125
0.03076171875
-0.094482421875
-0.0545654296875
0.0201416015625
-0.0267333984375
0.1171875
0.0615234375
-0.00146484375
0.00146484375
-0.0029296875
-0.0029296875
-0.0146484375
0.003662109375
-0.017578125
0.00732421875
-0.0186767578125
-0.01318359375
-0.008056640625
-0.0234375
0.0047607421875
-0.0146484375
-0.0003662109375
-0.0062255859375
-0.0069580078125
-0.0018310546875
-0.0032958984375
-0.0040283203125
-0.0062255859375
0.000732421875
-0.0062255859375
0.000732421875
-0.009521484375
-0.003662109375
-0.0084228515625
-0.0054931640625
-0.0003662109375
-0.000732421875
0.0003662109375
0.0
-0.0142822265625
0.00146484375
-0.056396484375
-0.0164794921875
0.0439453125
0.012451171875
0.0596923828125
0.044677734375
-0.0223388671875
0.018310546875
-0.0003662109375
0.0194091796875
-0.0069580078125
0.0216064453125
-0.005126953125
0.0062255859375
0.00146484375
-0.015380859375
0.0186767578125
-0.013916015625
0.0205078125
0.000732421875
0.008056640625
0.0025634765625
0.0
0.0040283203125
0.005859375
0.0040283203125
0.0172119140625
0.0091552734375
0.0091552734375
0.000732421875
0.0
-0.0062255859375
-0.005859375
-0.00146484375
-0.010986328125
-0.0029296875
-0.016845703125
0.0062255859375
-0.0897216796875
-0.03515625
0.005126953125
-0.0179443359375
0.0831298828125
0.03369140625
-0.0208740234375
0.016845703125
-0.0230712890625
0.0091552734375
-0.000732421875
0.0128173828125
0.0032958984375
0.01318359375
0.0047607421875
-0.00732421875
0.0098876953125
-0.017578125
0.010986328125
-0.0106201171875
0.0018310546875
-0.00146484375
-0.0032958984375
-0.0025634765625
-0.00146484375
-0.0047607421875
0.002197265625
-0.00146484375
0.009521484375
0.0032958984375
-0.000732421875
0.0003662109375
-0.0040283203125
-0.0062255859375
0.00146484375
-0.000732421875
0.0010986328125
-0.000732421875
0.0113525390625
0.041015625
-0.1285400390625
-0.050537109375
0.005859375
-0.0384521484375
0.12890625
0.05859375
-0.0106201171875
0.0084228515625
-0.00146484375
0.0135498046875
-0.0084228515625
0.017578125
-0.0069580078125
0.012451171875
-0.0040283203125
-0.0113525390625
0.006591796875
-0.017578125
0.01025390625
-0.006591796875
0.0032958984375
-0.00732421875
-0.00146484375
-0.0054931640625
0.0010986328125
-0.0054931640625
0.0091552734375
0.002197265625
0.00732421875
0.0029296875
-0.0010986328125
-0.0040283203125
-0.0018310546875
-0.0029296875
-0.000732421875
0.0018310546875
-0.00439453125
0.0029296875
-0.025634765625
-0.0230712890625
-0.015380859375
-0.02197265625
0.04833984375
0.0201416015625
0.0091552734375
0.02490234375
-0.0362548828125
0.0062255859375
-0.008056640625
0.0113525390625
-0.0087890625
0.0135498046875
-0.008056640625
-0.0054931640625
0.0010986328125
-0.0201416015625
0.0205078125
-0.015380859375
0.0230712890625
-0.00146484375
0.01171875
0.000732421875
0.0040283203125
0.0003662109375
0.003662109375
0.0029296875
0.0179443359375
0.0069580078125
0.0164794921875
0.0003662109375
0.0091552734375
-0.0087890625
-0.0025634765625
-0.002197265625
-0.0205078125
-0.000732421875
-0.0179443359375
0.0230712890625
-0.1212158203125
-0.0457763671875
0.003662109375
-0.0234375
0.1087646484375
0.0509033203125
-0.0106201171875
0.0087890625
-0.0029296875
0.0113525390625
-0.00439453125
0.0157470703125
-0.0087890625
0.012451171875
-0.00732421875
-0.012451171875
0.0062255859375
-0.0201416015625
0.0150146484375
-0.0084228515625
0.012451171875
-0.00439453125
0.003662109375
-0.003662109375
0.000732421875
-0.005126953125
0.0025634765625
0.005126953125
-0.00439453125
0.002197265625
-0.00439453125
-0.0018310546875
0.005859375
0.0032958984375
0.009521484375
0.005126953125
0.0164794921875
0.008056640625
-0.0054931640625
-0.0267333984375
0.0216064453125
-0.0157470703125
0.0318603515625
0.029296875
-0.047607421875
0.018310546875
-0.0428466796875
0.005859375
-0.0069580078125
0.009521484375
-0.003662109375
0.01171875
-0.01904296875
-0.0029296875
-0.0208740234375
-0.01904296875
0.0087890625
-0.0135498046875
0.0120849609375
-0.000732421875
0.01171875
-0.00146484375
0.0106201171875
-0.0032958984375
-0.02490234375
-0.0494384765625
0.002197265625
-0.0069580078125
0.0325927734375
0.0501708984375
-0.0025634765625
0.01318359375
-0.0076904296875
0.012451171875
-0.002197265625
0.01318359375
-0.010986328125
0.0146484375
-0.013916015625
0.0
0.008056640625
-0.0179443359375
0.0311279296875
-0.0179443359375
0.0311279296875
-0.0106201171875
0.0
-0.0087890625
-0.00732421875
-0.005126953125
0.0032958984375
-0.00146484375
0.0010986328125
-0.005126953125
0.0069580078125
0.0003662109375
-0.01171875
0.00146484375
-0.009521484375
0.0318603515625
-0.0992431640625
-0.046142578125
0.0120849609375
-0.02490234375
0.1007080078125
0.0589599609375
-0.0128173828125
0.0076904296875
-0.0091552734375
0.0087890625
-0.0252685546875
0.0142822265625
-0.0216064453125
0.0120849609375
-0.0179443359375
-0.0146484375
0.0029296875
-0.02490234375
0.0208740234375
-0.0120849609375
0.0146484375
-0.0054931640625
0.0018310546875
0.00146484375
0.003662109375
-0.00146484375
0.00732421875
-0.002197265625
0.0054931640625
-0.0047607421875
0.0062255859375
-0.003662109375
-0.0040283203125
-0.0029296875
-0.0106201171875
0.0
-0.005126953125
0.0047607421875
-0.0069580078125
-0.00146484375
-0.0098876953125
-0.0018310546875
0.00439453125
-0.0040283203125
0.018310546875
0.01171875
-0.0626220703125
-0.0413818359375
0.0274658203125
-0.0234375
0.101806640625
0.04541015625
-0.01025390625
0.0135498046875
0.0
0.0091552734375
0.005126953125
0.0164794921875
-0.0322265625
0.0142822265625
-0.0391845703125
-0.0054931640625
-0.009521484375
-0.01611328125
0.0179443359375
-0.0076904296875
0.0087890625
-0.002197265625
-0.01318359375
-0.0025634765625
-0.009521484375
-0.0040283203125
-0.006591796875
-0.002197265625
-0.0040283203125
-0.0054931640625
0.00732421875
0.002197265625
0.0047607421875
0.002197265625
-0.0047607421875
-0.0025634765625
-0.003662109375
-0.0010986328125
0.0
0.0003662109375
0.0018310546875
0.018310546875
-0.069580078125
-0.052001953125
0.0205078125
-0.0164794921875
0.073974609375
0.0574951171875
-0.02490234375
0.0146484375
-0.0113525390625
0.010986328125
-0.0098876953125
0.013916015625
-0.0106201171875
0.0098876953125
-0.0062255859375
-0.010986328125
0.0040283203125
-0.0194091796875
0.0146484375
-0.0146484375
0.00732421875
-0.0062255859375
-0.0062255859375
-0.00146484375
-0.0054931640625
-0.0003662109375
0.00732421875
-0.005126953125
0.01171875
-0.000732421875
0.009521484375
0.0025634765625
-0.0018310546875
-0.005126953125
-0.0172119140625
-0.0010986328125
-0.0120849609375
-0.0003662109375
-0.0018310546875
-0.002197265625
-0.005126953125
0.0303955078125
-0.1102294921875
-0.03369140625
0.0736083984375
-0.02783203125
0.1534423828125
0.041015625
-0.0303955078125
0.01025390625
-0.0150146484375
0.012451171875
-0.0201416015625
0.01611328125
-0.018310546875
0.000732421875
-0.008056640625
-0.018310546875
0.0032958984375
-0.013916015625
0.005859375
-0.0040283203125
0.0003662109375
-0.0003662109375
0.0029296875
-0.0010986328125
0.0054931640625
0.000732421875
0.0047607421875
0.000732421875
0.005126953125
-0.0010986328125
0.000732421875
-0.0054931640625
0.0
-0.0025634765625
0.002197265625
0.0003662109375
0.010986328125
0.0274658203125
-0.0919189453125
-0.05419921875
0.0069580078125
-0.0289306640625
0.088623046875
0.062255859375
-0.0194091796875
0.010986328125
0.0018310546875
0.0128173828125
0.017578125
0.01904296875
-0.0032958984375
0.0150146484375
-0.03662109375
-0.005126953125
-0.01025390625
-0.018310546875
0.012451171875
-0.008056640625
0.002197265625
-0.003662109375
-0.0062255859375
-0.000732421875
-0.008056640625
-0.0018310546875
-0.00439453125
-0.0047607421875
0.00439453125
0.000732421875
0.00439453125
-0.003662109375
-0.0025634765625
-0.005126953125
-0.0003662109375
-0.0032958984375
0.0003662109375
-0.00146484375
-0.00439453125
0.003662109375
-0.0435791015625
-0.0362548828125
0.0120849609375
-0.0223388671875
0.0648193359375
0.0347900390625
-0.0172119140625
0.0205078125
-0.030029296875
0.005859375
-0.0076904296875
0.015380859375
-0.013916015625
0.01025390625
-0.0113525390625
-0.0084228515625
0.0062255859375
-0.01904296875
0.024169921875
-0.010986328125
0.02783203125
0.0003662109375
0.041015625
-0.0010986328125
0.0552978515625
0.0
0.050537109375
-0.0025634765625
0.012451171875
0.0040283203125
-0.038818359375
0.0029296875
-0.052001953125
-0.00439453125
-0.03369140625
-0.0025634765625
-0.015380859375
-0.000732421875
-0.0084228515625
0.0062255859375
-0.0369873046875
-0.0333251953125
-0.0047607421875
-0.0186767578125
0.0567626953125
0.0380859375
0.0047607421875
0.025634765625
-0.025634765625
0.010986328125
-0.0062255859375
0.01611328125
-0.010986328125
0.0150146484375
-0.0091552734375
-0.0062255859375
0.002197265625
-0.017578125
0.0120849609375
-0.0106201171875
0.0076904296875
-0.0003662109375
0.0
-0.002197265625
-0.003662109375
-0.005126953125
-0.0010986328125
0.0
0.0069580078125
0.0029296875
-0.00146484375
-0.000732421875
-0.0032958984375
-0.00439453125
0.0018310546875
-0.000732421875
0.000732421875
-0.0010986328125
0.009521484375
0.035888671875
-0.1190185546875
-0.0501708984375
0.0025634765625
-0.032958984375
0.116455078125
0.057861328125
-0.015380859375
0.0069580078125
-0.0091552734375
0.01025390625
-0.0084228515625
0.01318359375
-0.002197265625
0.006591796875
0.0
-0.0186767578125
0.019775390625
-0.024169921875
0.0216064453125
-0.01025390625
-0.0069580078125
-0.003662109375
-0.0172119140625
0.0
-0.010986328125
-0.0010986328125
-0.0047607421875
0.0029296875
0.003662109375
0.0025634765625
0.002197265625
-0.0032958984375
-0.0018310546875
-0.003662109375
-0.0040283203125
-0.0003662109375
-0.006591796875
-0.0010986328125
0.00439453125
0.0157470703125
-0.098876953125
-0.0380859375
0.01904296875
-0.022705078125
0.1146240234375
0.0443115234375
-0.005859375
0.0120849609375
0.006591796875
0.01025390625
0.0
0.015380859375
-0.0032958984375
0.0087890625
-0.0029296875
-0.0087890625
0.0018310546875
-0.019775390625
0.005126953125
-0.0062255859375
-0.0003662109375
0.0
-0.0032958984375
0.000732421875
-0.0018310546875
-0.000732421875
0.0069580078125
0.0003662109375
0.009521484375
0.00439453125
0.000732421875
-0.00146484375
0.000732421875
-0.002197265625
0.0025634765625
-0.0010986328125
-0.005859375
0.00146484375
-0.0010986328125
0.034423828125
-0.1065673828125
-0.057861328125
0.0084228515625
-0.0333251953125
0.106201171875
0.062255859375
-0.01025390625
0.009521484375
0.003662109375
0.009521484375
-0.0120849609375
0.016845703125
-0.019775390625
0.010986328125
-0.0087890625
-0.008056640625
0.01025390625
-0.01611328125
0.0194091796875
-0.0040283203125
0.009521484375
0.0003662109375
0.005859375
-0.003662109375
-0.0010986328125
-0.0025634765625
-0.0106201171875
-0.0029296875
-0.00439453125
0.002197265625
-0.0029296875
-0.0047607421875
0.0003662109375
-0.0062255859375
0.00732421875
-0.0029296875
0.00439453125
-0.00439453125
0.0091552734375
0.024169921875
-0.1256103515625
-0.0509033203125
-0.0029296875
-0.02783203125
0.11572265625
0.0516357421875
-0.018310546875
0.0084228515625
-0.0087890625
0.0091552734375
-0.0113525390625
0.0113525390625
-0.010986328125
0.0069580078125
-0.0087890625
-0.0135498046875
0.0087890625
-0.0186767578125
0.0201416015625
-0.0087890625
0.003662109375
0.0
-0.0040283203125
0.0010986328125
-0.00146484375
0.0
-0.000732421875
0.0029296875
0.01025390625
0.005859375
0.0106201171875
0.0010986328125
0.00732421875
-0.005859375
0.0087890625
-0.0010986328125
0.003662109375
-0.0032958984375
0.00732421875
0.0205078125
-0.0941162109375
-0.04541015625
0.016845703125
-0.024169921875
0.1072998046875
0.0509033203125
-0.0087890625
0.0076904296875
0.0223388671875
0.008056640625
0.093017578125
0.0120849609375
0.0802001953125
0.0076904296875
-0.017578125
-0.01318359375
-0.0399169921875
-0.0201416015625
-0.027099609375
-0.0084228515625
-0.0435791015625
-0.0025634765625
-0.054931640625
-0.0018310546875
-0.034423828125
-0.0047607421875
-0.003662109375
0.0029296875
0.0120849609375
0.00146484375
0.0029296875
-0.0029296875
-0.0128173828125
-0.0018310546875
-0.0172119140625
0.0003662109375
-0.0150146484375
0.0010986328125
-0.0142822265625
0.028564453125
-0.11279296875
-0.0263671875
0.0172119140625
-0.0234375
0.100341796875
0.041015625
-0.018310546875
0.0120849609375
0.01025390625
0.0150146484375
0.000732421875
0.018310546875
-0.0128173828125
0.0054931640625
-0.009521484375
-0.013916015625
0.006591796875
-0.016845703125
0.0040283203125
-0.00439453125
-0.0054931640625
-0.005126953125
0.00146484375
-0.003662109375
0.0091552734375
-0.00146484375
0.012451171875
0.0010986328125
0.012451171875
0.0029296875
0.0076904296875
-0.0069580078125
-0.00146484375
-0.0054931640625
-0.0062255859375
-0.000732421875
-0.0106201171875
-0.0003662109375
-0.0047607421875
0.0399169921875
-0.156036376953125
-0.038818359375
0.0234375
-0.0399169921875
0.154205322265625
0.0421142578125
-0.0289306640625
0.00732421875
-0.003662109375
0.0128173828125
-0.0087890625
0.0172119140625
-0.0146484375
0.0029296875
-0.005859375
-0.0157470703125
0.0172119140625
-0.0157470703125
0.028564453125
-0.0029296875
0.0252685546875
0.00146484375
0.01318359375
-0.000732421875
0.000732421875
-0.002197265625
0.0018310546875
-0.0025634765625
0.0040283203125
0.005126953125
-0.0069580078125
-0.000732421875
-0.0113525390625
-0.0047607421875
-0.0054931640625
-0.0032958984375
-0.0018310546875
-0.0029296875
0.008056640625
0.0267333984375
-0.0941162109375
-0.0552978515625
0.0087890625
-0.0252685546875
0.099609375
0.0596923828125
-0.0120849609375
0.01171875
-0.0047607421875
0.010986328125
-0.0087890625
0.0157470703125
-0.0113525390625
0.01318359375
-0.008056640625
-0.0098876953125
0.0018310546875
-0.018310546875
0.0098876953125
-0.0087890625
0.00439453125
0.0
-0.002197265625
-0.0010986328125
-0.0018310546875
-0.0025634765625
0.002197265625
-0.0003662109375
0.0091552734375
0.0029296875
0.000732421875
0.0
-0.0054931640625
-0.003662109375
-0.000732421875
0.000732421875
-0.00146484375
0.0003662109375
0.0076904296875
0.0509033203125
-0.154541015625
-0.0421142578125
0.0054931640625
-0.0450439453125
0.148681640625
0.0487060546875
-0.0172119140625
0.005859375
-0.002197265625
0.0113525390625
-0.0120849609375
0.010986328125
-0.01171875
0.0054931640625
-0.005859375
-0.017578125
0.012451171875
-0.021240234375
0.01904296875
-0.0098876953125
0.003662109375
-0.0040283203125
-0.00439453125
0.0003662109375
-0.000732421875
-0.0025634765625
0.0029296875
0.002197265625
0.0091552734375
0.0040283203125
0.005126953125
0.0
-0.0003662109375
-0.0054931640625
0.0047607421875
-0.003662109375
0.0029296875
-0.00146484375
0.0069580078125
0.01611328125
-0.09521484375
-0.0439453125
0.0087890625
-0.021240234375
0.099609375
0.052001953125
-0.0142822265625
0.01318359375
-0.008056640625
0.01025390625
-0.006591796875
0.01318359375
-0.0040283203125
0.0084228515625
-0.0054931640625
-0.0087890625
0.0040283203125
-0.019775390625
0.010986328125
-0.0069580078125
0.0032958984375
-0.0010986328125
-0.0018310546875
0.0
-0.003662109375
-0.003662109375
0.0018310546875
-0.0003662109375
0.00732421875
0.003662109375
0.0010986328125
-0.003662109375
-0.003662109375
-0.0029296875
0.0003662109375
0.0
0.0018310546875
0.0040283203125
0.0150146484375
0.04541015625
-0.139892578125
-0.0457763671875
0.00146484375
-0.041015625
0.135498046875
0.0523681640625
-0.0234375
0.0076904296875
-0.0076904296875
0.0084228515625
-0.01171875
0.015380859375
-0.0106201171875
0.0062255859375
-0.005126953125
-0.0128173828125
0.0069580078125
-0.0201416015625
0.0135498046875
-0.010986328125
0.0047607421875
-0.0032958984375
0.0
-0.0025634765625
0.000732421875
-0.0018310546875
0.006591796875
0.0010986328125
0.009521484375
0.006591796875
0.0003662109375
-0.0040283203125
0.0003662109375
-0.006591796875
0.0054931640625
-0.0018310546875
0.0029296875
-0.00146484375
0.0025634765625
0.013916015625
-0.088623046875
-0.03955078125
0.017578125
-0.0186767578125
0.1065673828125
0.0439453125
-0.0084228515625
0.0172119140625
-0.01318359375
0.01025390625
-0.012451171875
0.0150146484375
-0.0120849609375
0.0113525390625
-0.00732421875
-0.010986328125
0.0040283203125
-0.01904296875
0.0120849609375
-0.0098876953125
0.005126953125
-0.00146484375
-0.00146484375
-0.0040283203125
-0.000732421875
-0.003662109375
0.0025634765625
0.0003662109375
0.0069580078125
0.0047607421875
-0.0025634765625
0.000732421875
-0.0054931640625
-0.005126953125
-0.0003662109375
-0.0003662109375
-0.0010986328125
-0.0010986328125
0.0029296875
0.0267333984375
-0.0911865234375
-0.057861328125
0.0201416015625
-0.027099609375
0.094482421875
0.062255859375
-0.0186767578125
0.0113525390625
-0.0029296875
0.0135498046875
-0.0091552734375
0.0157470703125
-0.013916015625
0.015380859375
-0.0142822265625
-0.01025390625
0.00146484375
-0.01904296875
0.012451171875
-0.008056640625
0.0069580078125
-0.0040283203125
-0.00146484375
-0.0029296875
-0.0018310546875
-0.0047607421875
0.0040283203125
-0.00146484375
0.009521484375
0.002197265625
0.0029296875
-0.0003662109375
-0.005126953125
-0.008056640625
-0.0010986328125
-0.0029296875
-0.006591796875
-0.00146484375
-0.009521484375
0.005126953125
-0.0640869140625
-0.032958984375
0.0106201171875
-0.0208740234375
0.0791015625
0.038818359375
-0.0106201171875
0.0186767578125
-0.016845703125
0.0091552734375
-0.002197265625
0.0142822265625
-0.0010986328125
0.0142822265625
0.0087890625
-0.0029296875
0.0238037109375
-0.0186767578125
0.0205078125
-0.008056640625
-0.0018310546875
-0.002197265625
-0.01171875
-0.000732421875
-0.0091552734375
-0.00146484375
-0.0029296875
-0.002197265625
0.0010986328125
0.0
0.0069580078125
0.000732421875
-0.000732421875
-0.0018310546875
-0.00732421875
-0.003662109375
-0.0032958984375
0.000732421875
-0.0029296875
-0.002197265625
-0.010986328125
0.01611328125
-0.0966796875
-0.0274658203125
0.02783203125
-0.0128173828125
0.0963134765625
0.0369873046875
-0.021240234375
0.0084228515625
-0.008056640625
0.0146484375
-0.0084228515625
0.013916015625
-0.0135498046875
0.00146484375
-0.006591796875
-0.0179443359375
0.0194091796875
-0.0150146484375
0.035888671875
-0.00439453125
0.0391845703125
-0.0029296875
0.0391845703125
-0.0003662109375
0.010986328125
-0.0054931640625
-0.0333251953125
0.002197265625
-0.0479736328125
0.0018310546875
-0.0362548828125
-0.0062255859375
-0.01611328125
-0.0029296875
-0.0047607421875
0.0010986328125
-0.00732421875
-0.00146484375
-0.0186767578125
0.0
-0.0673828125
-0.0245361328125
0.0384521484375
-0.002197265625
0.064453125
0.031494140625
-0.031494140625
0.006591796875
-0.00732421875
0.009521484375
-0.005859375
0.0106201171875
0.0
-0.0032958984375
0.015380859375
-0.0172119140625
0.0560302734375
-0.0150146484375
0.0582275390625
-0.0032958984375
-0.0054931640625
-0.002197265625
-0.0443115234375
0.0003662109375
-0.031494140625
-0.00146484375
-0.0029296875
0.000732421875
0.03662109375
0.0040283203125
0.04833984375
-0.0040283203125
0.01611328125
-0.0029296875
-0.01318359375
-0.00146484375
-0.0263671875
-0.00146484375
-0.0234375
0.032958984375
-0.1219482421875
-0.0333251953125
0.0556640625
-0.0289306640625
0.161865234375
0.0435791015625
-0.01171875
0.010986328125
-0.0018310546875
0.01171875
-0.005859375
0.015380859375
-0.0604248046875
0.0010986328125
-0.0714111328125
-0.0164794921875
-0.0106201171875
-0.0150146484375
0.022705078125
-0.0032958984375
0.021240234375
0.0003662109375
0.0062255859375
-0.0025634765625
-0.0010986328125
-0.0010986328125
0.0113525390625
0.0025634765625
0.0128173828125
0.00146484375
-0.017578125
-0.0062255859375
-0.03955078125
-0.002197265625
-0.0311279296875
0.0
-0.0142822265625
0.0047607421875
-0.041015625
-0.0333251953125
-0.0010986328125
-0.0201416015625
0.0487060546875
0.0399169921875
-0.0084228515625
0.022705078125
-0.0230712890625
0.012451171875
-0.0003662109375
0.0164794921875
-0.0025634765625
0.0179443359375
-0.0142822265625
0.00146484375
-0.0069580078125
-0.019775390625
0.0091552734375
-0.0150146484375
0.0087890625
-0.006591796875
0.0018310546875
-0.0010986328125
0.0003662109375
-0.0040283203125
0.0018310546875
-0.005126953125
0.0018310546875
-0.0010986328125
0.008056640625
-0.000732421875
0.005859375
-0.0029296875
0.0018310546875
-0.003662109375
0.00146484375
0.0003662109375
-0.0018310546875
-0.005126953125
-0.00146484375
0.0252685546875
-0.123077392578125
-0.0322265625
0.030029296875
-0.024169921875
0.125274658203125
0.0406494140625
-0.0274658203125
0.0062255859375
-0.0076904296875
0.0128173828125
-0.0106201171875
0.0128173828125
-0.0062255859375
0.002197265625
0.0029296875
-0.0179443359375
0.0186767578125
-0.0157470703125
0.021240234375
-0.0040283203125
0.0128173828125
-0.0018310546875
0.0025634765625
0.0003662109375
-0.000732421875
-0.002197265625
0.002197265625
0.002197265625
0.0076904296875
0.0047607421875
0.000732421875
0.0003662109375
-0.0047607421875
-0.003662109375
0.0018310546875
-0.0003662109375
0.0
0.00146484375
0.0087890625
0.030029296875
-0.1094970703125
-0.0498046875
0.0029296875
-0.029296875
0.1131591796875
0.0589599609375
-0.006591796875
0.010986328125
-0.0018310546875
0.01171875
-0.0106201171875
0.01611328125
-0.0120849609375
0.0113525390625
-0.0076904296875
-0.0084228515625
0.0062255859375
-0.0179443359375
0.0146484375
-0.005859375
0.0069580078125
-0.002197265625
0.000732421875
-0.00146484375
0.00146484375
-0.0047607421875
0.0076904296875
-0.0018310546875
0.0135498046875
0.0025634765625
0.005126953125
-0.0025634765625
-0.00439453125
-0.0025634765625
-0.0032958984375
-0.0029296875
-0.0054931640625
-0.00146484375
0.0076904296875
0.0311279296875
-0.132568359375
-0.0472412109375
0.005126953125
-0.0333251953125
0.135498046875
0.0487060546875
-0.0128173828125
0.0062255859375
-0.000732421875
0.00732421875
-0.0091552734375
0.0120849609375
-0.01025390625
0.0054931640625
-0.0084228515625
-0.0113525390625
0.0029296875
-0.0186767578125
0.013916015625
-0.00732421875
0.0047607421875
-0.0018310546875
0.000732421875
-0.0018310546875
0.0
0.0
0.0029296875
-0.000732421875
0.0106201171875
0.005859375
0.003662109375
-0.0025634765625
-0.000732421875
-0.005859375
0.0029296875
-0.0010986328125
0.00439453125
-0.0010986328125
0.00732421875
0.0146484375
-0.07763671875
-0.0443115234375
0.0113525390625
-0.0194091796875
0.0908203125
0.04833984375
-0.0128173828125
0.016845703125
-0.01318359375
0.009521484375
0.0
0.0142822265625
-0.0032958984375
0.01171875
-0.010986328125
-0.0087890625
-0.0018310546875
-0.016845703125
0.0091552734375
-0.0084228515625
0.0032958984375
0.00146484375
-0.0029296875
-0.0010986328125
-0.0032958984375
-0.0032958984375
0.0
-0.000732421875
0.006591796875
0.0018310546875
-0.0040283203125
-0.00146484375
-0.005859375
-0.0054931640625
0.0032958984375
-0.0010986328125
0.0084228515625
-0.0018310546875
0.0260009765625
0.0355224609375
-0.0992431640625
-0.0523681640625
0.0186767578125
-0.03369140625
0.1201171875
0.059326171875
-0.027099609375
0.0098876953125
-0.0252685546875
0.010986328125
-0.0157470703125
0.0146484375
-0.01318359375
0.015380859375
-0.0205078125
-0.0106201171875
-0.002197265625
-0.022705078125
0.0106201171875
-0.01318359375
0.0032958984375
-0.0062255859375
-0.0047607421875
-0.0032958984375
-0.0029296875
-0.006591796875
0.005859375
-0.0025634765625
0.012451171875
0.0054931640625
0.0
0.0029296875
-0.00732421875
-0.005859375
-0.0018310546875
-0.003662109375
0.0
-0.0003662109375
0.000732421875
0.003662109375
-0.046142578125
-0.0267333984375
0.00439453125
-0.02197265625
0.072509765625
0.031494140625
-0.002197265625
0.0245361328125
-0.0245361328125
0.01025390625
0.0
0.0150146484375
-0.000732421875
0.0142822265625
0.003662109375
-0.003662109375
0.015380859375
-0.0205078125
0.017578125
-0.009521484375
0.01025390625
0.0003662109375
0.0113525390625
0.0047607421875
0.0172119140625
0.00439453125
0.0157470703125
0.0025634765625
0.003662109375
0.0040283203125
-0.0098876953125
0.0032958984375
-0.0194091796875
-0.000732421875
-0.0142822265625
-0.003662109375
-0.00439453125
0.0
-0.0010986328125
-0.0032958984375
-0.0069580078125
0.0245361328125
-0.117919921875
-0.032958984375
0.01611328125
-0.0245361328125
0.1083984375
0.03955078125
-0.0172119140625
0.0098876953125
-0.0054931640625
0.01611328125
-0.0098876953125
0.01611328125
-0.0091552734375
0.0040283203125
-0.005126953125
-0.01904296875
0.0087890625
-0.017578125
0.0098876953125
-0.0029296875
0.0
-0.0010986328125
-0.0047607421875
-0.0018310546875
0.0
-0.0054931640625
0.005859375
0.0
0.0076904296875
0.0018310546875
0.0
-0.0025634765625
-0.0098876953125
-0.00439453125
-0.0047607421875
-0.0025634765625
-0.0010986328125
-0.002197265625
0.0010986328125
0.03369140625
-0.14501953125
-0.03369140625
0.01611328125
-0.0347900390625
0.140625
0.041015625
-0.024169921875
0.0054931640625
-0.0069580078125
0.0098876953125
-0.010986328125
0.012451171875
-0.010986328125
0.0003662109375
-0.006591796875
-0.015380859375
0.010986328125
-0.0179443359375
0.015380859375
-0.005859375
0.00439453125
-0.0018310546875
-0.00146484375
0.000732421875
-0.0010986328125
-0.002197265625
0.00146484375
-0.0003662109375
0.0087890625
0.0032958984375
0.0054931640625
-0.002197265625
-0.0047607421875
-0.0025634765625
0.0
-0.0018310546875
0.00439453125
0.0003662109375
0.0164794921875
0.030029296875
-0.1142578125
-0.046875
-0.000732421875
-0.030029296875
0.1146240234375
0.0531005859375
-0.016845703125
0.010986328125
0.0054931640625
0.01025390625
0.068115234375
0.0146484375
0.158966064453125
0.00439453125
0.236602783203125
-0.0150146484375
0.2431640625
-0.0205078125
0.203643798828125
-0.0087890625
0.105865478515625
-0.0032958984375
-0.008056640625
-0.0032958984375
-0.024169921875
-0.0025634765625
-0.103668212890625
-0.000732421875
-0.290435791015625
0.005126953125
-0.409820556640625
-0.0003662109375
-0.282012939453125
-0.0003662109375
-0.034423828125
0.0032958984375
0.1171875
0.0032958984375
0.239898681640625
0.049072265625
-0.0208740234375
-0.038818359375
-0.156402587890625
-0.041015625
-0.082763671875
0.044677734375
-0.1519775390625
0.005859375
-0.0692138671875
0.0084228515625
-0.0208740234375
0.012451171875
-0.0186767578125
0.0040283203125
-0.026031494140625
-0.018310546875
-0.010284423828125
-0.021240234375
-0.00146484375
-0.008056640625
-0.006591796875
-0.000732421875
-0.0054931640625
-0.003662109375
0.0025634765625
0.0
0.0047607421875
0.002197265625
0.013946533203125
0.0032958984375
0.013580322265625
-0.00146484375
0.01611328125
-0.0062255859375
0.0205078125
-0.0003662109375
0.0113525390625
-0.00146484375
0.012451171875
0.01171875
-0.067779541015625
-0.041015625
0.0465087890625
-0.0216064453125
0.189361572265625
0.0435791015625
0.0992431640625
0.0164794921875
0.0523681640625
0.01171875
0.0245361328125
0.0135498046875
-0.05859375
0.0113525390625
-0.12158203125
-0.0084228515625
-0.0743408203125
-0.017578125
-0.018310546875
-0.0087890625
-0.0047607421875
-0.0010986328125
-0.0040283203125
0.0
-0.002197265625
-0.0025634765625
0.00146484375
0.0018310546875
0.0069580078125
0.0040283203125
0.00146484375
-0.000732421875
-0.0018310546875
-0.006591796875
0.002197265625
-0.0025634765625
0.0128173828125
-0.0010986328125
0.0556640625
0.017578125
0.0736083984375
-0.056396484375
0.174346923828125
-0.0238037109375
0.0963134765625
0.0615234375
-0.089385986328125
0.01318359375
-0.065185546875
0.0128173828125
0.0146484375
0.0135498046875
-0.0113525390625
0.0128173828125
-0.09375
-0.005859375
-0.0633544921875
-0.021240234375
-0.028564453125
-0.01171875
-0.0164794921875
-0.00732421875
-0.0142822265625
-0.0032958984375
-0.008056640625
-0.00439453125
0.000732421875
-0.0029296875
0.0054931640625
0.0047607421875
0.00146484375
0.0018310546875
-0.005126953125
-0.0032958984375
-0.003662109375
-0.0025634765625
-0.0047607421875
0.0003662109375
-0.0018310546875
0.0
-0.024169921875
-0.0223388671875
-0.000732421875
-0.024169921875
0.065185546875
0.0234375
0.01171875
0.02783203125
-0.030029296875
0.0091552734375
-0.0054931640625
0.013916015625
-0.006591796875
0.0098876953125
-0.0040283203125
-0.003662109375
0.008056640625
-0.0205078125
0.0201416015625
-0.0128173828125
0.0150146484375
-0.00146484375
0.0076904296875
-0.0003662109375
0.00732421875
0.00146484375
0.012451171875
-0.0010986328125
0.0069580078125
0.0032958984375
0.0087890625
0.0062255859375
0.0018310546875
0.0029296875
-0.0142822265625
-0.0032958984375
-0.01171875
-0.0040283203125
-0.0076904296875
-0.0054931640625
0.00146484375
0.0289306640625
-0.1080322265625
-0.0347900390625
0.03662109375
-0.0311279296875
0.1314697265625
0.0450439453125
-0.0223388671875
0.0106201171875
-0.0135498046875
0.016845703125
-0.0146484375
0.01904296875
-0.0113525390625
0.00439453125
-0.0047607421875
-0.015380859375
0.01318359375
-0.016845703125
0.0223388671875
-0.0040283203125
0.00732421875
-0.0040283203125
-0.0047607421875
-0.002197265625
-0.00146484375
-0.002197265625
0.0106201171875
0.0032958984375
0.00439453125
0.002197265625
-0.0054931640625
-0.0062255859375
-0.0025634765625
-0.0032958984375
0.0029296875
-0.0029296875
0.010986328125
0.000732421875
-0.00732421875
-0.008056640625
-0.0413818359375
-0.021240234375
0.0391845703125
0.01318359375
0.04248046875
0.0322265625
-0.0263671875
0.0135498046875
-0.0091552734375
0.0135498046875
-0.0150146484375
0.0157470703125
-0.0106201171875
0.0
-0.0025634765625
-0.0172119140625
0.0106201171875
-0.01611328125
0.0128173828125
-0.005859375
0.0
-0.0025634765625
-0.0018310546875
-0.0029296875
-0.00146484375
-0.00439453125
0.003662109375
-0.0029296875
0.0179443359375
0.0025634765625
0.0091552734375
-0.00439453125
-0.0062255859375
-0.0040283203125
-0.0025634765625
-0.0018310546875
0.000732421875
-0.002197265625
0.01171875
0.0439453125
-0.152374267578125
-0.0340576171875
0.0238037109375
-0.0340576171875
0.152740478515625
0.0472412109375
-0.02490234375
0.0146484375
0.01904296875
0.0164794921875
-0.0018310546875
0.0135498046875
-0.0289306640625
-0.000732421875
-0.012451171875
-0.0223388671875
0.0216064453125
-0.0230712890625
0.0216064453125
-0.010986328125
0.003662109375
0.000732421875
0.0047607421875
0.0010986328125
-0.005859375
-0.0010986328125
-0.0062255859375
0.0
0.017578125
0.0040283203125
-0.000732421875
-0.000732421875
-0.013916015625
-0.0054931640625
-0.0047607421875
0.0003662109375
-0.0040283203125
-0.00146484375
0.0076904296875
0.0384521484375
-0.1248779296875
-0.0516357421875
0.0029296875
-0.0369873046875
0.1201171875
0.0582275390625
-0.0135498046875
0.0084228515625
-0.002197265625
0.0113525390625
-0.0084228515625
0.013916015625
-0.0098876953125
0.0091552734375
-0.0084228515625
-0.012451171875
0.006591796875
-0.0186767578125
0.013916015625
-0.008056640625
0.0054931640625
-0.002197265625
-0.0025634765625
0.0
0.0
-0.0018310546875
0.0029296875
0.0010986328125
0.0069580078125
0.0010986328125
0.0
-0.0003662109375
-0.008056640625
-0.0029296875
-0.0018310546875
-0.0018310546875
-0.0010986328125
-0.0032958984375
0.01025390625
0.0377197265625
-0.154571533203125
-0.040283203125
0.0135498046875
-0.0399169921875
0.153106689453125
0.046875
-0.0267333984375
0.005126953125
-0.0032958984375
0.0098876953125
-0.01025390625
0.010986328125
-0.012451171875
0.0018310546875
-0.0084228515625
-0.0150146484375
0.0106201171875
-0.019775390625
0.0186767578125
-0.0062255859375
0.006591796875
-0.0018310546875
0.0018310546875
0.0018310546875
0.00146484375
-0.000732421875
0.00732421875
0.000732421875
0.024169921875
0.0029296875
0.0194091796875
-0.00146484375
0.003662109375
-0.00146484375
0.00732421875
-0.00146484375
0.0003662109375
0.0
-0.0003662109375
0.0384521484375
-0.15673828125
-0.0413818359375
0.0069580078125
-0.03662109375
0.151611328125
0.05126953125
-0.017578125
0.01025390625
-0.0047607421875
0.0106201171875
-0.009521484375
0.0142822265625
-0.012451171875
0.0032958984375
-0.00732421875
-0.0128173828125
0.00732421875
-0.0179443359375
0.0098876953125
-0.005859375
-0.0018310546875
-0.0010986328125
-0.003662109375
-0.0018310546875
-0.0029296875
-0.0010986328125
0.0076904296875
0.00146484375
0.0069580078125
0.0025634765625
-0.00439453125
-0.005859375
-0.0010986328125
-0.0029296875
-0.002197265625
0.000732421875
-0.0025634765625
0.0003662109375
-0.01611328125
-0.0018310546875
-0.052001953125
-0.0194091796875
0.0384521484375
0.0106201171875
0.0457763671875
0.028564453125
-0.028564453125
0.0047607421875
-0.0032958984375
0.009521484375
-0.0076904296875
0.0172119140625
-0.0146484375
0.0003662109375
-0.0076904296875
-0.02197265625
0.01171875
-0.018310546875
0.0135498046875
-0.0087890625
0.0047607421875
-0.002197265625
0.0010986328125
-0.00146484375
-0.00146484375
-0.0010986328125
-0.002197265625
-0.0003662109375
0.01025390625
0.0018310546875
0.0047607421875
-0.0018310546875
-0.0062255859375
-0.0032958984375
-0.005126953125
0.000732421875
-0.0040283203125
-0.00439453125
-0.0087890625
0.027099609375
-0.11572265625
-0.0325927734375
0.0435791015625
-0.0245361328125
0.125244140625
0.040283203125
-0.0230712890625
0.0076904296875
-0.000732421875
0.0128173828125
-0.0062255859375
0.01318359375
-0.01025390625
0.000732421875
-0.0032958984375
-0.01904296875
0.0091552734375
-0.0142822265625
0.0069580078125
-0.003662109375
-0.0003662109375
0.0003662109375
-0.0029296875
0.0003662109375
-0.0003662109375
-0.0032958984375
0.0029296875
0.000732421875
0.00732421875
0.0029296875
-0.0018310546875
0.0003662109375
-0.0084228515625
-0.0032958984375
-0.0025634765625
0.0003662109375
-0.002197265625
-0.000732421875
-0.0091552734375
0.0164794921875
-0.0904541015625
-0.0260009765625
0.03076171875
-0.01318359375
0.0908203125
0.03662109375
-0.02197265625
0.0084228515625
-0.0018310546875
0.01318359375
-0.0047607421875
0.0146484375
-0.010986328125
0.005126953125
-0.00732421875
-0.0142822265625
0.0135498046875
-0.0150146484375
0.0135498046875
-0.0040283203125
-0.00146484375
-0.00439453125
-0.0062255859375
-0.0040283203125
-0.002197265625
-0.0047607421875
0.005859375
0.0032958984375
0.0087890625
0.00146484375
-0.0010986328125
-0.005859375
-0.0084228515625
-0.0047607421875
0.000732421875
-0.002197265625
0.0018310546875
0.000732421875
-0.0179443359375
0.0047607421875
-0.0765380859375
-0.02783203125
0.0413818359375
-0.005126953125
0.0732421875
0.0325927734375
-0.029296875
0.006591796875
-0.0040283203125
0.010986328125
-0.0062255859375
0.0120849609375
0.0029296875
-0.0025634765625
0.012451171875
-0.01611328125
0.01611328125
-0.0150146484375
0.008056640625
-0.0025634765625
-0.003662109375
0.00146484375
-0.002197265625
0.00146484375
-0.0040283203125
-0.002197265625
-0.0025634765625
-0.0018310546875
0.0076904296875
0.003662109375
0.000732421875
-0.00146484375
-0.0076904296875
-0.000732421875
-0.0010986328125
-0.0003662109375
0.0003662109375
-0.00146484375
0.00146484375
0.041748046875
-0.1365966796875
-0.037353515625
0.0142822265625
-0.037353515625
0.1402587890625
0.04541015625
-0.017578125
0.01025390625
-0.006591796875
0.0106201171875
-0.005126953125
0.0150146484375
-0.01318359375
0.005859375
-0.0106201171875
-0.0146484375
0.0069580078125
-0.016845703125
0.01171875
-0.00439453125
0.000732421875
0.0018310546875
-0.0040283203125
-0.0010986328125
-0.000732421875
-0.002197265625
0.0069580078125
-0.000732421875
0.0084228515625
0.0029296875
-0.002197265625
-0.002197265625
-0.0029296875
-0.00439453125
0.0
-0.00146484375
-0.0029296875
-0.005126953125
-0.009521484375
0.01025390625
-0.08349609375
-0.02783203125
0.034423828125
-0.0106201171875
0.0823974609375
0.03076171875
-0.029296875
0.0069580078125
-0.0076904296875
0.01171875
-0.0113525390625
0.010986328125
-0.0106201171875
0.0
-0.003662109375
-0.019775390625
0.012451171875
-0.0146484375
0.0135498046875
-0.0032958984375
0.0032958984375
0.00146484375
0.000732421875
0.0018310546875
0.0047607421875
-0.000732421875
0.00732421875
0.0025634765625
0.0128173828125
0.0032958984375
0.003662109375
-0.0003662109375
-0.0087890625
-0.003662109375
-0.0040283203125
-0.0003662109375
-0.0029296875
-0.0032958984375
-0.0142822265625
0.0164794921875
-0.095947265625
-0.028564453125
0.031494140625
-0.012451171875
0.0955810546875
0.041015625
-0.018310546875
0.0091552734375
-0.0047607421875
0.0135498046875
-0.0098876953125
0.01171875
-0.00732421875
0.0
-0.00146484375
-0.016845703125
0.01025390625
-0.0150146484375
0.0091552734375
-0.0040283203125
0.0010986328125
-0.00146484375
-0.002197265625
-0.000732421875
0.00146484375
-0.0032958984375
0.0106201171875
0.0047607421875
0.0010986328125
-0.0018310546875
-0.0029296875
-0.0062255859375
0.0
-0.00146484375
0.0
0.0
0.0032958984375
0.0186767578125
-0.0750732421875
-0.0545654296875
0.0238037109375
-0.0205078125
0.0791015625
0.05712890625
-0.02490234375
0.0135498046875
-0.008056640625
0.008056640625
-0.012451171875
0.010986328125
-0.0146484375
0.009521484375
-0.0091552734375
-0.010986328125
0.0054931640625
-0.0216064453125
0.0194091796875
-0.0128173828125
0.0113525390625
-0.002197265625
-0.003662109375
-0.00146484375
-0.0029296875
-0.0010986328125
0.0018310546875
-0.0003662109375
0.0113525390625
0.0054931640625
0.0032958984375
0.002197265625
-0.005859375
-0.005859375
0.0069580078125
0.000732421875
0.005859375
0.00146484375
-0.0029296875
0.0098876953125
-0.078369140625
-0.03076171875
0.015380859375
-0.018310546875
0.0963134765625
0.037353515625
-0.0087890625
0.0208740234375
-0.0179443359375
0.010986328125
-0.005859375
0.0128173828125
-0.0084228515625
0.012451171875
-0.0069580078125
-0.0076904296875
0.0040283203125
-0.018310546875
0.0087890625
-0.0098876953125
0.0025634765625
-0.002197265625
-0.0032958984375
0.0
-0.0018310546875
-0.0032958984375
0.0032958984375
-0.0003662109375
0.005859375
0.0032958984375
-0.0032958984375
-0.000732421875
-0.005859375
-0.0062255859375
-0.0003662109375
-0.000732421875
-0.002197265625
-0.0003662109375
0.00732421875
0.034423828125
-0.1131591796875
-0.05419921875
0.003662109375
-0.0355224609375
0.1124267578125
0.062255859375
-0.0120849609375
0.0084228515625
0.0
0.01025390625
-0.005126953125
0.0142822265625
-0.0135498046875
0.0087890625
-0.0135498046875
-0.0106201171875
0.0040283203125
-0.0208740234375
0.0142822265625
-0.0076904296875
0.005126953125
-0.0025634765625
-0.005859375
-0.003662109375
-0.003662109375
-0.00439453125
0.0047607421875
0.0032958984375
0.00439453125
0.00439453125
-0.0029296875
-0.00439453125
-0.005859375
-0.00439453125
-0.0003662109375
-0.0032958984375
0.0018310546875
-0.0003662109375
0.0084228515625
0.0399169921875
-0.162261962890625
-0.041748046875
0.016845703125
-0.0406494140625
0.160430908203125
0.0443115234375
-0.02783203125
0.0054931640625
-0.005126953125
0.008056640625
-0.0113525390625
0.010986328125
-0.01025390625
0.00146484375
-0.000732421875
-0.013916015625
0.0201416015625
-0.0205078125
0.0380859375
-0.01025390625
0.029296875
-0.005126953125
0.000732421875
-0.0047607421875
-0.0172119140625
-0.0040283203125
-0.0098876953125
-0.0047607421875
0.008056640625
-0.0029296875
0.0230712890625
-0.0146484375
0.05712890625
-0.0186767578125
0.09375
-0.0146484375
0.074005126953125
-0.01171875
0.029693603515625
0.037353515625
-0.161163330078125
-0.0523681640625
-0.057159423828125
-0.0465087890625
0.05859375
0.0498046875
-0.069580078125
0.0106201171875
-0.0333251953125
0.0150146484375
-0.0281982421875
0.0245361328125
-0.0164794921875
0.016845703125
-0.0062255859375
-0.005859375
0.003662109375
-0.0084228515625
0.008056640625
0.002197265625
-0.0018310546875
0.0069580078125
-0.0069580078125
0.0032958984375
-0.0040283203125
0.003662109375
0.008056640625
0.0084228515625
0.009521484375
0.00732421875
0.0047607421875
-0.0010986328125
0.00732421875
-0.002197265625
0.00146484375
0.0029296875
-0.005859375
0.009521484375
-0.0322265625
-0.013916015625
-0.01025390625
-0.015380859375
0.05126953125
0.030029296875
0.0084228515625
0.024169921875
-0.0263671875
0.0087890625
-0.0076904296875
0.0146484375
-0.01611328125
0.0128173828125
-0.02197265625
-0.00146484375
-0.0128173828125
-0.0223388671875
0.010986328125
-0.015380859375
0.0142822265625
-0.0029296875
0.0010986328125
0.0018310546875
-0.0047607421875
0.00146484375
0.0010986328125
-0.0025634765625
0.01025390625
0.0029296875
0.0062255859375
0.0018310546875
-0.005859375
-0.002197265625
-0.0069580078125
-0.0018310546875
-0.000732421875
0.00146484375
0.002197265625
0.0010986328125
-0.0362548828125
-0.0230712890625
-0.003662109375
-0.0216064453125
0.0736083984375
0.02490234375
0.013916015625
0.028564453125
-0.0245361328125
0.0069580078125
-0.0047607421875
0.012451171875
-0.0062255859375
0.009521484375
-0.0025634765625
-0.0062255859375
-0.0010986328125
-0.018310546875
0.00732421875
-0.0106201171875
0.0054931640625
0.0003662109375
-0.002197265625
-0.0003662109375
-0.002197265625
-0.0018310546875
0.0040283203125
-0.0010986328125
0.00732421875
0.0054931640625
-0.0040283203125
-0.00146484375
-0.0040283203125
-0.0047607421875
0.002197265625
0.000732421875
0.003662109375
0.0010986328125
0.0084228515625
0.0428466796875
-0.1439208984375
-0.0479736328125
0.00146484375
-0.03515625
0.132568359375
0.0567626953125
-0.0201416015625
0.0098876953125
-0.008056640625
0.0091552734375
-0.009521484375
0.0120849609375
-0.0087890625
0.0098876953125
-0.0091552734375
-0.0150146484375
0.006591796875
-0.022705078125
0.0194091796875
-0.01025390625
0.008056640625
-0.0018310546875
-0.003662109375
-0.003662109375
-0.0032958984375
-0.0018310546875
-0.0047607421875
0.0025634765625
0.0025634765625
0.0025634765625
0.000732421875
0.0
-0.0054931640625
-0.0040283203125
0.0003662109375
-0.0003662109375
0.002197265625
-0.0032958984375
0.009521484375
0.0369873046875
-0.159698486328125
-0.0406494140625
0.0333251953125
-0.0380859375
0.180206298828125
0.0479736328125
-0.0205078125
0.0087890625
-0.0098876953125
0.0120849609375
-0.0135498046875
0.01318359375
-0.0087890625
0.005126953125
-0.0029296875
-0.0146484375
0.0087890625
-0.015380859375
0.0091552734375
-0.0025634765625
0.0018310546875
-0.000732421875
-0.00146484375
0.0
-0.000732421875
-0.0025634765625
0.005126953125
0.0025634765625
0.006591796875
0.0018310546875
0.0029296875
-0.0040283203125
0.01025390625
-0.005859375
0.0142822265625
-0.0040283203125
0.000732421875
0.0
-0.0289306640625
-0.01171875
-0.046142578125
-0.0208740234375
0.0545654296875
0.013916015625
0.03662109375
0.029296875
-0.0406494140625
0.0091552734375
-0.003662109375
0.0146484375
0.00146484375
0.01611328125
0.0146484375
-0.0018310546875
0.0142822265625
-0.0172119140625
0.0069580078125
-0.0142822265625
0.005126953125
-0.0010986328125
0.0032958984375
-0.0010986328125
-0.0003662109375
0.0003662109375
-0.003662109375
0.0003662109375
0.012451171875
0.0029296875
0.0076904296875
-0.000732421875
-0.0186767578125
-0.0091552734375
-0.0234375
-0.00439453125
-0.01611328125
-0.0032958984375
-0.0098876953125
0.00439453125
-0.060791015625
-0.03955078125
0.0263671875
-0.0172119140625
0.063720703125
0.0380859375
-0.052001953125
0.013916015625
-0.03955078125
0.0069580078125
-0.0091552734375
0.0106201171875
-0.0047607421875
0.01025390625
0.0
-0.006591796875
0.0113525390625
-0.01611328125
0.0172119140625
-0.008056640625
0.0120849609375
0.000732421875
0.005859375
0.002197265625
0.0032958984375
0.00146484375
0.000732421875
0.0018310546875
0.0054931640625
0.0054931640625
-0.002197265625
0.0047607421875
-0.0113525390625
-0.0040283203125
-0.0003662109375
-0.0010986328125
0.0018310546875
0.0
0.0076904296875
0.016845703125
-0.0662841796875
-0.05712890625
0.03369140625
-0.0205078125
0.0867919921875
0.0640869140625
-0.0318603515625
0.0120849609375
-0.0205078125
0.0098876953125
-0.0186767578125
0.01318359375
-0.0106201171875
0.0135498046875
0.00146484375
-0.005859375
0.017578125
-0.0194091796875
0.0223388671875
-0.0084228515625
0.0106201171875
-0.0010986328125
0.000732421875
0.003662109375
-0.0032958984375
-0.0003662109375
-0.0098876953125
0.00146484375
-0.00439453125
0.0003662109375
0.0
-0.00439453125
-0.0069580078125
-0.003662109375
-0.0047607421875
-0.005126953125
-0.00439453125
-0.00439453125
0.0098876953125
0.0391845703125
-0.160064697265625
-0.0369873046875
0.0157470703125
-0.041015625
0.160797119140625
0.0399169921875
-0.0296630859375
0.0010986328125
0.0003662109375
0.0069580078125
-0.0025634765625
0.01025390625
-0.0087890625
-0.0025634765625
-0.0128173828125
-0.0164794921875
0.002197265625
-0.01904296875
0.01318359375
-0.005859375
0.0010986328125
-0.000732421875
-0.002197265625
0.0010986328125
-0.0003662109375
0.0018310546875
0.003662109375
0.0029296875
0.01318359375
0.0087890625
0.005859375
0.00146484375
-0.01025390625
0.0
-0.008056640625
0.000732421875
-0.005126953125
-0.0025634765625
-0.008056640625
0.0340576171875
-0.134063720703125
-0.034423828125
0.018310546875
-0.02783203125
0.131866455078125
0.046142578125
-0.016845703125
0.010986328125
-0.0032958984375
0.01171875
-0.0076904296875
0.0142822265625
-0.0098876953125
0.00146484375
-0.002197265625
-0.0179443359375
0.008056640625
-0.01611328125
0.0150146484375
-0.0040283203125
0.006591796875
0.0018310546875
-0.00146484375
-0.0029296875
0.005859375
-0.003662109375
0.01611328125
0.0040283203125
0.008056640625
0.003662109375
0.0018310546875
-0.0040283203125
0.0150146484375
-0.002197265625
0.0238037109375
-0.0003662109375
0.01611328125
0.01171875
-0.0732421875
-0.050537109375
0.0142822265625
-0.017578125
0.05712890625
0.0545654296875
-0.041748046875
0.0076904296875
-0.0113525390625
0.0062255859375
-0.01025390625
0.01318359375
-0.0146484375
0.009521484375
-0.01611328125
-0.0087890625
0.0003662109375
-0.024169921875
0.016845703125
-0.0120849609375
0.0084228515625
-0.0025634765625
0.0
0.0
-0.00439453125
-0.000732421875
0.0
0.0
0.01025390625
0.0069580078125
0.00439453125
0.0
0.0010986328125
-0.005126953125
0.0091552734375
-0.0040283203125
0.0087890625
-0.0010986328125
0.010986328125
0.01611328125
-0.091552734375
-0.0435791015625
0.0084228515625
-0.019775390625
0.0966796875
0.04833984375
-0.01904296875
0.0135498046875
-0.012451171875
0.009521484375
-0.009521484375
0.0146484375
-0.0106201171875
0.0087890625
-0.0084228515625
-0.0098876953125
0.0047607421875
-0.0186767578125
0.01171875
-0.008056640625
0.0032958984375
-0.0003662109375
0.0
-0.000732421875
-0.0029296875
-0.00146484375
0.0018310546875
-0.0003662109375
0.005859375
0.003662109375
-0.0029296875
-0.0029296875
-0.0040283203125
-0.0047607421875
0.0
-0.00146484375
0.002197265625
-0.0032958984375
-0.002197265625
0.02783203125
-0.111328125
-0.0303955078125
0.024169921875
-0.022705078125
0.112060546875
0.0384521484375
-0.0216064453125
0.0084228515625
-0.008056640625
0.0113525390625
-0.0135498046875
0.0142822265625
-0.015380859375
0.0018310546875
-0.005859375
-0.0223388671875
0.0157470703125
-0.0205078125
0.0194091796875
-0.0069580078125
0.0032958984375
0.0010986328125
-0.0062255859375
-0.0003662109375
-0.0029296875
-0.0018310546875
-0.002197265625
-0.000732421875
0.01171875
0.00146484375
0.0091552734375
0.0010986328125
-0.006591796875
-0.003662109375
-0.0018310546875
-0.00146484375
-0.0029296875
-0.003662109375
-0.002197265625
0.03515625
-0.156402587890625
-0.03515625
0.031494140625
-0.032958984375
0.156402587890625
0.0439453125
-0.0289306640625
0.0069580078125
0.00146484375
0.01171875
-0.000732421875
0.0113525390625
0.00146484375
0.0029296875
0.00439453125
-0.01611328125
0.009521484375
-0.015380859375
0.0062255859375
-0.0029296875
-0.0003662109375
-0.00146484375
-0.0018310546875
0.0
-0.0003662109375
-0.0029296875
0.00146484375
0.000732421875
0.0076904296875
0.0029296875
0.0010986328125
0.0018310546875
-0.0076904296875
-0.00146484375
-0.0010986328125
-0.0010986328125
-0.0010986328125
-0.000732421875
0.002197265625
0.0421142578125
-0.1424560546875
-0.0362548828125
0.0098876953125
-0.0391845703125
0.1395263671875
0.0472412109375
-0.017578125
0.00732421875
-0.0032958984375
0.0113525390625
-0.0084228515625
0.0146484375
-0.01318359375
0.003662109375
-0.0076904296875
-0.015380859375
0.010986328125
-0.0172119140625
0.015380859375
-0.002197265625
0.003662109375
-0.0010986328125
-0.000732421875
-0.000732421875
-0.00146484375
-0.0018310546875
0.00146484375
0.00146484375
0.005859375
0.0025634765625
0.003662109375
-0.005126953125
0.0
-0.00439453125
0.00439453125
-0.005859375
0.0040283203125
-0.00732421875
-0.005859375
0.0098876953125
-0.085693359375
-0.0245361328125
0.03662109375
-0.0091552734375
0.084228515625
0.0322265625
-0.0369873046875
0.0076904296875
-0.01025390625
0.0113525390625
-0.012451171875
0.01318359375
-0.0091552734375
-0.002197265625
0.00146484375
-0.0172119140625
0.0172119140625
-0.0150146484375
0.02197265625
-0.00439453125
0.0128173828125
-0.0003662109375
-0.0003662109375
0.00146484375
-0.008056640625
0.0113525390625
0.0025634765625
0.0384521484375
0.032958984375
0.091552734375
-0.0069580078125
-0.0091552734375
-0.03515625
-0.1256103515625
0.1116943359375
-0.0498046875
-0.0303955078125
0.0032958984375
-0.166259765625
-0.00439453125
-0.040283203125
0.000732421875
-0.03955078125
0.015380859375
-0.0245361328125
0.0223388671875
0.035888671875
0.015380859375
0.082763671875
0.002197265625
0.0552978515625
-0.00146484375
0.0084228515625
-0.0010986328125
-0.0010986328125
-0.0025634765625
0.0025634765625
-0.0003662109375
0.00439453125
-0.0029296875
0.006591796875
0.0018310546875
0.0062255859375
0.003662109375
0.0128173828125
0.0018310546875
0.0289306640625
0.0084228515625
0.0164794921875
0.0098876953125
-0.0216064453125
0.002197265625
-0.0281982421875
-0.0018310546875
-0.0164794921875
-0.0010986328125
-0.0106201171875
0.0018310546875
-0.0406494140625
-0.034423828125
0.005859375
-0.0260009765625
0.0582275390625
0.0325927734375
-0.01318359375
0.0205078125
-0.0322265625
0.0040283203125
-0.0106201171875
0.01318359375
-0.0142822265625
0.0120849609375
-0.0172119140625
0.0
-0.00439453125
-0.01904296875
0.016845703125
-0.0194091796875
0.016845703125
-0.0076904296875
0.005126953125
-0.0003662109375
-0.000732421875
0.0018310546875
0.006591796875
-0.0003662109375
0.01171875
0.0062255859375
0.0040283203125
-0.0003662109375
0.002197265625
-0.005126953125
0.006591796875
-0.0029296875
0.0076904296875
-0.0018310546875
0.0106201171875
0.0029296875
-0.046142578125
-0.0369873046875
0.0069580078125
-0.0179443359375
0.0758056640625
0.0406494140625
-0.0087890625
0.02490234375
-0.0274658203125
0.00732421875
-0.009521484375
0.01318359375
-0.0120849609375
0.0106201171875
-0.0084228515625
-0.008056640625
0.002197265625
-0.0179443359375
0.012451171875
-0.0106201171875
0.006591796875
0.0
0.000732421875
-0.0010986328125
0.0025634765625
-0.0025634765625
0.0084228515625
-0.000732421875
0.0113525390625
0.0025634765625
-0.0032958984375
-0.0018310546875
-0.0098876953125
-0.005126953125
-0.0054931640625
-0.0010986328125
-0.002197265625
-0.000732421875
0.008056640625
0.0501708984375
-0.1527099609375
-0.04248046875
0.0120849609375
-0.0465087890625
0.1519775390625
0.043212890625
-0.0208740234375
0.0032958984375
-0.0076904296875
0.0098876953125
-0.01171875
0.0157470703125
-0.0084228515625
0.0120849609375
-0.0032958984375
-0.015380859375
0.0113525390625
-0.019775390625
0.016845703125
-0.00732421875
0.002197265625
0.0
-0.009521484375
0.000732421875
-0.008056640625
-0.0029296875
-0.003662109375
0.0
0.01025390625
0.0018310546875
0.00732421875
0.0
-0.003662109375
-0.0040283203125
0.00146484375
-0.000732421875
0.002197265625
-0.00146484375
0.010986328125
0.0391845703125
-0.1549072265625
-0.0384521484375
0.037353515625
-0.038818359375
0.1845703125
0.0487060546875
-0.0087890625
0.0091552734375
0.0025634765625
0.012451171875
-0.017578125
0.013916015625
-0.0216064453125
0.002197265625
-0.0179443359375
-0.016845703125
-0.006591796875
-0.01904296875
-0.0018310546875
-0.005859375
-0.0069580078125
-0.0029296875
-0.0084228515625
-0.00146484375
-0.0040283203125
-0.003662109375
0.005859375
0.00146484375
0.0040283203125
0.0025634765625
-0.0040283203125
-0.0040283203125
-0.0054931640625
-0.0032958984375
-0.00146484375
-0.000732421875
-0.0003662109375
0.00439453125
-0.0245361328125
-0.012451171875
-0.0355224609375
-0.0194091796875
0.0523681640625
0.018310546875
0.04833984375
0.02783203125
-0.01904296875
0.0091552734375
0.0025634765625
0.013916015625
-0.00146484375
0.0142822265625
-0.0369873046875
-0.0054931640625
-0.0377197265625
-0.0205078125
0.0010986328125
-0.01904296875
0.0106201171875
-0.00439453125
0.0029296875
0.0
0.000732421875
-0.0010986328125
0.00146484375
-0.0003662109375
0.0076904296875
0.0025634765625
0.00732421875
0.0010986328125
0.0010986328125
-0.00732421875
-0.0029296875
-0.00146484375
-0.002197265625
0.000732421875
-0.000732421875
-0.0010986328125
-0.0164794921875
-0.0069580078125
-0.028564453125
-0.024169921875
0.0604248046875
0.008056640625
0.0421142578125
0.028564453125
-0.037353515625
0.008056640625
-0.01025390625
0.0091552734375
-0.0084228515625
0.01171875
-0.0025634765625
-0.0025634765625
0.0087890625
-0.0186767578125
0.0150146484375
-0.0120849609375
0.0098876953125
-0.00146484375
-0.000732421875
0.0029296875
-0.003662109375
0.00146484375
-0.0010986328125
0.000732421875
0.000732421875
0.0010986328125
0.0106201171875
0.0040283203125
0.00439453125
-0.0003662109375
-0.0062255859375
-0.0018310546875
-0.0047607421875
0.0010986328125
-0.003662109375
-0.000732421875
-0.016845703125
0.006591796875
-0.07763671875
-0.025634765625
0.03662109375
-0.0010986328125
0.075439453125
0.032958984375
-0.0208740234375
0.008056640625
-0.005859375
0.0128173828125
-0.0120849609375
0.0150146484375
-0.01025390625
0.000732421875
-0.0010986328125
-0.0194091796875
0.01318359375
-0.01318359375
0.0120849609375
-0.003662109375
0.00146484375
0.0003662109375
-0.0047607421875
-0.00146484375
0.00146484375
-0.000732421875
0.0142822265625
0.0084228515625
0.008056640625
0.0025634765625
-0.0040283203125
-0.005859375
-0.000732421875
-0.0069580078125
0.0018310546875
-0.00146484375
-0.0010986328125
0.003662109375
-0.046142578125
-0.0362548828125
0.0135498046875
-0.022705078125
0.06884765625
0.0318603515625
-0.016845703125
0.017578125
-0.0303955078125
0.0062255859375
-0.00732421875
0.01318359375
-0.009521484375
0.0091552734375
-0.0087890625
-0.0054931640625
0.003662109375
-0.01904296875
0.01611328125
-0.0106201171875
0.010986328125
0.0010986328125
0.0069580078125
0.0010986328125
0.0018310546875
0.0018310546875
-0.0003662109375
-0.000732421875
0.0069580078125
0.0054931640625
0.0062255859375
0.002197265625
-0.002197265625
-0.0047607421875
-0.005126953125
-0.0029296875
-0.000732421875
-0.0010986328125
-0.0032958984375
0.005859375
-0.044677734375
-0.03955078125
0.010986328125
-0.017578125
0.06298828125
0.0428466796875
-0.0106201171875
0.0230712890625
-0.0245361328125
0.009521484375
-0.0069580078125
0.01318359375
-0.0106201171875
0.0128173828125
-0.0106201171875
-0.0069580078125
0.0003662109375
-0.0186767578125
0.0157470703125
-0.0142822265625
0.0120849609375
-0.003662109375
0.000732421875
-0.00146484375
0.0062255859375
-0.002197265625
0.0098876953125
-0.000732421875
0.006591796875
0.0029296875
-0.0076904296875
-0.00146484375
-0.0128173828125
-0.006591796875
-0.005126953125
0.0010986328125
-0.0029296875
0.000732421875
0.013916015625
0.031494140625
-0.116455078125
-0.052001953125
0.0
-0.0318603515625
0.1116943359375
0.054931640625
-0.017578125
0.0062255859375
-0.0047607421875
0.00732421875
-0.010986328125
0.008056640625
-0.0087890625
0.00732421875
-0.003662109375
-0.0120849609375
0.0106201171875
-0.0194091796875
0.01318359375
-0.0076904296875
-0.0003662109375
0.0010986328125
-0.0084228515625
0.0054931640625
-0.0054931640625
0.0025634765625
0.0
0.003662109375
0.0069580078125
0.005859375
0.0025634765625
0.000732421875
-0.002197265625
-0.006591796875
0.005126953125
-0.002197265625
0.005126953125
0.0003662109375
0.0120849609375
0.015380859375
-0.090087890625
-0.0443115234375
0.015380859375
-0.019775390625
0.1007080078125
0.0516357421875
-0.021240234375
0.012451171875
-0.0113525390625
0.01171875
-0.0120849609375
0.01318359375
-0.01025390625
0.006591796875
0.0003662109375
-0.01025390625
0.037353515625
-0.0205078125
0.059326171875
-0.0087890625
0.0205078125
-0.0029296875
-0.0421142578125
0.000732421875
-0.056396484375
-0.00146484375
-0.0205078125
0.0
0.0003662109375
0.002197265625
-0.00439453125
-0.0029296875
-0.01025390625
-0.0029296875
-0.003662109375
-0.0029296875
-0.0010986328125
0.0
0.0062255859375
0.0457763671875
-0.152008056640625
-0.04248046875
0.0106201171875
-0.0421142578125
0.152740478515625
0.0501708984375
-0.0179443359375
0.0084228515625
-0.003662109375
0.0084228515625
-0.0113525390625
0.012451171875
-0.010986328125
0.0047607421875
-0.003662109375
-0.0120849609375
0.008056640625
-0.0194091796875
0.015380859375
-0.0087890625
0.005859375
-0.00146484375
-0.0003662109375
-0.00146484375
0.0029296875
-0.000732421875
0.00439453125
0.000732421875
0.008056640625
0.0032958984375
0.0040283203125
-0.0032958984375
-0.0025634765625
-0.002197265625
-0.00146484375
-0.0003662109375
0.0003662109375
-0.00146484375
0.0113525390625
0.03076171875
-0.144683837890625
-0.043212890625
0.010986328125
-0.0296630859375
0.153106689453125
0.0465087890625
-0.0091552734375
0.0091552734375
0.009521484375
0.0087890625
0.015380859375
0.009521484375
0.0164794921875
0.0032958984375
-0.0003662109375
-0.0135498046875
-0.009521484375
-0.0146484375
-0.000732421875
-0.0025634765625
-0.002197265625
0.0047607421875
-0.005126953125
0.00146484375
-0.002197265625
-0.0003662109375
0.0047607421875
0.00146484375
0.0128173828125
0.0047607421875
0.003662109375
-0.0010986328125
0.0025634765625
-0.005126953125
0.0120849609375
0.0
0.010986328125
-0.002197265625
0.013916015625
0.0347900390625
-0.1358642578125
-0.05126953125
-0.0069580078125
-0.032958984375
0.1182861328125
0.0556640625
-0.0172119140625
0.0069580078125
-0.0018310546875
0.01171875
-0.009521484375
0.0142822265625
-0.0113525390625
0.0113525390625
-0.008056640625
-0.01171875
0.00732421875
-0.0194091796875
0.013916015625
-0.0087890625
0.0040283203125
-0.00146484375
-0.0025634765625
0.0003662109375
-0.0018310546875
-0.0018310546875
0.0
0.0032958984375
0.0091552734375
0.0029296875
0.00732421875
-0.002197265625
-0.0018310546875
-0.0062255859375
0.000732421875
0.00146484375
0.0029296875
0.0047607421875
0.0216064453125
0.035888671875
-0.1468505859375
-0.0406494140625
0.0201416015625
-0.03662109375
0.1607666015625
0.0435791015625
-0.0347900390625
0.003662109375
-0.024169921875
0.0106201171875
-0.024169921875
0.0142822265625
-0.016845703125
0.0054931640625
-0.0087890625
-0.0142822265625
0.01025390625
-0.0223388671875
0.018310546875
-0.008056640625
0.010986328125
-0.00146484375
0.0069580078125
0.000732421875
0.0003662109375
-0.000732421875
-0.0003662109375
0.0029296875
0.008056640625
0.0054931640625
0.00146484375
-0.002197265625
-0.0069580078125
-0.003662109375
-0.000732421875
-0.000732421875
-0.00146484375
0.000732421875
0.0040283203125
0.030029296875
-0.12158203125
-0.05126953125
-0.0003662109375
-0.030029296875
0.1153564453125
0.0582275390625
-0.012451171875
0.01025390625
-0.00146484375
0.01025390625
-0.01025390625
0.0150146484375
-0.01318359375
0.0076904296875
-0.00732421875
-0.0106201171875
0.0062255859375
-0.019775390625
0.015380859375
-0.005859375
0.0069580078125
0.0025634765625
0.0029296875
0.000732421875
-0.0032958984375
-0.000732421875
-0.00439453125
0.000732421875
0.0062255859375
0.00439453125
0.0018310546875
-0.0029296875
-0.0029296875
-0.0054931640625
0.0029296875
-0.0040283203125
0.00732421875
-0.0029296875
0.0172119140625
0.03369140625
-0.1611328125
-0.046875
0.0091552734375
-0.0413818359375
0.15234375
0.038818359375
-0.0347900390625
0.0032958984375
-0.0069580078125
0.0091552734375
-0.0142822265625
0.01318359375
-0.016845703125
0.002197265625
-0.008056640625
-0.0135498046875
0.006591796875
-0.0106201171875
0.0194091796875
0.0018310546875
0.01611328125
0.0084228515625
0.0142822265625
0.0032958984375
0.0087890625
-0.00146484375
0.0003662109375
-0.0029296875
0.0032958984375
0.0010986328125
-0.00732421875
-0.0025634765625
-0.0084228515625
-0.0069580078125
0.00732421875
-0.0047607421875
0.0146484375
-0.005859375
0.0186767578125
0.0355224609375
-0.1607666015625
-0.0509033203125
-0.0260009765625
-0.03955078125
0.120849609375
0.052734375
-0.0128173828125
0.0135498046875
0.005859375
0.0172119140625
-0.0135498046875
0.0179443359375
-0.010986328125
0.01171875
-0.0003662109375
-0.010986328125
0.005126953125
-0.0142822265625
0.0
-0.0040283203125
-0.0106201171875
0.0003662109375
-0.0087890625
0.0
-0.0032958984375
-0.0032958984375
0.002197265625
0.0003662109375
0.0098876953125
0.0010986328125
0.0032958984375
-0.0029296875
-0.0025634765625
-0.005126953125
0.000732421875
0.0010986328125
-0.0010986328125
-0.0029296875
-0.0010986328125
0.022705078125
-0.1124267578125
-0.0281982421875
0.024169921875
-0.0223388671875
0.116455078125
0.0377197265625
-0.0194091796875
0.0047607421875
-0.005859375
0.01025390625
-0.01171875
0.0113525390625
-0.0091552734375
-0.0003662109375
-0.0032958984375
-0.0179443359375
0.0146484375
-0.0179443359375
0.016845703125
-0.005126953125
0.0047607421875
-0.002197265625
0.0029296875
0.000732421875
0.0025634765625
-0.002197265625
0.0010986328125
0.0018310546875
0.00439453125
0.0062255859375
-0.000732421875
-0.0003662109375
-0.00439453125
-0.0040283203125
0.0010986328125
-0.0029296875
0.0
0.0
0.009521484375
0.0205078125
-0.1171875
-0.0421142578125
0.0128173828125
-0.0238037109375
0.128173828125
0.0479736328125
-0.0120849609375
0.01025390625
-0.0025634765625
0.0091552734375
-0.008056640625
0.0146484375
-0.01025390625
0.00732421875
-0.0076904296875
-0.0106201171875
0.00439453125
-0.0194091796875
0.01318359375
-0.0062255859375
0.0047607421875
-0.000732421875
-0.000732421875
-0.0003662109375
0.0
-0.0018310546875
0.0076904296875
-0.00146484375
0.01904296875
0.0054931640625
0.008056640625
-0.002197265625
-0.012451171875
-0.005859375
-0.0135498046875
-0.0029296875
-0.0084228515625
0.0
0.0106201171875
0.025634765625
-0.0787353515625
-0.0567626953125
0.0146484375
-0.027099609375
0.0809326171875
0.0589599609375
-0.03369140625
0.01025390625
-0.0128173828125
0.009521484375
-0.013916015625
0.0150146484375
-0.016845703125
0.00732421875
-0.0091552734375
-0.0128173828125
0.0135498046875
-0.019775390625
0.0289306640625
-0.0098876953125
0.0245361328125
0.0018310546875
0.009521484375
0.0025634765625
0.0032958984375
0.0025634765625
0.0
0.0003662109375
-0.005859375
0.005126953125
-0.0062255859375
0.00146484375
-0.005126953125
-0.005126953125
-0.002197265625
-0.002197265625
0.0025634765625
-0.0025634765625
0.006591796875
0.0029296875
-0.0413818359375
-0.035888671875
0.0025634765625
-0.0208740234375
0.06298828125
0.03515625
-0.01171875
0.0234375
-0.031494140625
0.0098876953125
-0.0084228515625
0.012451171875
-0.0084228515625
0.01318359375
-0.0069580078125
-0.0062255859375
0.0018310546875
-0.01904296875
0.0120849609375
-0.01171875
0.008056640625
0.0
-0.0003662109375
0.0010986328125
-0.0010986328125
0.00146484375
0.0
0.0018310546875
0.0106201171875
0.003662109375
0.00439453125
0.000732421875
-0.005859375
-0.0084228515625
0.0
-0.0018310546875
0.0003662109375
0.0003662109375
0.00146484375
0.01025390625
-0.0472412109375
-0.0494384765625
0.0289306640625
-0.01904296875
0.060791015625
0.052001953125
-0.030029296875
0.0146484375
-0.0157470703125
0.012451171875
-0.0076904296875
0.0146484375
-0.0128173828125
0.0150146484375
-0.01611328125
-0.0032958984375
-0.0047607421875
-0.0234375
0.013916015625
-0.017578125
0.01171875
-0.00732421875
0.00146484375
-0.0025634765625
0.0003662109375
-0.000732421875
0.000732421875
0.000732421875
0.0
0.0
0.01025390625
0.00146484375
0.0069580078125
-0.0018310546875
-0.0025634765625
-0.0032958984375
0.00146484375
-0.0003662109375
0.0003662109375
-0.0047607421875
-0.0106201171875
0.0201416015625
-0.122314453125
-0.0333251953125
0.03515625
-0.019775390625
0.117919921875
0.03955078125
-0.030029296875
0.0076904296875
-0.0018310546875
0.01025390625
0.0
0.0120849609375
0.0091552734375
0.0029296875
0.028564453125
-0.0150146484375
0.037353515625
-0.0106201171875
0.0208740234375
0.0003662109375
-0.005126953125
0.0032958984375
-0.0194091796875
0.0025634765625
-0.0194091796875
-0.0018310546875
-0.01171875
0.0
0.006591796875
0.0040283203125
0.0047607421875
0.0
-0.00439453125
-0.005126953125
-0.0084228515625
0.0
-0.0157470703125
0.0
-0.0018310546875
0.0369873046875
-0.13330078125
-0.052001953125
0.00146484375
-0.0384521484375
0.1263427734375
0.056396484375
-0.01025390625
0.005859375
0.0025634765625
0.0098876953125
0.0032958984375
0.012451171875
0.0003662109375
0.0087890625
-0.01318359375
-0.01025390625
-0.0047607421875
-0.0194091796875
0.0047607421875
-0.0087890625
-0.000732421875
-0.003662109375
-0.0047607421875
0.0
-0.0054931640625
-0.0032958984375
-0.000732421875
0.000732421875
0.005859375
0.0032958984375
0.0032958984375
-0.0029296875
-0.0025634765625
-0.0062255859375
0.00146484375
-0.0040283203125
0.0032958984375
0.0
0.009521484375
0.0164794921875
-0.0941162109375
-0.0439453125
0.01904296875
-0.01904296875
0.0985107421875
0.0494384765625
-0.034423828125
0.008056640625
-0.0157470703125
0.008056640625
-0.010986328125
0.0146484375
-0.0098876953125
0.009521484375
-0.0076904296875
-0.0069580078125
0.008056640625
-0.0179443359375
0.0230712890625
-0.0069580078125
0.0135498046875
-0.0018310546875
0.002197265625
0.0003662109375
-0.00146484375
0.0029296875
0.0010986328125
0.000732421875
0.00146484375
0.0040283203125
0.0054931640625
0.0010986328125
0.0010986328125
-0.0025634765625
-0.00732421875
-0.0047607421875
-0.00146484375
-0.000732421875
-0.000732421875
-0.000732421875
-0.0128173828125
0.0062255859375
-0.0791015625
-0.025634765625
0.0362548828125
-0.0029296875
0.08056640625
0.0362548828125
-0.0234375
0.006591796875
-0.0010986328125
0.01171875
-0.005859375
0.01318359375
-0.0120849609375
0.000732421875
-0.006591796875
-0.0179443359375
0.010986328125
-0.0164794921875
0.0135498046875
-0.0029296875
0.00146484375
-0.0010986328125
-0.0029296875
-0.0003662109375
-0.0010986328125
-0.005859375
0.008056640625
0.0003662109375
0.0084228515625
0.002197265625
-0.0003662109375
-0.003662109375
-0.0054931640625
-0.002197265625
-0.0047607421875
-0.0047607421875
-0.0010986328125
-0.0029296875
-0.0098876953125
-0.000732421875
-0.0633544921875
-0.024169921875
0.0384521484375
0.000732421875
0.064453125
0.029296875
-0.029296875
0.005126953125
-0.0040283203125
0.0106201171875
-0.0135498046875
0.0120849609375
-0.0135498046875
-0.0029296875
-0.0032958984375
-0.0150146484375
0.01025390625
-0.0142822265625
0.013916015625
-0.0029296875
0.0032958984375
0.000732421875
0.0
0.002197265625
0.000732421875
0.0
0.0025634765625
0.000732421875
0.0135498046875
0.005126953125
0.0084228515625
-0.000732421875
-0.006591796875
-0.0010986328125
-0.0040283203125
-0.00146484375
-0.0010986328125
-0.0018310546875
0.00146484375
0.040283203125
-0.154937744140625
-0.03955078125
0.0186767578125
-0.03662109375
0.161895751953125
0.046875
-0.0113525390625
0.01025390625
0.0172119140625
0.01171875
0.0252685546875
0.0128173828125
-0.01611328125
0.00146484375
-0.03955078125
-0.01611328125
-0.01025390625
-0.0157470703125
0.00732421875
-0.003662109375
0.005859375
0.0025634765625
0.0113525390625
-0.0003662109375
0.019775390625
-0.00146484375
0.0164794921875
0.0
-0.000732421875
0.00439453125
-0.0205078125
0.0018310546875
-0.015380859375
-0.0018310546875
-0.0032958984375
-0.00146484375
0.00146484375
-0.0076904296875
0.0054931640625
0.0245361328125
-0.1259765625
-0.0303955078125
0.008056640625
-0.0234375
0.111328125
0.0369873046875
-0.0267333984375
0.003662109375
-0.0069580078125
0.0062255859375
-0.0098876953125
0.0106201171875
-0.012451171875
0.0040283203125
-0.006591796875
-0.016845703125
0.0135498046875
-0.0150146484375
0.017578125
-0.0040283203125
0.008056640625
-0.000732421875
0.005859375
-0.0003662109375
0.0069580078125
-0.0003662109375
0.005126953125
0.00146484375
0.0087890625
0.0032958984375
-0.0003662109375
0.000732421875
-0.0062255859375
-0.0032958984375
0.0025634765625
0.000732421875
0.0040283203125
0.0
0.0120849609375
0.0322265625
-0.1380615234375
-0.0428466796875
0.0113525390625
-0.03076171875
0.1439208984375
0.0509033203125
-0.0146484375
0.0084228515625
-0.0040283203125
0.01025390625
-0.010986328125
0.01025390625
-0.01318359375
0.005126953125
-0.009521484375
-0.01318359375
0.0054931640625
-0.0186767578125
0.0098876953125
-0.005859375
0.0018310546875
-0.0018310546875
-0.00146484375
0.0003662109375
-0.0029296875
-0.0025634765625
0.0010986328125
0.0025634765625
0.00732421875
0.0029296875
0.000732421875
-0.0018310546875
-0.00439453125
-0.002197265625
-0.0010986328125
-0.0003662109375
-0.002197265625
0.0025634765625
0.0091552734375
0.04541015625
-0.155303955078125
-0.03955078125
0.010986328125
-0.0443115234375
0.154205322265625
0.0435791015625
-0.022705078125
0.0040283203125
-0.00439453125
0.0076904296875
-0.0091552734375
0.01318359375
-0.01171875
0.00439453125
-0.00732421875
-0.0135498046875
0.0098876953125
-0.0205078125
0.01611328125
-0.0084228515625
0.0062255859375
-0.000732421875
-0.0003662109375
0.0
0.00146484375
0.000732421875
0.008056640625
0.002197265625
0.013916015625
0.00732421875
0.0087890625
-0.000732421875
0.003662109375
-0.00439453125
0.005859375
-0.000732421875
0.0040283203125
0.0
0.0062255859375
0.01904296875
-0.10546875
-0.0450439453125
0.0032958984375
-0.0208740234375
0.103271484375
0.0498046875
-0.01611328125
0.0113525390625
-0.0098876953125
0.0069580078125
-0.0113525390625
0.01318359375
-0.01611328125
0.00732421875
-0.01171875
-0.01171875
0.0032958984375
-0.01904296875
0.01171875
-0.0098876953125
0.003662109375
-0.00146484375
-0.002197265625
-0.0010986328125
-0.002197265625
-0.00146484375
0.0032958984375
0.0
0.008056640625
0.0054931640625
-0.0025634765625
-0.0018310546875
-0.0029296875
-0.0047607421875
0.0
-0.0003662109375
-0.002197265625
-0.0010986328125
0.008056640625
0.0325927734375
-0.11279296875
-0.0552978515625
0.0069580078125
-0.0296630859375
0.11279296875
0.06005859375
-0.016845703125
0.0087890625
-0.0032958984375
0.010986328125
-0.0076904296875
0.01318359375
-0.0164794921875
0.0106201171875
-0.0146484375
-0.012451171875
0.005859375
-0.0230712890625
0.021240234375
-0.010986328125
0.01171875
0.0
-0.0010986328125
-0.00146484375
0.00146484375
-0.0047607421875
0.0091552734375
-0.0029296875
0.0084228515625
0.003662109375
-0.0029296875
0.0018310546875
-0.0069580078125
-0.00439453125
-0.003662109375
0.000732421875
-0.0029296875
-0.0025634765625
0.003662109375
0.002197265625
-0.046142578125
-0.030029296875
0.0208740234375
-0.0205078125
0.0882568359375
0.0322265625
-0.00732421875
0.0201416015625
-0.0325927734375
0.0098876953125
-0.012451171875
0.0106201171875
-0.00439453125
0.0113525390625
0.000732421875
-0.0040283203125
0.009521484375
-0.016845703125
0.0164794921875
-0.0091552734375
0.0128173828125
-0.0025634765625
0.0106201171875
0.0
0.005126953125
-0.000732421875
-0.005126953125
0.000732421875
-0.005126953125
0.0018310546875
0.006591796875
0.005859375
-0.0018310546875
0.000732421875
-0.010986328125
-0.0032958984375
-0.00439453125
0.0
-0.0010986328125
-0.0010986328125
-0.0091552734375
0.0186767578125
-0.0955810546875
-0.027099609375
0.027099609375
-0.0113525390625
0.091552734375
0.035888671875
-0.0216064453125
0.008056640625
-0.006591796875
0.0120849609375
-0.01171875
0.0128173828125
-0.013916015625
0.0029296875
-0.0054931640625
-0.018310546875
0.010986328125
-0.0157470703125
0.010986328125
-0.0040283203125
0.0018310546875
-0.000732421875
-0.003662109375
-0.0025634765625
-0.000732421875
-0.003662109375
0.0098876953125
0.0025634765625
0.0069580078125
0.00146484375
-0.0062255859375
-0.00439453125
-0.008056640625
-0.0069580078125
-0.0025634765625
-0.00146484375
0.0018310546875
0.003662109375
-0.030029296875
-0.0281982421875
-0.003662109375
-0.01904296875
0.053466796875
0.0318603515625
-0.0010986328125
0.0205078125
-0.0223388671875
0.0032958984375
-0.00146484375
0.012451171875
-0.0186767578125
0.0106201171875
-0.025634765625
-0.0062255859375
-0.0146484375
-0.0230712890625
0.0025634765625
-0.0150146484375
-0.0047607421875
-0.00439453125
-0.0040283203125
-0.00146484375
0.0062255859375
0.0040283203125
0.01171875
-0.0018310546875
0.0142822265625
0.0010986328125
0.01025390625
0.0032958984375
-0.0010986328125
-0.000732421875
-0.006591796875
-0.0018310546875
0.0128173828125
0.0010986328125
0.0172119140625
0.0018310546875
-0.0062255859375
0.0106201171875
-0.0552978515625
-0.027099609375
0.0673828125
-0.0076904296875
0.0838623046875
0.038818359375
-0.028564453125
0.009521484375
-0.005859375
0.0106201171875
-0.0076904296875
0.012451171875
0.0025634765625
-0.00439453125
0.005859375
-0.0194091796875
0.0106201171875
-0.0146484375
0.0091552734375
-0.0010986328125
0.0025634765625
0.0010986328125
0.000732421875
0.0
-0.0076904296875
0.0
-0.000732421875
0.0062255859375
-0.005859375
0.0029296875
-0.0087890625
-0.0069580078125
-0.0010986328125
-0.0010986328125
-0.0010986328125
-0.0003662109375
-0.000732421875
0.0194091796875
-0.08056640625
-0.0615234375
0.029296875
-0.021240234375
0.0758056640625
0.066650390625
-0.0355224609375
0.01025390625
-0.00439453125
-0.01025390625
-0.030029296875
-0.0150146484375
-0.0281982421875
