0.0413818359375
-0.0758056640625
0.03955078125
-0.07763671875
-0.00439453125
-0.00146484375
-0.005859375
-0.0040283203125
-0.0069580078125
-0.005859375
0.0047607421875
0.00439453125
-0.151611328125
0.1025390625
-0.0670166015625
-0.031494140625
0.1614990234375
-0.1563720703125
0.062255859375
-0.0076904296875
-0.01025390625
0.02490234375
-0.010986328125
0.0157470703125
-0.015380859375
0.016845703125
-0.0135498046875
0.0142822265625
-0.0128173828125
0.0205078125
-0.01318359375
0.0164794921875
-0.0084228515625
0.0076904296875
-0.012451171875
0.006591796875
-0.0179443359375
0.0047607421875
-0.0340576171875
-0.0047607421875
-0.0303955078125
-0.0062255859375
-0.0076904296875
-0.0062255859375
-0.008056640625
-0.0029296875
-0.0091552734375
0.00439453125
-0.00732421875
-0.00146484375
-0.0047607421875
-0.008056640625
-0.0076904296875
-0.0025634765625
-0.009521484375
0.0010986328125
-0.006591796875
-0.005859375
-0.005859375
-0.0047607421875
-0.00732421875
-0.0003662109375
-0.00439453125
-0.008056640625
-0.0025634765625
-0.00732421875
-0.0003662109375
-0.006591796875
0.006591796875
-0.010986328125
-0.0062255859375
-0.00146484375
-0.0157470703125
0.002197265625
-0.005859375
-0.0010986328125
-0.0069580078125
0.0025634765625
-0.010986328125
0.0054931640625
-0.006591796875
0.002197265625
0.0062255859375
-0.01025390625
-0.066680908203125
0.1036376953125
-0.145782470703125
0.099609375
0.057891845703125
-0.13916015625
0.157501220703125
-0.1336669921875
0.027099609375
0.005126953125
-0.0040283203125
0.0216064453125
-0.000732421875
0.0106201171875
0.0054931640625
0.0029296875
0.0047607421875
0.003662109375
0.003662109375
-0.0025634765625
0.0047607421875
-0.0018310546875
0.0010986328125
0.0054931640625
0.0010986328125
-0.008056640625
0.0
-0.0087890625
-0.0003662109375
0.0003662109375
0.00439453125
0.002197265625
0.006591796875
-0.0040283203125
0.009521484375
-0.0029296875
0.01171875
0.003662109375
0.012451171875
0.006591796875
0.0146484375
0.0062255859375
0.0186767578125
-0.000732421875
0.0267333984375
-0.0040283203125
0.0325927734375
-0.0106201171875
0.0303955078125
-0.00732421875
0.03662109375
-0.01171875
0.0509033203125
-0.029693603515625
0.0626220703125
-0.046173095703125
0.060791015625
-0.0531005859375
0.046142578125
-0.038818359375
0.029296875
-0.0201416015625
0.0062255859375
0.0
0.003326416015625
0.00146484375
0.014678955078125
-0.0010986328125
0.0223388671875
-0.0069580078125
0.0281982421875
-0.017578125
0.035888671875
-0.017578125
-0.098541259765625
0.138458251953125
-0.154571533203125
0.095947265625
0.109893798828125
-0.169952392578125
0.168853759765625
-0.1131591796875
0.02490234375
0.0157470703125
0.0
0.0194091796875
0.00146484375
0.0128173828125
-0.000732421875
0.0146484375
-0.00439453125
0.0205078125
-0.00439453125
0.017578125
-0.0029296875
0.01318359375
-0.0003662109375
0.0010986328125
0.002197265625
-0.009521484375
-0.005859375
-0.005859375
-0.0106201171875
-0.000732421875
-0.00439453125
0.00146484375
0.000732421875
0.002197265625
0.005859375
0.0
0.005859375
-0.003662109375
0.0029296875
-0.0003662109375
0.0003662109375
-0.0010986328125
-0.0029296875
0.0040283203125
-0.003662109375
0.0062255859375
0.0003662109375
-0.0047607421875
-0.0018310546875
0.002197265625
-0.0032958984375
0.0069580078125
-0.00146484375
0.0029296875
-0.0029296875
0.0025634765625
-0.00439453125
0.0032958984375
-0.0069580078125
0.0062255859375
-0.0040283203125
0.005859375
-0.0087890625
0.0113525390625
-0.012451171875
0.0062255859375
-0.00146484375
0.0
0.0
0.0029296875
-0.00732421875
0.01025390625
-0.0076904296875
0.013916015625
0.0091552734375
0.0025634765625
-0.149444580078125
0.153472900390625
-0.132232666015625
0.052764892578125
0.139556884765625
-0.179473876953125
0.118682861328125
-0.061920166015625
0.00146484375
0.03515625
-0.009521484375
0.028564453125
-0.008056640625
0.0172119140625
-0.0091552734375
0.0172119140625
-0.01025390625
0.019439697265625
-0.012847900390625
0.016876220703125
-0.009552001953125
0.0157470703125
-0.006591796875
0.0142822265625
-0.0098876953125
0.0018310546875
-0.0146484375
-0.0003662109375
-0.009521484375
0.0010986328125
0.0003662109375
0.0018310546875
0.0025634765625
0.000732421875
-0.0018310546875
0.002197265625
-0.003662109375
0.005126953125
0.0003662109375
-0.0018310546875
-0.0010986328125
0.003662109375
-0.0032958984375
0.0010986328125
-0.0032958984375
0.0010986328125
-0.003662109375
0.0062255859375
-0.0047607421875
0.005126953125
-0.005859375
0.008056640625
-0.0054931640625
0.0047607421875
-0.006591796875
0.0047607421875
-0.003662109375
0.00146484375
-0.000732421875
0.0003662109375
0.000732421875
0.0003662109375
-0.003662109375
0.0010986328125
-0.005859375
0.0018310546875
-0.0018310546875
-0.00146484375
0.0
0.0040283203125
-0.0018310546875
0.0062255859375
-0.006591796875
0.0054931640625
-0.003662109375
0.0003662109375
0.005126953125
0.01025390625
-0.157470703125
0.1124267578125
-0.052001953125
-0.0157470703125
0.169189453125
-0.1387939453125
0.0501708984375
-0.0025634765625
-0.009521484375
0.032958984375
-0.00146484375
0.01318359375
-0.0025634765625
0.0113525390625
-0.005859375
0.0113525390625
-0.0091552734375
0.0120849609375
-0.008056640625
0.0142822265625
-0.0025634765625
0.0098876953125
-0.0047607421875
0.009521484375
-0.0106201171875
-0.0025634765625
-0.0106201171875
-0.0076904296875
-0.005859375
-0.0040283203125
-0.0003662109375
-0.003662109375
0.0
-0.0003662109375
-0.000732421875
0.0032958984375
-0.0010986328125
0.0054931640625
-0.00146484375
0.00146484375
-0.0025634765625
0.000732421875
-0.0047607421875
-0.0018310546875
-0.003662109375
-0.0029296875
-0.002197265625
-0.000732421875
-0.0025634765625
0.00146484375
-0.0018310546875
-0.0032958984375
-0.00439453125
-0.002197265625
-0.0054931640625
0.006591796875
-0.0040283203125
-0.000732421875
-0.00439453125
0.0010986328125
0.0
-0.00146484375
-0.0003662109375
-0.0003662109375
-0.008056640625
0.00732421875
-0.0084228515625
0.0003662109375
-0.0025634765625
0.000732421875
-0.0018310546875
0.0010986328125
-0.0025634765625
0.0003662109375
-0.0010986328125
-0.0003662109375
0.013916015625
0.0029296875
-0.1468505859375
0.1160888671875
-0.0714111328125
-0.010986328125
0.1702880859375
-0.1640625
0.08056640625
-0.0223388671875
-0.0047607421875
0.0318603515625
-0.0087890625
0.0194091796875
-0.008056640625
0.0157470703125
-0.009521484375
0.0128173828125
-0.01025390625
0.01611328125
-0.0098876953125
0.018310546875
-0.0025634765625
0.01025390625
0.00146484375
0.0047607421875
-0.0040283203125
-0.008056640625
-0.0084228515625
-0.0084228515625
-0.0032958984375
-0.0025634765625
0.0054931640625
-0.0018310546875
0.006591796875
-0.00439453125
0.0047607421875
-0.0032958984375
0.0040283203125
0.0018310546875
0.00439453125
-0.0010986328125
0.00146484375
0.002197265625
-0.0032958984375
0.0032958984375
-0.002197265625
0.000732421875
-0.0029296875
0.0025634765625
-0.0091552734375
0.0087890625
-0.0069580078125
0.0091552734375
-0.0054931640625
0.0054931640625
-0.008056640625
0.008056640625
-0.005859375
0.0054931640625
-0.0018310546875
0.0010986328125
-0.000732421875
0.0010986328125
0.0032958984375
0.0
-0.0018310546875
-0.0003662109375
-0.0040283203125
-0.0223388671875
0.0062255859375
-0.0322265625
0.0069580078125
-0.0091552734375
0.0029296875
0.002197265625
0.00146484375
-0.0025634765625
0.0150146484375
-0.010986328125
-0.0728759765625
0.1058349609375
-0.15966796875
0.0933837890625
0.0692138671875
-0.148681640625
0.1746826171875
-0.1278076171875
0.029296875
0.0179443359375
-0.002197265625
0.0201416015625
0.0010986328125
0.0098876953125
-0.0047607421875
0.0146484375
-0.0087890625
0.018310546875
-0.005859375
0.0120849609375
0.0
0.005859375
0.0010986328125
0.005126953125
-0.0040283203125
-0.0032958984375
-0.006591796875
-0.0076904296875
-0.0032958984375
-0.0106201171875
0.0018310546875
-0.0018310546875
0.00146484375
0.0025634765625
0.0018310546875
0.0003662109375
0.00146484375
0.00146484375
-0.0029296875
-0.0003662109375
-0.0025634765625
0.0025634765625
-0.0018310546875
-0.00146484375
-0.0018310546875
-0.0003662109375
-0.0032958984375
0.00146484375
0.0
-0.0010986328125
0.0010986328125
0.0
0.0
-0.000732421875
0.0025634765625
-0.0025634765625
0.0010986328125
-0.0029296875
0.0010986328125
0.0
0.002197265625
0.00146484375
0.0010986328125
0.0029296875
0.00146484375
-0.0010986328125
-0.00146484375
-0.0010986328125
-0.0047607421875
0.0010986328125
0.00146484375
-0.0029296875
0.00146484375
0.0010986328125
-0.00439453125
0.002197265625
-0.0047607421875
0.005859375
0.01318359375
-0.0087890625
-0.1043701171875
0.1201171875
-0.158935546875
0.087158203125
0.09814453125
-0.1614990234375
0.15380859375
-0.100341796875
0.0113525390625
0.027099609375
-0.0084228515625
0.024169921875
-0.0091552734375
0.0150146484375
-0.012451171875
0.017578125
-0.010986328125
0.0179443359375
-0.0076904296875
0.0128173828125
-0.003662109375
0.009521484375
-0.0029296875
0.0062255859375
-0.005126953125
0.000732421875
-0.00439453125
-0.016845703125
-0.0032958984375
-0.0084228515625
0.0
-0.0003662109375
0.00146484375
-0.0003662109375
0.0025634765625
-0.002197265625
0.0054931640625
-0.0091552734375
0.0062255859375
-0.0029296875
0.0029296875
-0.0032958984375
0.0
-0.00146484375
-0.002197265625
-0.0010986328125
-0.0029296875
-0.000732421875
-0.000732421875
0.0003662109375
0.0003662109375
-0.0010986328125
0.0
0.000732421875
-0.0025634765625
0.0
-0.0029296875
0.003662109375
-0.0018310546875
0.0018310546875
-0.0010986328125
0.0032958984375
0.0040283203125
0.002197265625
0.0018310546875
-0.000732421875
-0.005126953125
0.0018310546875
0.002197265625
-0.0003662109375
0.00732421875
0.0003662109375
0.0029296875
-0.0025634765625
0.0025634765625
0.00146484375
0.0120849609375
-0.0076904296875
-0.0234375
0.0523681640625
-0.171051025390625
0.10986328125
0.0047607421875
-0.07763671875
0.197418212890625
-0.146484375
0.0494384765625
-0.003662109375
-0.00439453125
0.0234375
0.0029296875
0.0025634765625
0.0018310546875
0.006591796875
-0.0010986328125
0.0087890625
-0.0018310546875
0.0069580078125
-0.0003662109375
0.0076904296875
0.0010986328125
0.00732421875
0.0032958984375
-0.00146484375
-0.0003662109375
-0.0150146484375
-0.003662109375
-0.009521484375
-0.000732421875
-0.0040283203125
0.00439453125
-0.0018310546875
0.01025390625
-0.0084228515625
0.01171875
-0.0135498046875
0.0040283203125
-0.0029296875
-0.003662109375
0.000732421875
-0.00146484375
-0.0040283203125
0.0
0.0010986328125
0.000732421875
0.005126953125
-0.0040283203125
0.0032958984375
-0.0091552734375
0.0069580078125
-0.005126953125
0.0010986328125
-0.0010986328125
-0.0040283203125
0.0010986328125
0.0018310546875
0.0010986328125
-0.00439453125
-0.00439453125
0.000732421875
-0.0047607421875
0.00732421875
-0.00146484375
0.003662109375
-0.01171875
0.01318359375
-0.0172119140625
0.0172119140625
-0.008056640625
0.01025390625
-0.00146484375
0.0047607421875
-0.005126953125
0.0128173828125
-0.012451171875
0.0201416015625
-0.0047607421875
0.01025390625
-0.01171875
0.0296630859375
-0.169586181640625
0.1065673828125
-0.0260009765625
-0.040283203125
0.186798095703125
-0.1373291015625
0.047607421875
0.01025390625
-0.013916015625
0.0362548828125
-0.006591796875
0.0201416015625
-0.0069580078125
0.021240234375
-0.003662109375
0.0128173828125
-0.0010986328125
0.0113525390625
-0.003662109375
0.0120849609375
-0.002197265625
0.0084228515625
0.000732421875
-0.0003662109375
-0.003662109375
-0.0084228515625
-0.008056640625
-0.0076904296875
-0.0032958984375
0.0029296875
0.0032958984375
-0.0010986328125
0.0047607421875
-0.005126953125
0.0040283203125
-0.0025634765625
0.017578125
-0.019775390625
0.0179443359375
-0.0201416015625
0.00146484375
-0.0084228515625
-0.0054931640625
-0.00439453125
-0.0069580078125
-0.002197265625
-0.0003662109375
-0.002197265625
0.0025634765625
-0.002197265625
0.0029296875
-0.0029296875
0.0062255859375
-0.0091552734375
0.00732421875
-0.0087890625
0.0029296875
-0.00146484375
0.0
-0.0018310546875
0.0018310546875
0.0032958984375
-0.0018310546875
0.005126953125
-0.009521484375
0.0084228515625
-0.0076904296875
0.0032958984375
0.0029296875
-0.009521484375
0.0069580078125
-0.0087890625
0.0029296875
-0.0062255859375
-0.000732421875
-0.000732421875
0.00146484375
-0.0047607421875
-0.0223388671875
0.03955078125
-0.176544189453125
0.1036376953125
-0.0120849609375
-0.0611572265625
0.191925048828125
-0.1351318359375
0.041748046875
0.005859375
-0.0238037109375
0.0435791015625
-0.0194091796875
0.0274658203125
-0.0098876953125
0.0128173828125
-0.0084228515625
0.008056640625
-0.0087890625
0.0120849609375
-0.0076904296875
0.015380859375
-0.0010986328125
0.0054931640625
0.0003662109375
-0.0047607421875
-0.0047607421875
-0.016845703125
-0.0054931640625
-0.0157470703125
-0.0029296875
-0.010986328125
0.0
-0.0029296875
0.0029296875
-0.00146484375
0.0025634765625
-0.005859375
0.0003662109375
0.000732421875
0.0010986328125
-0.00146484375
0.000732421875
-0.003662109375
-0.002197265625
-0.0029296875
-0.0025634765625
0.0018310546875
0.0010986328125
-0.0025634765625
0.00439453125
-0.0087890625
0.003662109375
-0.0047607421875
0.0047607421875
-0.0047607421875
0.002197265625
-0.00146484375
-0.0047607421875
-0.002197265625
-0.0069580078125
-0.0069580078125
-0.0069580078125
-0.0032958984375
-0.0076904296875
0.0029296875
-0.0069580078125
0.0010986328125
-0.0010986328125
-0.0018310546875
0.002197265625
0.00146484375
0.0029296875
0.00146484375
0.0029296875
-0.0029296875
0.0032958984375
-0.005859375
0.010986328125
0.006591796875
-0.162628173828125
0.1058349609375
-0.0487060546875
-0.029296875
0.191925048828125
-0.1512451171875
0.06591796875
-0.0054931640625
-0.003662109375
0.02783203125
0.0010986328125
0.0113525390625
0.0018310546875
0.01171875
-0.003662109375
0.0128173828125
-0.005859375
0.013916015625
-0.00439453125
0.0164794921875
0.0
0.0113525390625
0.0032958984375
0.000732421875
-0.0018310546875
-0.0076904296875
-0.0032958984375
-0.01025390625
0.0
-0.0069580078125
0.0032958984375
-0.0029296875
0.0047607421875
-0.0029296875
0.0047607421875
0.0029296875
0.005126953125
0.0018310546875
0.0047607421875
-0.0032958984375
0.0032958984375
0.0010986328125
-0.0003662109375
0.0018310546875
0.000732421875
-0.002197265625
0.003662109375
-0.0084228515625
0.0003662109375
-0.0018310546875
-0.002197265625
0.0025634765625
-0.000732421875
0.0010986328125
0.0003662109375
0.00146484375
-0.0003662109375
-0.0003662109375
0.0
0.002197265625
0.0025634765625
-0.0029296875
0.0054931640625
-0.0029296875
0.000732421875
0.0018310546875
-0.005126953125
0.000732421875
-0.0018310546875
-0.0003662109375
0.0054931640625
0.0
0.00439453125
-0.0040283203125
-0.0018310546875
-0.000732421875
0.0010986328125
0.0040283203125
0.0179443359375
-0.0040283203125
-0.1534423828125
0.12158203125
-0.0823974609375
0.0
0.1688232421875
-0.1724853515625
0.08642578125
-0.02197265625
0.0069580078125
0.028564453125
0.0032958984375
0.010986328125
0.0
0.0106201171875
-0.00439453125
0.0142822265625
-0.00732421875
0.015380859375
-0.0029296875
0.0120849609375
0.00146484375
0.0076904296875
0.0
0.0040283203125
-0.0032958984375
-0.0047607421875
-0.005859375
-0.0146484375
-0.0025634765625
-0.0047607421875
0.0
0.0018310546875
0.002197265625
0.0
0.00439453125
-0.0010986328125
0.0029296875
0.0010986328125
0.0018310546875
0.0010986328125
-0.0003662109375
0.00146484375
-0.0018310546875
0.0025634765625
-0.0025634765625
-0.00439453125
-0.00146484375
-0.00146484375
0.0003662109375
-0.0010986328125
0.0
0.0010986328125
-0.0010986328125
0.0029296875
-0.0003662109375
-0.0040283203125
-0.00146484375
0.0040283203125
-0.00439453125
0.0
-0.0018310546875
-0.0032958984375
0.000732421875
-0.0010986328125
0.0029296875
-0.0054931640625
-0.000732421875
0.0003662109375
-0.006591796875
0.0
0.0010986328125
-0.0047607421875
0.0025634765625
0.000732421875
-0.0010986328125
0.0018310546875
-0.0025634765625
-0.000732421875
0.008056640625
-0.0076904296875
-0.0648193359375
0.09521484375
-0.17578125
0.10546875
0.0439453125
-0.125244140625
0.185302734375
-0.1322021484375
0.03369140625
0.012451171875
-0.01025390625
0.0252685546875
-0.003662109375
0.0146484375
-0.0069580078125
0.0157470703125
-0.0113525390625
0.0179443359375
-0.008056640625
0.0120849609375
-0.0040283203125
0.0113525390625
-0.0040283203125
0.0150146484375
-0.005126953125
-0.005859375
-0.00732421875
-0.0091552734375
-0.0062255859375
-0.003662109375
0.0003662109375
-0.006591796875
0.0010986328125
-0.0029296875
0.000732421875
0.0018310546875
0.0018310546875
0.003662109375
0.00439453125
-0.0040283203125
0.0047607421875
-0.00146484375
0.0018310546875
-0.0010986328125
0.0018310546875
-0.002197265625
0.0
0.000732421875
0.000732421875
-0.00146484375
0.0018310546875
0.0018310546875
0.0010986328125
0.0
0.00146484375
-0.003662109375
0.0003662109375
-0.0003662109375
-0.0003662109375
0.0029296875
-0.0025634765625
-0.0018310546875
-0.0018310546875
-0.0010986328125
0.0010986328125
0.00146484375
-0.0018310546875
-0.0029296875
-0.0018310546875
-0.00439453125
0.0018310546875
-0.0025634765625
0.0047607421875
0.003662109375
0.00439453125
-0.0003662109375
0.0010986328125
0.0003662109375
-0.0003662109375
-0.0018310546875
0.01171875
-0.0018310546875
-0.1658935546875
0.1219482421875
-0.0670166015625
-0.0172119140625
0.1812744140625
-0.15966796875
0.068115234375
-0.0018310546875
0.0
0.0230712890625
0.000732421875
0.010986328125
-0.002197265625
0.0164794921875
-0.0025634765625
0.01025390625
-0.0018310546875
0.010986328125
-0.002197265625
0.01171875
-0.00439453125
0.0076904296875
-0.0047607421875
0.00732421875
-0.0025634765625
-0.0069580078125
-0.000732421875
-0.015380859375
-0.0003662109375
-0.005859375
0.0040283203125
-0.0018310546875
0.0062255859375
-0.005859375
0.0032958984375
-0.0087890625
0.002197265625
-0.0010986328125
0.0032958984375
0.0029296875
0.0047607421875
-0.0032958984375
0.000732421875
-0.0010986328125
-0.00146484375
-0.000732421875
0.0010986328125
-0.009521484375
0.0018310546875
-0.000732421875
0.00146484375
0.00146484375
0.002197265625
-0.00439453125
0.0047607421875
-0.006591796875
0.00146484375
-0.0047607421875
-0.00146484375
0.0084228515625
0.000732421875
0.0010986328125
-0.00146484375
-0.0032958984375
0.000732421875
0.000732421875
0.0003662109375
-0.002197265625
-0.00146484375
-0.0018310546875
-0.0003662109375
0.002197265625
0.0010986328125
-0.0047607421875
0.0238037109375
-0.0205078125
0.0325927734375
-0.021240234375
0.0128173828125
-0.0164794921875
0.015380859375
0.0
-0.15380859375
0.11572265625
-0.0684814453125
-0.01904296875
0.16259765625
-0.1483154296875
0.0611572265625
-0.0003662109375
-0.0040283203125
0.034423828125
-0.0003662109375
0.0146484375
-0.0003662109375
0.009521484375
-0.0040283203125
0.0120849609375
-0.003662109375
0.0084228515625
-0.00439453125
0.01318359375
-0.0040283203125
0.01025390625
-0.0018310546875
0.00146484375
-0.003662109375
-0.0091552734375
-0.0087890625
-0.01025390625
-0.0084228515625
-0.002197265625
0.0
0.0
0.003662109375
-0.0003662109375
0.0010986328125
-0.00439453125
0.0
-0.0047607421875
0.0
-0.000732421875
-0.0010986328125
-0.00146484375
-0.000732421875
-0.00732421875
0.0025634765625
-0.00732421875
0.003662109375
-0.005126953125
0.003662109375
-0.0062255859375
0.0062255859375
-0.0106201171875
0.008056640625
-0.0076904296875
0.0084228515625
-0.003662109375
0.005859375
-0.0029296875
-0.0018310546875
0.005126953125
-0.01025390625
0.003662109375
-0.012451171875
0.00439453125
-0.00732421875
0.0106201171875
-0.010986328125
0.00732421875
-0.0157470703125
0.0091552734375
-0.006591796875
0.0091552734375
-0.0032958984375
0.013916015625
-0.01025390625
0.01611328125
-0.013916015625
0.0128173828125
0.0069580078125
-0.009521484375
-0.0076904296875
0.0194091796875
-0.1904296875
0.123779296875
-0.05419921875
-0.0113525390625
0.1614990234375
-0.0911865234375
0.03076171875
0.0296630859375
-0.0208740234375
0.0311279296875
-0.0128173828125
0.0172119140625
-0.01611328125
0.0179443359375
-0.008056640625
0.009521484375
-0.000732421875
0.0084228515625
0.0018310546875
0.017578125
0.003662109375
0.01171875
0.0040283203125
0.000732421875
-0.003662109375
-0.01025390625
-0.01025390625
-0.01171875
-0.006591796875
-0.0032958984375
-0.0029296875
-0.0003662109375
0.0003662109375
-0.002197265625
0.0010986328125
-0.00439453125
0.0029296875
-0.0010986328125
0.0018310546875
0.0054931640625
0.000732421875
0.0003662109375
-0.002197265625
0.002197265625
-0.0032958984375
0.0069580078125
-0.0003662109375
-0.000732421875
-0.0018310546875
-0.0069580078125
-0.0025634765625
-0.000732421875
-0.0018310546875
-0.0003662109375
-0.002197265625
0.00146484375
-0.003662109375
0.005126953125
-0.0040283203125
0.0003662109375
-0.0040283203125
0.0010986328125
-0.002197265625
-0.0032958984375
0.0003662109375
-0.0018310546875
-0.0010986328125
-0.0003662109375
-0.00146484375
0.0010986328125
0.000732421875
-0.000732421875
0.0029296875
-0.000732421875
0.0
0.0003662109375
-0.0018310546875
-0.000732421875
0.0201416015625
-0.006591796875
-0.149078369140625
0.128570556640625
-0.12158203125
0.02783203125
0.153106689453125
-0.178375244140625
0.1124267578125
-0.038818359375
0.0018310546875
0.040283203125
-0.0120849609375
0.024169921875
-0.0150146484375
0.0230712890625
-0.0091552734375
0.0113525390625
-0.00439453125
0.0164794921875
0.0003662109375
0.01611328125
0.006591796875
0.0098876953125
0.003662109375
-0.0018310546875
0.0062255859375
-0.019775390625
0.0047607421875
-0.0216064453125
-0.0010986328125
-0.01025390625
0.0
0.006591796875
0.002197265625
0.0087890625
0.0032958984375
0.0
0.00146484375
-0.0018310546875
0.0032958984375
-0.000732421875
0.003662109375
0.0003662109375
0.0029296875
0.0025634765625
0.0025634765625
-0.000732421875
0.0029296875
-0.0047607421875
0.0062255859375
-0.005126953125
0.003662109375
-0.0025634765625
0.000732421875
0.00439453125
-0.000732421875
0.00439453125
0.0003662109375
-0.0010986328125
0.0025634765625
-0.0076904296875
0.0054931640625
-0.01611328125
0.0003662109375
0.002197265625
-0.0091552734375
0.015380859375
-0.00732421875
0.0003662109375
0.0010986328125
-0.0018310546875
0.00146484375
0.003662109375
-0.0062255859375
0.003662109375
-0.0029296875
-0.0029296875
0.0186767578125
-0.0128173828125
-0.141754150390625
0.121246337890625
-0.1270751953125
0.0296630859375
0.147613525390625
-0.179107666015625
0.1248779296875
-0.047607421875
0.0084228515625
0.0369873046875
0.000732421875
0.0098876953125
-0.00146484375
0.008056640625
-0.00439453125
0.0076904296875
-0.003662109375
0.0091552734375
-0.006591796875
0.0120849609375
-0.0062255859375
0.0128173828125
-0.003662109375
0.0040283203125
0.0029296875
-0.0113525390625
0.0018310546875
-0.0234375
0.0029296875
-0.018310546875
0.0084228515625
-0.005126953125
0.006591796875
-0.0054931640625
0.01171875
-0.010986328125
0.0113525390625
-0.01611328125
0.00732421875
-0.0142822265625
0.00439453125
-0.0087890625
0.00146484375
0.0
0.0018310546875
0.0003662109375
0.0010986328125
-0.006591796875
-0.0003662109375
-0.0047607421875
-0.0010986328125
-0.0062255859375
-0.0018310546875
0.002197265625
-0.0054931640625
0.005859375
-0.002197265625
0.005126953125
0.0010986328125
-0.0003662109375
0.0018310546875
-0.003662109375
0.000732421875
0.002197265625
-0.0040283203125
-0.0029296875
0.002197265625
-0.0003662109375
0.0087890625
0.0087890625
0.0084228515625
0.0054931640625
0.005126953125
-0.0003662109375
0.0157470703125
-0.0128173828125
-0.056396484375
0.0838623046875
-0.17431640625
0.109130859375
0.046142578125
-0.114990234375
0.198486328125
-0.13916015625
0.0509033203125
0.000732421875
0.0018310546875
0.017578125
0.00439453125
0.01025390625
0.0047607421875
0.0047607421875
0.0025634765625
0.005126953125
0.0010986328125
0.0054931640625
0.0010986328125
0.0018310546875
0.00439453125
0.0
0.0018310546875
-0.0076904296875
-0.0047607421875
-0.0113525390625
-0.006591796875
-0.012451171875
0.000732421875
-0.008056640625
0.0054931640625
-0.0003662109375
0.00439453125
0.0010986328125
0.002197265625
0.0
-0.000732421875
-0.0018310546875
-0.0010986328125
0.0025634765625
-0.0040283203125
0.0029296875
-0.0040283203125
-0.0010986328125
-0.003662109375
0.00146484375
-0.00439453125
0.0003662109375
-0.0025634765625
0.0025634765625
-0.0018310546875
-0.00146484375
-0.0018310546875
0.0003662109375
-0.0054931640625
0.0084228515625
-0.0010986328125
0.0025634765625
-0.0010986328125
0.0018310546875
-0.005126953125
0.0047607421875
-0.0025634765625
0.00146484375
-0.003662109375
-0.000732421875
-0.0029296875
-0.000732421875
0.0003662109375
0.0003662109375
-0.000732421875
0.00439453125
-0.00439453125
0.0047607421875
-0.0069580078125
0.0054931640625
0.0098876953125
-0.0076904296875
-0.1153564453125
0.1226806640625
-0.1611328125
0.07763671875
0.113525390625
-0.1688232421875
0.1640625
-0.0908203125
0.017578125
0.0296630859375
0.000732421875
0.0076904296875
-0.0010986328125
0.006591796875
-0.0069580078125
0.0098876953125
-0.008056640625
0.0054931640625
-0.0098876953125
0.008056640625
-0.01171875
0.0150146484375
-0.0062255859375
0.01025390625
-0.0010986328125
-0.0040283203125
-0.00732421875
-0.010986328125
-0.0054931640625
-0.0098876953125
0.00439453125
-0.01025390625
0.009521484375
-0.006591796875
0.0087890625
-0.0054931640625
0.006591796875
-0.0128173828125
0.006591796875
-0.0087890625
0.0010986328125
0.00146484375
-0.0029296875
0.003662109375
-0.0062255859375
0.0010986328125
-0.005126953125
-0.0010986328125
-0.0032958984375
0.000732421875
-0.005126953125
0.0018310546875
-0.0029296875
0.00146484375
-0.0018310546875
0.0010986328125
-0.00146484375
0.0025634765625
-0.0025634765625
0.000732421875
-0.0032958984375
0.00146484375
-0.0010986328125
0.008056640625
-0.0040283203125
0.0040283203125
-0.008056640625
0.0018310546875
-0.0040283203125
0.00146484375
0.0
0.00439453125
-0.0018310546875
0.0029296875
-0.005126953125
0.0018310546875
-0.005126953125
-0.0025634765625
0.005126953125
0.003662109375
-0.170318603515625
0.1058349609375
-0.0596923828125
-0.025634765625
0.180572509765625
-0.134033203125
0.0574951171875
0.002197265625
-0.0157470703125
0.030029296875
-0.008056640625
0.0135498046875
-0.000732421875
0.0029296875
-0.0069580078125
0.0113525390625
-0.00732421875
0.0179443359375
-0.003662109375
0.0142822265625
0.0
0.008056640625
-0.000732421875
0.0113525390625
-0.006591796875
-0.0087890625
-0.010986328125
-0.01318359375
-0.005859375
0.005126953125
0.0069580078125
0.003662109375
0.010986328125
-0.0032958984375
0.0098876953125
-0.0069580078125
0.0106201171875
-0.01025390625
0.0084228515625
-0.0018310546875
0.0069580078125
0.005126953125
0.00146484375
-0.0047607421875
-0.0003662109375
-0.003662109375
0.0
0.0047607421875
0.0
0.006591796875
0.002197265625
-0.0018310546875
0.0047607421875
-0.0029296875
0.005859375
0.002197265625
0.0018310546875
-0.00146484375
0.0025634765625
0.002197265625
0.00439453125
0.00146484375
0.005859375
-0.0076904296875
0.0
-0.0040283203125
-0.00439453125
0.0025634765625
0.0047607421875
-0.0010986328125
0.0091552734375
-0.00439453125
0.009521484375
-0.000732421875
0.0062255859375
-0.000732421875
0.01171875
-0.009521484375
0.0025634765625
0.0113525390625
-0.173583984375
0.109130859375
-0.037353515625
-0.03369140625
0.189697265625
-0.140625
0.0560302734375
0.002197265625
-0.00732421875
0.02783203125
0.0010986328125
0.0106201171875
0.0010986328125
0.0032958984375
-0.0029296875
0.00732421875
-0.003662109375
0.006591796875
-0.0018310546875
0.0062255859375
0.0010986328125
0.01025390625
-0.0010986328125
0.0010986328125
-0.0054931640625
-0.0076904296875
-0.0084228515625
-0.0091552734375
-0.002197265625
-0.005126953125
0.0025634765625
-0.003662109375
0.002197265625
-0.0069580078125
0.003662109375
-0.00732421875
0.0040283203125
-0.0128173828125
0.0025634765625
-0.0076904296875
-0.0029296875
-0.000732421875
-0.0029296875
-0.000732421875
-0.0040283203125
0.00146484375
-0.0047607421875
0.000732421875
-0.0018310546875
-0.00439453125
-0.003662109375
-0.01025390625
-0.002197265625
-0.0054931640625
-0.00146484375
-0.0032958984375
-0.0032958984375
-0.00146484375
-0.005126953125
0.0032958984375
-0.005126953125
0.0054931640625
-0.0047607421875
0.0040283203125
-0.0003662109375
0.00439453125
-0.00146484375
0.006591796875
-0.00732421875
0.003662109375
-0.0025634765625
0.0047607421875
-0.000732421875
0.006591796875
-0.00146484375
0.0087890625
-0.0040283203125
0.0120849609375
-0.0018310546875
0.005859375
-0.0062255859375
0.0223388671875
-0.169189453125
0.0985107421875
-0.0362548828125
-0.03515625
0.180908203125
-0.120849609375
0.0538330078125
0.0142822265625
-0.005859375
0.0340576171875
-0.0018310546875
0.009521484375
-0.0025634765625
0.0076904296875
-0.0062255859375
0.0142822265625
-0.003662109375
0.00439453125
-0.003662109375
0.0025634765625
-0.003662109375
0.0120849609375
-0.0032958984375
0.0029296875
-0.008056640625
-0.006591796875
-0.0128173828125
-0.0087890625
-0.005859375
-0.0069580078125
0.0
-0.0018310546875
0.002197265625
-0.0040283203125
0.0047607421875
-0.005126953125
0.0047607421875
-0.0076904296875
0.0040283203125
0.006591796875
-0.0025634765625
0.013916015625
-0.003662109375
-0.00146484375
-0.0018310546875
-0.005859375
-0.002197265625
-0.008056640625
-0.0054931640625
-0.008056640625
-0.00732421875
-0.0047607421875
-0.005126953125
-0.002197265625
-0.008056640625
0.0
-0.0076904296875
0.002197265625
-0.006591796875
-0.0047607421875
-0.0091552734375
0.0
-0.0076904296875
0.00732421875
-0.005126953125
-0.002197265625
-0.009521484375
0.0032958984375
-0.0106201171875
0.003662109375
-0.005126953125
0.0040283203125
-0.0069580078125
0.0113525390625
-0.0069580078125
0.009521484375
-0.00439453125
0.003662109375
0.01025390625
-0.005126953125
-0.124176025390625
0.140655517578125
-0.150543212890625
0.0743408203125
0.121612548828125
-0.167388916015625
0.155303955078125
-0.076904296875
0.0230712890625
0.0252685546875
0.0025634765625
0.01171875
0.000732421875
0.0157470703125
-0.002197265625
0.0106201171875
-0.000732421875
0.002197265625
0.0029296875
0.0025634765625
0.002197265625
0.00439453125
0.0025634765625
0.005859375
0.0010986328125
-0.002197265625
-0.0054931640625
-0.0062255859375
-0.0087890625
-0.00732421875
0.000732421875
0.00439453125
0.005859375
0.0076904296875
0.0076904296875
-0.0091552734375
0.0113525390625
-0.0157470703125
0.0069580078125
-0.0047607421875
0.01171875
-0.0040283203125
0.0120849609375
-0.012451171875
0.0029296875
-0.0047607421875
0.002197265625
-0.002197265625
0.0032958984375
-0.000732421875
0.0047607421875
0.0003662109375
0.00439453125
-0.002197265625
0.0040283203125
-0.0003662109375
0.0018310546875
0.0
0.0047607421875
0.000732421875
0.0047607421875
-0.0003662109375
0.0010986328125
-0.0054931640625
0.0025634765625
-0.0076904296875
0.005859375
-0.0062255859375
0.005126953125
-0.005126953125
-0.0010986328125
-0.0054931640625
0.003662109375
0.0003662109375
0.006591796875
-0.0018310546875
0.0018310546875
-0.000732421875
-0.0003662109375
0.000732421875
0.0047607421875
-0.0106201171875
-0.0142822265625
0.0289306640625
-0.1754150390625
0.0966796875
-0.019775390625
-0.0618896484375
0.19189453125
-0.129638671875
0.0494384765625
0.0084228515625
-0.008056640625
0.0128173828125
-0.002197265625
0.00146484375
-0.0018310546875
0.0087890625
0.0003662109375
-0.003662109375
0.002197265625
-0.005859375
-0.0003662109375
0.0054931640625
0.00146484375
0.0113525390625
0.0062255859375
-0.00732421875
0.0018310546875
-0.01904296875
-0.00732421875
-0.013916015625
-0.0047607421875
-0.01171875
0.0032958984375
0.005859375
0.0029296875
0.0062255859375
0.0040283203125
-0.0113525390625
0.003662109375
-0.01025390625
0.002197265625
0.00146484375
-0.0003662109375
0.0040283203125
-0.0054931640625
0.0062255859375
-0.005859375
0.0076904296875
-0.0047607421875
0.0
-0.00439453125
0.0018310546875
-0.005126953125
0.00732421875
-0.0032958984375
0.0106201171875
-0.0032958984375
0.0091552734375
-0.0025634765625
0.005126953125
-0.0029296875
0.0032958984375
-0.0032958984375
0.0084228515625
-0.0025634765625
0.017578125
-0.00146484375
0.0084228515625
-0.0018310546875
0.0010986328125
-0.008056640625
-0.0003662109375
-0.005126953125
0.00146484375
-0.0003662109375
0.006591796875
-0.00146484375
0.0084228515625
-0.0040283203125
0.0106201171875
-0.0040283203125
0.0003662109375
0.0157470703125
-0.005859375
-0.165191650390625
0.145050048828125
-0.116455078125
0.0186767578125
0.167022705078125
-0.183502197265625
0.1131591796875
-0.030029296875
0.0087890625
0.0333251953125
-0.005859375
0.0201416015625
-0.0084228515625
0.0238037109375
-0.0087890625
0.0106201171875
-0.00439453125
-0.0010986328125
-0.0084228515625
0.002197265625
-0.009521484375
0.008056640625
-0.0047607421875
0.005859375
-0.005859375
-0.008056640625
-0.0087890625
-0.0205078125
-0.0062255859375
-0.0142822265625
0.0010986328125
0.00146484375
-0.0010986328125
0.0040283203125
0.0018310546875
-0.0087890625
0.00439453125
-0.0098876953125
0.005859375
-0.00146484375
0.0018310546875
0.003662109375
-0.005126953125
0.002197265625
-0.0018310546875
0.0040283203125
-0.002197265625
0.002197265625
-0.0032958984375
-0.00146484375
-0.00439453125
0.0003662109375
-0.003662109375
-0.0029296875
-0.0040283203125
-0.0032958984375
-0.0032958984375
0.0003662109375
-0.0029296875
0.0018310546875
-0.005859375
0.0018310546875
-0.00439453125
0.0
-0.0069580078125
0.0054931640625
-0.0098876953125
0.0113525390625
-0.0029296875
-0.005126953125
0.0018310546875
-0.0029296875
-0.0032958984375
0.0032958984375
-0.0106201171875
0.0062255859375
-0.008056640625
0.0106201171875
0.006591796875
-0.0047607421875
-0.064453125
0.1025390625
-0.169219970703125
0.097412109375
0.0391845703125
-0.1182861328125
0.169586181640625
-0.109130859375
0.0303955078125
0.01611328125
0.00146484375
0.0234375
0.0040283203125
0.0087890625
0.0
0.009521484375
-0.0029296875
0.0106201171875
-0.0003662109375
0.008056640625
0.002197265625
0.010986328125
-0.0003662109375
0.017578125
-0.002197265625
0.0032958984375
-0.005859375
-0.010986328125
-0.0062255859375
-0.0076904296875
-0.003662109375
-0.000732421875
0.0025634765625
0.00732421875
0.006591796875
0.0
0.0113525390625
-0.00732421875
0.0113525390625
-0.00732421875
0.0098876953125
-0.006591796875
0.0106201171875
-0.0040283203125
0.005126953125
-0.000732421875
0.0040283203125
0.00146484375
0.005859375
-0.0047607421875
0.0135498046875
-0.0128173828125
0.017578125
-0.0142822265625
0.0150146484375
-0.0084228515625
0.0142822265625
-0.010986328125
0.0128173828125
-0.0106201171875
0.0135498046875
-0.006591796875
0.009521484375
-0.008056640625
0.0098876953125
-0.006591796875
0.0054931640625
-0.000732421875
0.000732421875
0.0025634765625
0.0018310546875
0.00146484375
0.0076904296875
0.0040283203125
0.0113525390625
0.002197265625
0.003662109375
-0.008056640625
0.0029296875
-0.01318359375
0.02197265625
-0.009521484375
-0.1318359375
0.1494140625
-0.13916015625
0.064453125
0.1351318359375
-0.1724853515625
0.1387939453125
-0.0673828125
0.0179443359375
0.0186767578125
0.0032958984375
0.0087890625
-0.00439453125
0.0142822265625
-0.0069580078125
0.0084228515625
-0.005859375
0.0003662109375
-0.0032958984375
0.0054931640625
0.000732421875
0.0029296875
0.0018310546875
-0.002197265625
0.0
-0.01025390625
-0.01025390625
-0.01171875
-0.0087890625
0.000732421875
-0.0029296875
0.003662109375
-0.0010986328125
0.003662109375
0.00146484375
0.0
0.005859375
-0.0098876953125
0.009521484375
-0.012451171875
0.0047607421875
0.0003662109375
0.000732421875
0.0087890625
-0.0025634765625
0.01318359375
-0.005859375
0.01611328125
-0.0087890625
0.008056640625
-0.006591796875
0.0040283203125
-0.0040283203125
0.0
-0.00439453125
-0.0010986328125
-0.00146484375
0.0032958984375
0.0003662109375
-0.0029296875
0.0003662109375
-0.003662109375
-0.0025634765625
0.0018310546875
-0.0010986328125
-0.0025634765625
0.000732421875
-0.0029296875
-0.0029296875
-0.002197265625
-0.00732421875
-0.005126953125
-0.0029296875
0.0025634765625
0.00439453125
0.0084228515625
0.0
0.00439453125
-0.00146484375
-0.0054931640625
0.0087890625
-0.017578125
-0.0450439453125
0.0684814453125
-0.182373046875
0.113525390625
0.022705078125
-0.098876953125
0.1959228515625
-0.1365966796875
0.0347900390625
0.01171875
-0.0084228515625
0.0201416015625
-0.000732421875
0.01171875
-0.003662109375
0.0150146484375
-0.0054931640625
0.0040283203125
-0.005126953125
0.0018310546875
-0.0076904296875
0.0142822265625
-0.0069580078125
0.01025390625
-0.0029296875
-0.00439453125
-0.0091552734375
-0.0216064453125
-0.0106201171875
-0.0238037109375
-0.006591796875
-0.0069580078125
-0.0010986328125
0.005126953125
0.002197265625
-0.005859375
0.0018310546875
-0.025634765625
0.0003662109375
-0.016845703125
-0.0003662109375
0.0018310546875
-0.0003662109375
0.01611328125
-0.0040283203125
0.01318359375
0.0010986328125
-0.00439453125
-0.0029296875
-0.0062255859375
-0.0098876953125
0.0010986328125
-0.0032958984375
0.00732421875
-0.0025634765625
0.0029296875
-0.00439453125
0.0003662109375
-0.0084228515625
0.0047607421875
-0.01025390625
0.01171875
-0.0091552734375
0.0084228515625
-0.0069580078125
0.003662109375
-0.0032958984375
0.00146484375
-0.0076904296875
0.0062255859375
-0.0084228515625
0.0135498046875
-0.005126953125
0.0018310546875
-0.0025634765625
0.0032958984375
-0.00146484375
0.010986328125
-0.002197265625
0.00732421875
-0.00439453125
-0.0054931640625
0.015380859375
-0.0128173828125
-0.154571533203125
0.140289306640625
-0.113525390625
0.027099609375
0.162628173828125
-0.173980712890625
0.111328125
-0.035888671875
0.0091552734375
0.0186767578125
-0.0029296875
0.0040283203125
-0.0047607421875
0.0150146484375
-0.0054931640625
0.006591796875
-0.003662109375
-0.0091552734375
-0.0029296875
0.002197265625
-0.005126953125
0.016845703125
-0.0029296875
0.01611328125
-0.005859375
-0.0032958984375
-0.0113525390625
-0.0208740234375
-0.0128173828125
-0.0087890625
-0.005126953125
0.0076904296875
0.0032958984375
0.0029296875
0.002197265625
-0.00146484375
0.003662109375
0.0047607421875
0.002197265625
0.0003662109375
-0.003662109375
0.002197265625
-0.0069580078125
0.008056640625
-0.0076904296875
0.0098876953125
-0.0062255859375
0.00732421875
-0.0029296875
0.0029296875
0.0029296875
0.0040283203125
0.0040283203125
-0.0040283203125
0.00146484375
-0.005859375
-0.00146484375
0.003662109375
0.0032958984375
0.002197265625
0.0032958984375
-0.0029296875
-0.0010986328125
-0.0029296875
0.003662109375
-0.000732421875
-0.000732421875
0.000732421875
-0.000732421875
-0.00439453125
0.00439453125
-0.000732421875
0.0054931640625
0.006591796875
0.003662109375
0.00439453125
0.00146484375
0.0032958984375
0.0069580078125
-0.0128173828125
0.0238037109375
-0.006591796875
-0.163360595703125
0.138458251953125
-0.0794677734375
-0.0091552734375
0.183135986328125
-0.168121337890625
0.0908203125
-0.01025390625
0.01611328125
0.0208740234375
0.0040283203125
0.010986328125
0.000732421875
0.0186767578125
0.0025634765625
0.0047607421875
0.0010986328125
0.0010986328125
0.000732421875
0.021240234375
0.0003662109375
0.0113525390625
0.00439453125
-0.0010986328125
0.0010986328125
-0.008056640625
-0.006591796875
-0.012451171875
-0.005126953125
-0.009521484375
0.0
-0.0076904296875
0.0040283203125
0.0040283203125
0.0054931640625
0.0018310546875
0.0069580078125
-0.0029296875
0.008056640625
-0.01171875
0.0087890625
-0.0084228515625
0.0025634765625
0.0029296875
0.00146484375
-0.002197265625
0.0032958984375
-0.005126953125
-0.00146484375
-0.00439453125
0.0018310546875
-0.002197265625
0.002197265625
-0.0032958984375
0.0
0.0
-0.0003662109375
0.0018310546875
0.0003662109375
-0.0010986328125
0.0040283203125
-0.0091552734375
0.0032958984375
-0.0054931640625
0.0029296875
0.002197265625
0.0040283203125
-0.0084228515625
-0.0010986328125
-0.0047607421875
-0.005126953125
-0.0025634765625
0.002197265625
-0.003662109375
0.0032958984375
0.00732421875
-0.0025634765625
0.0087890625
-0.0010986328125
0.0029296875
0.0
-0.0054931640625
0.005859375
0.000732421875
-0.1666259765625
0.1072998046875
-0.05126953125
-0.0296630859375
0.1754150390625
-0.145751953125
0.0516357421875
0.0098876953125
-0.003662109375
0.0201416015625
-0.0029296875
0.006591796875
-0.002197265625
0.0172119140625
-0.00439453125
0.005859375
-0.00439453125
0.0018310546875
-0.0054931640625
0.012451171875
-0.0029296875
0.0084228515625
0.002197265625
-0.002197265625
-0.000732421875
-0.0146484375
-0.005126953125
-0.018310546875
-0.0032958984375
-0.0084228515625
0.0069580078125
0.000732421875
0.008056640625
-0.0003662109375
0.006591796875
-0.005126953125
0.006591796875
-0.0029296875
0.005126953125
-0.0010986328125
0.0010986328125
0.0098876953125
-0.003662109375
0.005859375
-0.0018310546875
0.0010986328125
-0.0032958984375
-0.0010986328125
-0.003662109375
-0.0003662109375
-0.006591796875
0.009521484375
-0.0025634765625
0.0054931640625
0.0010986328125
0.0010986328125
-0.005126953125
0.00439453125
-0.0029296875
0.005126953125
-0.0003662109375
0.0029296875
0.00146484375
-0.0003662109375
-0.0018310546875
0.002197265625
-0.0010986328125
0.00146484375
-0.0032958984375
-0.000732421875
-0.00732421875
0.0029296875
0.0010986328125
-0.005126953125
0.0025634765625
-0.0032958984375
-0.00439453125
0.0091552734375
-0.006591796875
0.0032958984375
0.0062255859375
-0.01171875
-0.0208740234375
0.0428466796875
-0.187164306640625
0.1043701171875
-0.0091552734375
-0.076171875
0.199249267578125
-0.13037109375
0.03955078125
0.0216064453125
-0.013916015625
0.0238037109375
-0.003662109375
0.00732421875
-0.008056640625
0.0120849609375
-0.009521484375
0.0047607421875
-0.005126953125
0.000732421875
-0.00732421875
0.0120849609375
-0.0076904296875
0.017578125
-0.0069580078125
0.0010986328125
-0.009521484375
-0.0128173828125
-0.0150146484375
-0.01171875
-0.0091552734375
0.002197265625
-0.0029296875
0.005859375
-0.0040283203125
-0.0032958984375
-0.0040283203125
0.000732421875
-0.0010986328125
-0.0003662109375
0.0010986328125
-0.0040283203125
-0.005126953125
0.0054931640625
-0.0084228515625
0.012451171875
-0.0069580078125
0.0076904296875
-0.0025634765625
-0.0003662109375
-0.0018310546875
0.0
-0.0032958984375
0.0032958984375
-0.00146484375
0.0047607421875
0.0010986328125
-0.00146484375
0.0029296875
-0.0047607421875
0.000732421875
0.00439453125
0.002197265625
0.002197265625
0.003662109375
0.0003662109375
0.006591796875
0.0040283203125
0.0040283203125
0.0003662109375
-0.0025634765625
-0.0010986328125
0.0047607421875
-0.0054931640625
0.0098876953125
-0.0076904296875
0.006591796875
-0.0025634765625
0.0029296875
-0.000732421875
0.01171875
-0.009521484375
-0.010986328125
0.03515625
-0.181304931640625
0.10400390625
-0.016845703125
-0.059326171875
0.201446533203125
-0.1322021484375
0.0560302734375
0.00439453125
-0.00439453125
0.01904296875
-0.00146484375
0.01171875
-0.00146484375
0.0135498046875
-0.0003662109375
0.0047607421875
-0.000732421875
0.0040283203125
-0.003662109375
0.0091552734375
0.0
0.0084228515625
0.000732421875
-0.0040283203125
-0.002197265625
-0.01611328125
-0.00732421875
-0.0164794921875
-0.0029296875
-0.00439453125
0.005126953125
-0.00146484375
0.0069580078125
-0.0032958984375
0.0084228515625
-0.0032958984375
0.00732421875
-0.0098876953125
0.0069580078125
-0.0025634765625
0.0029296875
0.003662109375
0.0047607421875
0.002197265625
0.0040283203125
-0.000732421875
0.0003662109375
-0.005126953125
0.0018310546875
-0.0029296875
0.002197265625
-0.0047607421875
0.0010986328125
-0.002197265625
0.0003662109375
0.0018310546875
0.003662109375
-0.006591796875
-0.0003662109375
-0.0040283203125
-0.00146484375
0.002197265625
0.0
0.0010986328125
-0.00146484375
0.0018310546875
0.002197265625
0.0
-0.0029296875
-0.0040283203125
-0.008056640625
-0.002197265625
-0.0047607421875
-0.0018310546875
0.0
0.000732421875
-0.000732421875
0.0018310546875
-0.0040283203125
-0.00439453125
0.005126953125
-0.0106201171875
-0.0479736328125
0.0750732421875
-0.1787109375
0.0977783203125
0.01904296875
-0.1087646484375
0.18603515625
-0.11865234375
0.034423828125
0.0205078125
-0.0120849609375
0.0216064453125
-0.0069580078125
0.013916015625
-0.005126953125
0.010986328125
-0.0032958984375
0.0098876953125
-0.00732421875
0.01318359375
-0.008056640625
0.013916015625
-0.00439453125
0.012451171875
-0.0003662109375
-0.00146484375
-0.0003662109375
-0.0172119140625
-0.0032958984375
-0.010986328125
-0.00439453125
-0.0010986328125
-0.000732421875
-0.0029296875
0.0047607421875
0.0010986328125
0.002197265625
0.0018310546875
-0.0003662109375
-0.000732421875
0.000732421875
-0.0003662109375
0.0040283203125
0.0
0.000732421875
0.0010986328125
-0.0025634765625
0.000732421875
-0.000732421875
0.00146484375
-0.002197265625
0.0018310546875
-0.00146484375
0.0040283203125
-0.00146484375
0.00439453125
0.000732421875
0.00439453125
0.000732421875
0.0
-0.00146484375
0.0029296875
-0.00146484375
0.0098876953125
-0.0018310546875
0.005859375
0.0010986328125
0.0
0.0003662109375
-0.000732421875
-0.00439453125
0.005859375
-0.0069580078125
-0.0018310546875
-0.000732421875
-0.0054931640625
0.0018310546875
0.0018310546875
-0.0032958984375
0.0047607421875
-0.0047607421875
-0.0010986328125
0.003662109375
-0.0084228515625
-0.05419921875
0.0875244140625
-0.183135986328125
0.107666015625
0.0260009765625
-0.1131591796875
0.192657470703125
-0.12744140625
0.0384521484375
0.017578125
-0.009521484375
0.0216064453125
-0.0062255859375
0.0087890625
-0.0054931640625
0.01025390625
-0.0087890625
0.01611328125
-0.0087890625
0.015380859375
-0.009521484375
0.0146484375
-0.0047607421875
0.0084228515625
-0.0003662109375
-0.002197265625
-0.00439453125
-0.01025390625
-0.00732421875
-0.01171875
-0.005126953125
-0.0062255859375
0.002197265625
-0.0010986328125
0.0018310546875
0.0040283203125
0.0047607421875
-0.0003662109375
0.0054931640625
-0.0032958984375
0.00146484375
0.000732421875
0.0029296875
-0.0003662109375
-0.0003662109375
-0.0029296875
-0.0029296875
-0.0003662109375
-0.0032958984375
0.00146484375
-0.0018310546875
0.0029296875
-0.0003662109375
0.002197265625
0.000732421875
-0.0029296875
0.0
0.00146484375
-0.0003662109375
0.0047607421875
0.0025634765625
0.000732421875
-0.000732421875
-0.0003662109375
0.002197265625
-0.0010986328125
0.005126953125
-0.0025634765625
0.002197265625
-0.00732421875
-0.0018310546875
-0.003662109375
0.00146484375
0.0018310546875
0.0091552734375
0.0
0.008056640625
-0.002197265625
0.00439453125
-0.002197265625
0.0076904296875
-0.0084228515625
-0.006591796875
0.0274658203125
-0.175811767578125
0.0992431640625
-0.022705078125
-0.0640869140625
0.198883056640625
-0.134765625
0.052001953125
0.0150146484375
-0.005859375
0.028564453125
0.0025634765625
0.0062255859375
0.0010986328125
0.009521484375
-0.002197265625
0.008056640625
-0.006591796875
0.00732421875
-0.009521484375
0.01611328125
-0.005859375
0.012451171875
0.0
0.002197265625
-0.00146484375
-0.0164794921875
-0.0047607421875
-0.015380859375
-0.0025634765625
-0.00732421875
0.00439453125
-0.005859375
0.00439453125
0.0003662109375
0.00732421875
-0.0091552734375
0.0087890625
-0.0087890625
0.0025634765625
-0.002197265625
0.00439453125
-0.000732421875
0.002197265625
-0.0029296875
0.000732421875
-0.0047607421875
0.00146484375
-0.000732421875
0.00146484375
-0.0025634765625
0.0029296875
-0.0054931640625
0.002197265625
-0.0032958984375
0.0040283203125
-0.0091552734375
0.0029296875
-0.008056640625
-0.0003662109375
0.0069580078125
0.000732421875
-0.0018310546875
0.0054931640625
-0.0076904296875
0.005126953125
-0.0029296875
0.00146484375
0.0003662109375
-0.0029296875
-0.00146484375
-0.006591796875
-0.006591796875
0.0025634765625
-0.000732421875
0.0054931640625
-0.0010986328125
0.000732421875
0.0047607421875
-0.0029296875
0.002197265625
0.008056640625
-0.0142822265625
-0.0450439453125
0.06884765625
-0.1768798828125
0.0999755859375
0.0245361328125
-0.098876953125
0.1875
-0.1259765625
0.0369873046875
0.0142822265625
-0.00732421875
0.0260009765625
-0.0025634765625
0.016845703125
-0.0032958984375
0.0128173828125
-0.003662109375
0.0062255859375
-0.0025634765625
0.0076904296875
-0.0047607421875
0.012451171875
0.0
0.01318359375
0.0025634765625
-0.00146484375
-0.000732421875
-0.0128173828125
-0.0032958984375
-0.015380859375
-0.000732421875
-0.0106201171875
0.0029296875
0.000732421875
0.0018310546875
0.0047607421875
0.006591796875
-0.0003662109375
0.0025634765625
-0.0018310546875
0.0010986328125
0.0025634765625
0.0003662109375
0.00439453125
-0.000732421875
0.005859375
0.0010986328125
-0.0010986328125
-0.002197265625
0.000732421875
0.000732421875
0.0010986328125
-0.0010986328125
-0.00439453125
-0.0003662109375
0.0010986328125
-0.0003662109375
-0.0010986328125
-0.0003662109375
-0.0018310546875
-0.002197265625
0.0018310546875
-0.0047607421875
-0.0003662109375
-0.0025634765625
0.0032958984375
-0.005126953125
0.003662109375
0.0
-0.005126953125
-0.005126953125
-0.0010986328125
-0.0091552734375
0.003662109375
-0.0025634765625
0.0025634765625
-0.002197265625
0.0062255859375
-0.0054931640625
0.0062255859375
-0.0047607421875
-0.002197265625
0.00146484375
-0.0106201171875
-0.0113525390625
0.0205078125
-0.178741455078125
0.10546875
-0.0380859375
-0.041748046875
0.183502197265625
-0.1256103515625
0.046875
0.015380859375
-0.012451171875
0.0281982421875
-0.0054931640625
0.019775390625
-0.0054931640625
0.0157470703125
-0.005859375
0.0106201171875
-0.0062255859375
0.008056640625
-0.002197265625
0.00732421875
0.0
0.0113525390625
-0.0040283203125
0.0084228515625
-0.005859375
-0.0087890625
-0.0087890625
-0.0201416015625
-0.005859375
0.0018310546875
-0.0003662109375
0.0040283203125
0.0025634765625
-0.0054931640625
0.00146484375
-0.002197265625
0.0040283203125
-0.0047607421875
0.0054931640625
0.00146484375
0.0
-0.0003662109375
-0.0010986328125
0.002197265625
-0.002197265625
0.0040283203125
-0.002197265625
0.0040283203125
-0.002197265625
0.0029296875
0.006591796875
-0.0128173828125
0.00439453125
-0.0029296875
0.000732421875
0.006591796875
0.006591796875
-0.0018310546875
0.0018310546875
-0.005859375
0.0025634765625
-0.0029296875
0.0
0.0
0.00146484375
-0.0003662109375
0.0018310546875
0.0029296875
-0.0010986328125
0.0040283203125
-0.000732421875
0.0003662109375
0.0032958984375
-0.0018310546875
0.00732421875
-0.0003662109375
-0.0010986328125
0.0029296875
0.0025634765625
-0.002197265625
0.01318359375
-0.0135498046875
-0.0692138671875
0.101806640625
-0.1680908203125
0.0985107421875
0.0501708984375
-0.1292724609375
0.1805419921875
-0.11572265625
0.0333251953125
0.0120849609375
-0.00439453125
0.01904296875
-0.002197265625
0.0146484375
-0.00146484375
0.01171875
0.0
0.003662109375
-0.0025634765625
0.0032958984375
-0.0025634765625
0.0120849609375
-0.0003662109375
0.0047607421875
0.0032958984375
-0.0047607421875
-0.00439453125
-0.0128173828125
-0.0087890625
-0.0135498046875
-0.0029296875
-0.0106201171875
0.0025634765625
-0.0029296875
0.0040283203125
-0.002197265625
0.0054931640625
-0.008056640625
0.005859375
-0.0010986328125
0.002197265625
-0.006591796875
0.0018310546875
0.0003662109375
-0.0003662109375
0.0087890625
0.0018310546875
-0.0087890625
-0.00146484375
-0.0091552734375
-0.0029296875
0.00146484375
0.00146484375
-0.003662109375
-0.0018310546875
0.000732421875
0.0
0.002197265625
-0.0029296875
-0.003662109375
-0.0025634765625
0.000732421875
-0.002197265625
0.0003662109375
-0.003662109375
0.000732421875
-0.0029296875
-0.003662109375
-0.000732421875
-0.0018310546875
-0.0029296875
0.00439453125
-0.0087890625
0.00146484375
-0.00146484375
0.0010986328125
0.00146484375
0.0018310546875
0.0
0.000732421875
-0.003662109375
0.002197265625
-0.002197265625
-0.003662109375
0.015380859375
-0.0018310546875
-0.158203125
0.1435546875
-0.10400390625
0.01318359375
0.15966796875
-0.1856689453125
0.10400390625
-0.0289306640625
0.005859375
0.037353515625
-0.003662109375
0.015380859375
-0.00146484375
0.0172119140625
-0.0054931640625
0.0150146484375
-0.0018310546875
0.008056640625
-0.0025634765625
0.005859375
-0.0040283203125
0.01318359375
-0.0029296875
0.005126953125
0.0003662109375
-0.00732421875
-0.0069580078125
-0.0128173828125
-0.0087890625
-0.013916015625
-0.0010986328125
0.0
-0.000732421875
0.0069580078125
0.0040283203125
0.0003662109375
0.00146484375
-0.0018310546875
0.000732421875
-0.0003662109375
-0.0003662109375
-0.0029296875
-0.002197265625
0.005126953125
0.0003662109375
0.00146484375
-0.0032958984375
-0.0025634765625
-0.002197265625
0.00146484375
-0.0032958984375
-0.0054931640625
-0.0040283203125
0.0029296875
-0.0018310546875
0.003662109375
-0.00146484375
0.0010986328125
-0.0032958984375
0.002197265625
-0.0025634765625
0.0029296875
-0.0003662109375
-0.002197265625
-0.0010986328125
-0.0018310546875
0.002197265625
0.003662109375
-0.0029296875
0.0025634765625
-0.005126953125
-0.00146484375
-0.0029296875
-0.00439453125
0.0010986328125
0.009521484375
0.0029296875
0.0087890625
0.000732421875
-0.005126953125
0.0018310546875
-0.0040283203125
0.0142822265625
-0.00439453125
-0.154205322265625
0.145416259765625
-0.1329345703125
0.0340576171875
0.150177001953125
-0.186798095703125
0.1248779296875
-0.0531005859375
0.008056640625
0.02783203125
-0.005126953125
0.01611328125
-0.005859375
0.019775390625
-0.0010986328125
0.01171875
-0.0029296875
-0.000732421875
-0.003662109375
0.0062255859375
-0.0003662109375
0.0047607421875
0.000732421875
0.0010986328125
-0.000732421875
-0.0029296875
-0.0069580078125
-0.01025390625
-0.0032958984375
-0.0025634765625
0.00439453125
0.00439453125
0.008056640625
0.002197265625
-0.00439453125
0.017578125
-0.0062255859375
0.0186767578125
0.00146484375
0.00146484375
-0.0029296875
0.000732421875
-0.0003662109375
0.0069580078125
0.00146484375
0.005126953125
0.0087890625
-0.0054931640625
0.013916015625
-0.01318359375
0.0172119140625
-0.0076904296875
0.0179443359375
-0.0018310546875
0.01025390625
0.0003662109375
0.0054931640625
-0.0040283203125
0.003662109375
-0.0076904296875
0.005126953125
-0.0010986328125
0.0003662109375
0.00146484375
0.0018310546875
0.0062255859375
0.0018310546875
0.005126953125
-0.003662109375
-0.0040283203125
-0.0062255859375
-0.0003662109375
-0.0032958984375
0.005126953125
-0.0003662109375
-0.003662109375
-0.0091552734375
0.00146484375
-0.0194091796875
0.0025634765625
0.01611328125
-0.0205078125
-0.0164794921875
0.0494384765625
-0.184600830078125
0.1058349609375
0.0040283203125
-0.0948486328125
0.183502197265625
-0.139892578125
0.0274658203125
0.00439453125
-0.0106201171875
0.0062255859375
-0.005126953125
0.0010986328125
-0.0062255859375
0.0018310546875
-0.005126953125
-0.0010986328125
-0.0069580078125
0.005126953125
-0.005126953125
0.0084228515625
-0.005126953125
0.0076904296875
0.0003662109375
-0.0029296875
-0.002197265625
-0.022705078125
-0.0032958984375
-0.0208740234375
-0.003662109375
-0.0018310546875
-0.0098876953125
0.0098876953125
-0.0098876953125
0.006591796875
0.0
-0.00439453125
0.0054931640625
0.000732421875
0.0010986328125
0.0084228515625
0.005126953125
0.0040283203125
0.0010986328125
0.0029296875
-0.00146484375
0.0025634765625
-0.000732421875
-0.0029296875
0.0010986328125
-0.0040283203125
0.0040283203125
-0.00439453125
-0.000732421875
0.0
-0.0003662109375
0.00439453125
-0.0010986328125
0.0
0.0010986328125
0.0029296875
0.0
0.00732421875
0.0040283203125
-0.000732421875
0.000732421875
-0.00146484375
-0.0062255859375
0.003662109375
-0.000732421875
0.0025634765625
0.0018310546875
0.0025634765625
0.0025634765625
0.0076904296875
-0.0010986328125
0.00439453125
-0.0003662109375
-0.0010986328125
0.015380859375
-0.006591796875
-0.145782470703125
0.153839111328125
-0.1256103515625
0.0640869140625
0.148712158203125
-0.191558837890625
0.1219482421875
-0.0728759765625
0.0040283203125
0.022705078125
-0.002197265625
0.0120849609375
-0.0062255859375
0.0223388671875
-0.005859375
0.01318359375
-0.0029296875
-0.0018310546875
-0.0076904296875
0.0032958984375
-0.00732421875
0.0128173828125
-0.00732421875
0.01025390625
-0.0018310546875
-0.0025634765625
-0.005859375
-0.0205078125
-0.0054931640625
-0.015380859375
-0.0003662109375
0.0029296875
0.0018310546875
0.006591796875
0.006591796875
-0.005859375
0.0047607421875
-0.0069580078125
0.002197265625
0.0010986328125
-0.005126953125
0.005126953125
-0.0025634765625
0.0069580078125
-0.0018310546875
-0.0032958984375
-0.0010986328125
-0.0054931640625
0.000732421875
-0.003662109375
-0.0025634765625
0.002197265625
0.0025634765625
0.0047607421875
0.0003662109375
-0.002197265625
-0.0025634765625
0.0029296875
-0.0018310546875
0.00146484375
0.0
0.0010986328125
0.002197265625
0.006591796875
-0.002197265625
0.01025390625
-0.0047607421875
-0.0032958984375
-0.003662109375
-0.0029296875
0.0003662109375
0.013916015625
0.0003662109375
0.0084228515625
-0.0018310546875
0.0084228515625
0.0010986328125
-0.0047607421875
0.0025634765625
0.000732421875
-0.166290283203125
0.116455078125
-0.041015625
-0.024169921875
0.185333251953125
-0.1490478515625
0.0556640625
-0.008056640625
0.0018310546875
0.01025390625
0.000732421875
0.0084228515625
-0.0018310546875
0.019775390625
-0.0025634765625
0.005859375
-0.002197265625
-0.0029296875
-0.00146484375
0.01025390625
-0.005126953125
0.0146484375
0.0018310546875
-0.0025634765625
0.0010986328125
-0.0179443359375
-0.0003662109375
-0.0142822265625
0.000732421875
-0.0084228515625
0.0003662109375
0.0
0.002197265625
0.002197265625
0.0054931640625
-0.0076904296875
0.005859375
-0.009521484375
-0.00439453125
0.0018310546875
-0.005126953125
0.01171875
-0.00439453125
0.0069580078125
-0.002197265625
0.003662109375
-0.0003662109375
0.0018310546875
-0.002197265625
-0.00146484375
0.0029296875
-0.000732421875
-0.0003662109375
0.00146484375
-0.00146484375
0.0010986328125
-0.000732421875
-0.003662109375
0.0010986328125
-0.0025634765625
-0.0010986328125
0.0040283203125
-0.0003662109375
0.0025634765625
0.0047607421875
-0.0040283203125
-0.0025634765625
0.0003662109375
-0.0029296875
0.0
-0.0018310546875
-0.005126953125
0.0
0.00439453125
0.0
0.00439453125
-0.00146484375
-0.0010986328125
0.0003662109375
-0.0029296875
0.0179443359375
-0.010986328125
-0.1322021484375
0.153472900390625
-0.138427734375
0.0750732421875
0.1395263671875
-0.190826416015625
0.138427734375
-0.0948486328125
0.017578125
0.01025390625
0.005126953125
0.0054931640625
0.0010986328125
0.015380859375
0.002197265625
0.0076904296875
-0.0040283203125
0.0018310546875
-0.0069580078125
0.01318359375
-0.006591796875
0.0113525390625
-0.0010986328125
0.00732421875
0.00146484375
-0.0062255859375
-0.002197265625
-0.01611328125
-0.00439453125
-0.0076904296875
-0.0003662109375
-0.0032958984375
0.0032958984375
0.0025634765625
-0.0018310546875
0.005859375
0.0018310546875
0.0025634765625
0.000732421875
0.0
0.000732421875
0.00439453125
0.0
0.0040283203125
-0.000732421875
0.0029296875
-0.000732421875
0.005126953125
-0.0040283203125
0.000732421875
0.0010986328125
0.0
-0.0010986328125
-0.000732421875
0.0010986328125
-0.003662109375
-0.0018310546875
0.0003662109375
-0.0029296875
0.005126953125
0.0003662109375
0.0025634765625
-0.0010986328125
0.002197265625
0.00146484375
0.0003662109375
-0.0003662109375
0.0
-0.002197265625
0.0084228515625
-0.006591796875
-0.0018310546875
0.002197265625
-0.0029296875
0.00439453125
0.0084228515625
-0.0029296875
0.006591796875
-0.0029296875
0.0
0.01025390625
-0.012451171875
-0.0802001953125
0.1234130859375
-0.168487548828125
0.116455078125
0.0670166015625
-0.1490478515625
0.167022705078125
-0.1292724609375
0.0234375
0.016845703125
-0.002197265625
0.015380859375
-0.0010986328125
0.01171875
0.000732421875
0.0120849609375
-0.0025634765625
-0.0018310546875
-0.005126953125
0.0047607421875
-0.0084228515625
0.01611328125
-0.0069580078125
0.0076904296875
-0.0003662109375
-0.01171875
0.000732421875
-0.0201416015625
0.0025634765625
-0.015380859375
0.0040283203125
-0.0135498046875
0.00732421875
-0.005126953125
0.0062255859375
-0.00146484375
0.0098876953125
-0.013916015625
0.0091552734375
-0.01318359375
0.0069580078125
-0.0025634765625
0.005126953125
0.0
0.0018310546875
-0.002197265625
0.0032958984375
-0.00439453125
-0.0010986328125
0.0010986328125
0.0032958984375
-0.000732421875
0.0010986328125
-0.0025634765625
-0.0003662109375
0.0029296875
0.00146484375
0.00146484375
0.0003662109375
-0.00146484375
0.00439453125
-0.000732421875
0.0010986328125
0.000732421875
0.0018310546875
0.002197265625
0.0032958984375
-0.002197265625
-0.0018310546875
0.0003662109375
-0.005126953125
0.0
0.0
-0.0047607421875
0.00146484375
0.0018310546875
-0.002197265625
0.00439453125
0.0
0.0
-0.0032958984375
-0.005126953125
0.01904296875
-0.0113525390625
-0.1409912109375
0.156005859375
-0.1160888671875
0.052001953125
0.148681640625
-0.1988525390625
0.11279296875
-0.07470703125
0.0098876953125
0.016845703125
-0.0047607421875
0.00732421875
-0.002197265625
0.009521484375
-0.00439453125
0.010986328125
-0.003662109375
0.00732421875
-0.00439453125
0.008056640625
-0.006591796875
0.0146484375
-0.00439453125
0.0146484375
-0.00146484375
-0.0029296875
-0.0010986328125
-0.0106201171875
-0.0069580078125
-0.0025634765625
-0.0003662109375
-0.00146484375
0.000732421875
0.000732421875
0.0040283203125
-0.0010986328125
0.0054931640625
-0.0106201171875
0.0010986328125
-0.005126953125
0.0032958984375
0.008056640625
-0.0010986328125
0.010986328125
0.002197265625
0.0054931640625
0.0029296875
-0.00146484375
-0.0003662109375
0.0010986328125
-0.0025634765625
0.003662109375
-0.0010986328125
0.0010986328125
-0.000732421875
0.00146484375
-0.00439453125
-0.0003662109375
-0.0025634765625
0.0032958984375
-0.00439453125
0.0087890625
-0.000732421875
0.0054931640625
0.0003662109375
-0.0054931640625
0.0018310546875
-0.010986328125
0.0
-0.0010986328125
-0.0062255859375
0.0076904296875
-0.005859375
0.0029296875
-0.0025634765625
-0.0003662109375
0.002197265625
0.00439453125
-0.0025634765625
0.0032958984375
-0.0029296875
0.002197265625
0.0113525390625
-0.01171875
-0.095947265625
0.1285400390625
-0.1666259765625
0.1138916015625
0.0802001953125
-0.15673828125
0.16259765625
-0.126708984375
0.0157470703125
0.01318359375
-0.0087890625
0.02490234375
-0.0069580078125
0.0230712890625
-0.0032958984375
0.0113525390625
-0.002197265625
0.0018310546875
-0.00439453125
0.0054931640625
-0.003662109375
0.0113525390625
-0.003662109375
0.010986328125
0.003662109375
-0.0025634765625
-0.0003662109375
-0.01611328125
-0.005126953125
-0.0128173828125
-0.0018310546875
-0.002197265625
0.0029296875
-0.000732421875
0.00439453125
-0.0029296875
0.00439453125
-0.008056640625
0.00732421875
-0.00732421875
0.0029296875
0.0040283203125
0.002197265625
0.0018310546875
0.0010986328125
-0.0032958984375
0.0025634765625
-0.0003662109375
0.0029296875
0.002197265625
0.0010986328125
-0.000732421875
0.0029296875
-0.00146484375
0.0003662109375
-0.0010986328125
0.0010986328125
0.000732421875
0.0029296875
0.0
0.003662109375
-0.0010986328125
-0.0003662109375
-0.000732421875
0.0
-0.0032958984375
0.00439453125
-0.013916015625
0.0029296875
-0.01318359375
0.0025634765625
-0.0054931640625
0.0029296875
-0.01171875
0.0076904296875
-0.0054931640625
0.0040283203125
0.0047607421875
0.0003662109375
0.005126953125
0.0018310546875
0.0025634765625
0.0069580078125
-0.006591796875
-0.0281982421875
0.0552978515625
-0.17578125
0.1351318359375
0.0018310546875
-0.0611572265625
0.1834716796875
-0.1571044921875
0.03515625
-0.0062255859375
-0.0098876953125
0.02490234375
-0.003662109375
0.0164794921875
-0.0032958984375
0.0157470703125
-0.002197265625
0.003662109375
-0.0018310546875
0.0018310546875
-0.006591796875
0.010986328125
-0.002197265625
0.0113525390625
0.00146484375
0.0018310546875
0.0
-0.010986328125
-0.00439453125
-0.01025390625
-0.0018310546875
-0.005126953125
0.002197265625
-0.0018310546875
0.00146484375
-0.0029296875
0.005126953125
-0.005859375
0.0029296875
-0.0062255859375
0.0010986328125
-0.00146484375
-0.0003662109375
0.005126953125
-0.0018310546875
0.0032958984375
-0.0018310546875
0.0003662109375
-0.0025634765625
-0.0018310546875
-0.0003662109375
0.002197265625
-0.002197265625
0.00439453125
-0.00146484375
-0.000732421875
-0.0025634765625
0.0018310546875
-0.0018310546875
-0.0003662109375
-0.000732421875
-0.0047607421875
-0.0032958984375
0.0018310546875
-0.0010986328125
0.00439453125
-0.005126953125
0.002197265625
-0.0025634765625
0.00146484375
0.0029296875
0.00146484375
0.0
0.00439453125
-0.0062255859375
0.0032958984375
-0.0040283203125
0.0032958984375
-0.0003662109375
0.005859375
-0.0010986328125
0.0029296875
-0.000732421875
0.0040283203125
-0.000732421875
-0.00439453125
0.0
0.009521484375
-0.162261962890625
0.123779296875
-0.040283203125
-0.019775390625
0.169952392578125
-0.1483154296875
0.04248046875
-0.00732421875
-0.010986328125
0.025634765625
-0.010986328125
0.0208740234375
-0.0076904296875
0.017578125
-0.0054931640625
0.0098876953125
-0.0047607421875
0.01025390625
-0.0047607421875
0.0106201171875
-0.0018310546875
0.0076904296875
0.002197265625
0.0025634765625
-0.0040283203125
-0.0076904296875
-0.00732421875
-0.01611328125
-0.005859375
-0.01171875
0.0
0.0
-0.00146484375
0.0
-0.00146484375
-0.000732421875
0.0025634765625
0.0
0.0032958984375
-0.0018310546875
0.00439453125
0.0029296875
-0.000732421875
0.0047607421875
-0.0003662109375
-0.00146484375
-0.0010986328125
-0.0003662109375
-0.0029296875
0.0032958984375
-0.0018310546875
0.000732421875
0.0025634765625
-0.0054931640625
0.0018310546875
0.002197265625
-0.00146484375
0.0069580078125
0.002197265625
0.0003662109375
0.000732421875
-0.0029296875
0.002197265625
-0.0032958984375
0.0003662109375
0.0003662109375
0.0029296875
0.0010986328125
0.0018310546875
0.000732421875
-0.005126953125
-0.000732421875
0.0003662109375
-0.00146484375
0.005126953125
-0.0032958984375
0.005859375
0.0
-0.00146484375
-0.0003662109375
-0.0003662109375
-0.0047607421875
0.0179443359375
-0.0054931640625
-0.1376953125
0.154937744140625
-0.1168212890625
0.0560302734375
0.141357421875
-0.192291259765625
0.117919921875
-0.078369140625
0.0113525390625
0.01318359375
0.0003662109375
0.0106201171875
-0.0003662109375
0.012451171875
-0.002197265625
0.0069580078125
-0.000732421875
0.0040283203125
0.0010986328125
0.00439453125
0.0003662109375
0.0098876953125
-0.0029296875
0.00732421875
0.002197265625
-0.0076904296875
0.002197265625
-0.0194091796875
-0.0003662109375
-0.0142822265625
0.0003662109375
-0.0062255859375
0.0010986328125
-0.00146484375
0.00732421875
-0.00439453125
0.005859375
-0.0098876953125
0.006591796875
-0.0069580078125
0.005859375
-0.00146484375
0.003662109375
-0.000732421875
0.0
0.000732421875
0.0010986328125
-0.0003662109375
0.0040283203125
-0.00439453125
0.0010986328125
0.0003662109375
0.000732421875
0.003662109375
-0.0010986328125
0.0010986328125
0.0003662109375
-0.000732421875
-0.0018310546875
0.002197265625
-0.0032958984375
0.0010986328125
-0.0040283203125
0.0032958984375
-0.0025634765625
0.0029296875
0.000732421875
-0.0003662109375
0.0003662109375
-0.002197265625
-0.003662109375
0.000732421875
-0.00732421875
0.0069580078125
-0.0029296875
0.0029296875
-0.0018310546875
0.0029296875
0.0003662109375
0.003662109375
0.0018310546875
-0.000732421875
0.0
-0.0047607421875
0.018310546875
-0.01318359375
-0.1226806640625
0.1505126953125
-0.1380615234375
0.084228515625
0.1226806640625
-0.1845703125
0.135498046875
-0.1021728515625
0.0113525390625
0.019775390625
-0.0025634765625
0.021240234375
-0.000732421875
0.015380859375
-0.00439453125
0.0120849609375
-0.0003662109375
0.0098876953125
-0.003662109375
0.01025390625
-0.0047607421875
0.0135498046875
-0.0025634765625
0.0135498046875
-0.0003662109375
0.0
0.0003662109375
-0.015380859375
-0.0040283203125
-0.01318359375
-0.00146484375
0.0010986328125
-0.00146484375
0.0032958984375
0.000732421875
0.0003662109375
0.0025634765625
-0.005859375
0.000732421875
-0.0003662109375
-0.0003662109375
0.008056640625
-0.0010986328125
0.005126953125
-0.0018310546875
0.003662109375
-0.005126953125
0.000732421875
-0.0032958984375
0.00146484375
-0.0032958984375
-0.002197265625
-0.003662109375
0.0032958984375
-0.00439453125
0.005859375
-0.003662109375
-0.002197265625
-0.0018310546875
0.0003662109375
-0.0040283203125
0.0032958984375
-0.0029296875
0.0040283203125
-0.00439453125
0.0010986328125
-0.0029296875
-0.0032958984375
-0.000732421875
0.0025634765625
-0.0032958984375
0.0062255859375
-0.0076904296875
-0.0003662109375
-0.00146484375
-0.00146484375
0.000732421875
0.003662109375
-0.0047607421875
0.0032958984375
-0.00146484375
0.003662109375
-0.002197265625
-0.0025634765625
0.0091552734375
0.0040283203125
-0.157135009765625
0.134033203125
-0.0552978515625
-0.0135498046875
0.170318603515625
-0.1680908203125
0.056396484375
-0.013916015625
0.0018310546875
0.0216064453125
-0.00146484375
0.010986328125
-0.0010986328125
0.0120849609375
0.002197265625
0.002197265625
0.0018310546875
-0.0003662109375
-0.0003662109375
0.0084228515625
-0.000732421875
0.0076904296875
0.0025634765625
0.0040283203125
0.0018310546875
-0.0120849609375
0.0003662109375
-0.0179443359375
-0.0062255859375
-0.009521484375
-0.00146484375
-0.00732421875
0.0040283203125
-0.002197265625
0.00439453125
-0.003662109375
0.0098876953125
-0.0098876953125
0.0054931640625
-0.0062255859375
0.0032958984375
0.0003662109375
0.00146484375
0.0029296875
-0.0003662109375
0.003662109375
0.0010986328125
-0.0025634765625
0.0
-0.0025634765625
-0.000732421875
0.0
0.0018310546875
-0.0040283203125
0.0025634765625
-0.00146484375
-0.00146484375
0.0003662109375
0.002197265625
-0.0010986328125
-0.0003662109375
0.0032958984375
-0.000732421875
0.0032958984375
-0.0010986328125
-0.0018310546875
-0.0025634765625
-0.0018310546875
0.0040283203125
-0.000732421875
-0.0025634765625
-0.002197265625
-0.0025634765625
0.0010986328125
0.000732421875
-0.0010986328125
0.0029296875
-0.005126953125
0.002197265625
0.0
-0.002197265625
0.003662109375
-0.002197265625
0.0
0.0142822265625
-0.0120849609375
-0.1285400390625
0.157470703125
-0.139892578125
0.0823974609375
0.1292724609375
-0.1929931640625
0.13330078125
-0.0970458984375
0.0087890625
0.021240234375
-0.0025634765625
0.0164794921875
-0.0025634765625
0.015380859375
-0.0025634765625
0.0098876953125
-0.0025634765625
0.00146484375
-0.0040283203125
0.0084228515625
-0.0040283203125
0.01171875
0.003662109375
0.003662109375
0.0025634765625
-0.005859375
-0.002197265625
-0.0113525390625
-0.0047607421875
-0.0098876953125
-0.0040283203125
-0.0047607421875
0.00146484375
0.0054931640625
0.0010986328125
0.005126953125
0.0032958984375
-0.000732421875
0.000732421875
0.000732421875
0.0003662109375
0.003662109375
0.00146484375
0.0054931640625
-0.0018310546875
0.003662109375
-0.0018310546875
0.0010986328125
-0.003662109375
0.003662109375
-0.002197265625
0.0054931640625
-0.0010986328125
0.0003662109375
0.000732421875
0.00146484375
-0.0003662109375
-0.0003662109375
0.000732421875
-0.002197265625
-0.002197265625
0.003662109375
-0.006591796875
0.003662109375
-0.00146484375
0.0
-0.003662109375
0.0010986328125
-0.00146484375
0.0003662109375
-0.0018310546875
0.0029296875
-0.0054931640625
0.0069580078125
-0.0054931640625
0.0025634765625
0.0
-0.0047607421875
0.0029296875
-0.0003662109375
-0.003662109375
0.0054931640625
-0.002197265625
-0.000732421875
0.005126953125
-0.010986328125
-0.0384521484375
0.0703125
-0.178009033203125
0.1343994140625
0.0135498046875
-0.08642578125
0.186431884765625
-0.156005859375
0.025634765625
0.0047607421875
-0.016845703125
0.0296630859375
-0.009521484375
0.0194091796875
-0.00146484375
0.01318359375
-0.0003662109375
0.006591796875
-0.002197265625
0.008056640625
-0.0040283203125
0.0120849609375
-0.0025634765625
0.0084228515625
0.0029296875
0.0003662109375
-0.0018310546875
-0.01318359375
-0.0029296875
-0.0164794921875
-0.0032958984375
-0.0076904296875
0.0025634765625
-0.000732421875
0.0062255859375
-0.0003662109375
0.0062255859375
-0.005126953125
0.00439453125
-0.0032958984375
0.003662109375
-0.0029296875
0.005126953125
-0.0003662109375
0.0010986328125
-0.0010986328125
0.002197265625
-0.0032958984375
0.0
-0.000732421875
-0.00146484375
0.00146484375
0.002197265625
0.0
0.0032958984375
-0.00146484375
0.0040283203125
-0.0025634765625
0.0032958984375
-0.005859375
0.0040283203125
-0.0032958984375
0.002197265625
-0.0003662109375
0.003662109375
-0.0029296875
0.0029296875
-0.0054931640625
0.0029296875
-0.0029296875
0.0054931640625
0.0
0.0
0.0
-0.0040283203125
-0.0040283203125
-0.0003662109375
-0.0047607421875
0.0076904296875
0.0010986328125
0.005126953125
0.0010986328125
0.00146484375
-0.000732421875
0.005859375
-0.008056640625
0.002197265625
0.006591796875
-0.160400390625
0.1241455078125
-0.035888671875
-0.0274658203125
0.1783447265625
-0.1695556640625
0.0494384765625
-0.0201416015625
-0.0040283203125
0.018310546875
0.0040283203125
0.00732421875
0.00146484375
0.0076904296875
0.0003662109375
0.009521484375
-0.002197265625
0.006591796875
-0.0054931640625
0.010986328125
-0.005126953125
0.0157470703125
0.0010986328125
0.0040283203125
0.000732421875
-0.01318359375
-0.005126953125
-0.0120849609375
-0.00439453125
-0.005859375
-0.000732421875
-0.0010986328125
0.003662109375
-0.00146484375
0.000732421875
-0.0040283203125
0.0010986328125
0.0010986328125
0.0018310546875
-0.0010986328125
0.0010986328125
-0.0025634765625
-0.0010986328125
0.000732421875
-0.0029296875
0.002197265625
-0.0010986328125
0.0018310546875
-0.0032958984375
0.0018310546875
-0.00146484375
0.000732421875
-0.0018310546875
-0.0010986328125
0.0010986328125
0.002197265625
0.0018310546875
-0.000732421875
-0.00146484375
-0.00146484375
-0.002197265625
0.0025634765625
-0.00439453125
0.0018310546875
-0.0032958984375
0.005126953125
-0.0040283203125
0.0047607421875
0.0025634765625
-0.0018310546875
-0.0018310546875
0.000732421875
-0.010986328125
0.0069580078125
-0.003662109375
0.0025634765625
-0.000732421875
0.005126953125
-0.0032958984375
0.009521484375
-0.0069580078125
0.0062255859375
-0.0040283203125
0.0003662109375
0.0040283203125
0.0047607421875
-0.159698486328125
0.1468505859375
-0.05419921875
-0.0025634765625
0.162628173828125
-0.1724853515625
0.05419921875
-0.0186767578125
0.000732421875
0.0172119140625
0.0003662109375
0.013916015625
-0.00146484375
0.0113525390625
0.00146484375
0.0047607421875
0.0029296875
0.003662109375
0.0010986328125
0.005859375
0.000732421875
0.006591796875
0.0029296875
0.003662109375
0.0069580078125
-0.01171875
0.0018310546875
-0.0205078125
-0.000732421875
-0.0069580078125
0.0
-0.0003662109375
0.0010986328125
0.00439453125
0.0032958984375
0.0
0.003662109375
-0.005126953125
0.00146484375
-0.0010986328125
-0.0029296875
0.0025634765625
-0.0018310546875
0.0047607421875
-0.00146484375
-0.000732421875
-0.002197265625
-0.0018310546875
-0.0054931640625
0.0003662109375
-0.0025634765625
0.0040283203125
-0.000732421875
0.00439453125
-0.0032958984375
0.00146484375
-0.0047607421875
0.0018310546875
-0.00439453125
0.0040283203125
0.0
0.0040283203125
-0.0069580078125
0.005859375
-0.005126953125
0.0010986328125
-0.0032958984375
-0.00146484375
-0.003662109375
0.0003662109375
-0.003662109375
0.00146484375
-0.0076904296875
0.0010986328125
0.0
0.000732421875
-0.003662109375
0.0076904296875
-0.006591796875
0.0076904296875
-0.0128173828125
0.010986328125
-0.0076904296875
0.0062255859375
0.00146484375
0.012451171875
-0.169952392578125
0.1300048828125
-0.04541015625
-0.01611328125
0.162261962890625
-0.144287109375
0.0399169921875
0.0069580078125
-0.0087890625
0.029296875
-0.0087890625
0.0234375
-0.00146484375
0.015380859375
-0.0076904296875
0.01318359375
-0.013916015625
0.0208740234375
-0.0146484375
0.02197265625
-0.0018310546875
0.012451171875
0.0029296875
-0.0010986328125
0.002197265625
-0.0091552734375
0.0003662109375
-0.0098876953125
-0.0146484375
0.0106201171875
-0.0238037109375
0.02783203125
-0.017578125
0.0223388671875
-0.0032958984375
0.0040283203125
-0.0040283203125
-0.0040283203125
-0.0084228515625
0.0040283203125
-0.0172119140625
0.013916015625
-0.0234375
0.0135498046875
-0.0289306640625
0.01904296875
-0.0157470703125
0.0113525390625
-0.0032958984375
-0.0010986328125
-0.0135498046875
0.005859375
-0.019439697265625
0.0186767578125
-0.016143798828125
0.015380859375
-0.00146484375
0.003692626953125
-0.000732421875
0.002960205078125
0.000732421875
-0.003692626953125
0.006591796875
-0.006256103515625
0.011749267578125
-0.01171875
0.013214111328125
-0.013916015625
0.002197265625
-0.003662109375
0.005126953125
-0.002197265625
0.0010986328125
-0.005126953125
-0.005126953125
-0.0018310546875
0.0047607421875
-0.005126953125
0.008056640625
-0.005126953125
0.006591796875
-0.002197265625
0.00439453125
-0.0087890625
0.0091552734375
-0.0135498046875
0.02197265625
-0.0084228515625
-0.149078369140625
0.165191650390625
-0.064849853515625
0.003662109375
0.175445556640625
-0.215362548828125
0.085357666015625
-0.05126953125
0.016845703125
-0.009521484375
0.0146484375
-0.0091552734375
0.0120849609375
0.0032958984375
0.0128173828125
-0.005126953125
0.006591796875
-0.0032958984375
0.00439453125
0.009521484375
0.003662109375
0.01318359375
0.0054931640625
0.00146484375
0.010986328125
-0.0201416015625
0.0032958984375
-0.0208740234375
0.0062255859375
-0.0150146484375
0.013916015625
-0.0113525390625
0.0157470703125
-0.0069580078125
0.0084228515625
-0.00439453125
0.0040283203125
-0.005859375
0.005126953125
-0.00439453125
0.0029296875
0.0040283203125
0.00732421875
0.003662109375
0.003662109375
0.0029296875
-0.002197265625
0.0025634765625
-0.006591796875
0.000732421875
-0.005126953125
0.003662109375
-0.000732421875
0.0003662109375
-0.000732421875
-0.0010986328125
-0.0025634765625
-0.0003662109375
-0.00439453125
0.0018310546875
-0.00146484375
0.0087890625
-0.003662109375
0.008056640625
-0.0029296875
0.0069580078125
-0.002197265625
0.0047607421875
-0.002197265625
0.0010986328125
0.002197265625
-0.003662109375
-0.00439453125
0.0
-0.0047607421875
0.002197265625
0.000732421875
-0.0029296875
0.0054931640625
-0.000732421875
0.0040283203125
0.00146484375
0.000732421875
0.0010986328125
-0.0018310546875
0.0025634765625
0.0146484375
-0.0106201171875
-0.120880126953125
0.154937744140625
-0.141387939453125
0.093017578125
0.128570556640625
-0.196319580078125
0.141387939453125
-0.11865234375
0.0087890625
0.013916015625
-0.000732421875
0.0113525390625
0.00439453125
0.0069580078125
-0.0018310546875
0.0091552734375
-0.0076904296875
0.006591796875
-0.0069580078125
0.0128173828125
-0.0069580078125
0.0142822265625
0.000732421875
0.0054931640625
0.00146484375
-0.005126953125
-0.00146484375
-0.0142822265625
-0.0003662109375
-0.015380859375
0.0003662109375
-0.0003662109375
0.000732421875
0.0047607421875
-0.000732421875
-0.000732421875
0.0040283203125
-0.0003662109375
0.0029296875
-0.0029296875
0.002197265625
-0.002197265625
0.0018310546875
0.002197265625
-0.000732421875
0.0
-0.00146484375
-0.0029296875
-0.0018310546875
-0.0025634765625
-0.000732421875
0.0018310546875
-0.00146484375
0.0018310546875
0.0025634765625
-0.0018310546875
0.000732421875
0.000732421875
0.000732421875
0.000732421875
-0.000732421875
0.002197265625
-0.003662109375
0.0003662109375
-0.002197265625
0.00146484375
-0.0040283203125
0.002197265625
0.0010986328125
0.0
-0.002197265625
0.0010986328125
-0.0040283203125
0.000732421875
-0.0018310546875
0.0010986328125
0.00146484375
0.002197265625
0.00439453125
0.0018310546875
-0.00146484375
0.0029296875
0.0003662109375
0.0
0.015380859375
0.0
-0.137359619140625
0.135894775390625
-0.03955078125
-0.0234375
0.191192626953125
-0.211334228515625
0.08203125
-0.03955078125
0.002197265625
0.021240234375
-0.0010986328125
0.0146484375
-0.0047607421875
0.0157470703125
-0.0084228515625
0.012451171875
-0.0135498046875
0.0142822265625
-0.0150146484375
0.0238037109375
-0.0142822265625
0.022705078125
-0.0084228515625
0.008056640625
0.0003662109375
-0.01025390625
-0.005126953125
-0.015380859375
-0.0098876953125
-0.0018310546875
-0.008056640625
0.006591796875
-0.000732421875
0.002197265625
0.00146484375
-0.0003662109375
-0.0003662109375
0.002197265625
0.000732421875
-0.0047607421875
0.0018310546875
-0.0062255859375
0.00146484375
0.002197265625
-0.0047607421875
0.0040283203125
-0.00146484375
0.0
-0.0010986328125
-0.0018310546875
-0.0025634765625
0.0003662109375
-0.00146484375
-0.002197265625
0.0
-0.0025634765625
-0.000732421875
0.00146484375
0.000732421875
-0.0032958984375
0.005126953125
-0.003662109375
0.0
0.0029296875
0.0032958984375
0.0003662109375
0.0054931640625
-0.003662109375
0.0
0.0
-0.002197265625
0.0
0.0025634765625
-0.0018310546875
0.0029296875
0.00439453125
0.0003662109375
0.0010986328125
0.005126953125
-0.00439453125
0.009521484375
-0.01171875
-0.019775390625
0.0384521484375
-0.169586181640625
0.1307373046875
0.0
-0.0538330078125
0.190460205078125
-0.1688232421875
0.041015625
-0.0234375
-0.00732421875
0.0186767578125
-0.006591796875
0.0172119140625
-0.0025634765625
0.01025390625
0.002197265625
0.00146484375
0.0003662109375
0.0047607421875
-0.0054931640625
0.0128173828125
-0.005126953125
0.01171875
0.000732421875
0.0025634765625
-0.000732421875
-0.01025390625
-0.0025634765625
-0.0098876953125
-0.00146484375
-0.0040283203125
0.0018310546875
-0.00146484375
0.002197265625
0.0
0.00439453125
-0.0040283203125
0.0076904296875
-0.005859375
0.0087890625
-0.0062255859375
0.0062255859375
0.0
0.0003662109375
0.002197265625
0.0025634765625
-0.0029296875
-0.0003662109375
-0.000732421875
0.0
0.0010986328125
0.0040283203125
-0.0025634765625
0.0010986328125
-0.0040283203125
0.0040283203125
-0.0018310546875
0.00146484375
0.0
0.00146484375
-0.00146484375
0.0025634765625
-0.00439453125
0.0018310546875
-0.00146484375
0.0010986328125
-0.00146484375
0.0003662109375
-0.002197265625
-0.000732421875
0.0032958984375
-0.0025634765625
-0.0029296875
0.0054931640625
-0.0091552734375
0.0025634765625
-0.0029296875
-0.00146484375
0.00146484375
0.0003662109375
0.0010986328125
0.006591796875
-0.0087890625
-0.044677734375
0.0765380859375
-0.1754150390625
0.1527099609375
0.019775390625
-0.078369140625
0.180908203125
-0.17724609375
0.0281982421875
-0.01904296875
-0.01318359375
0.017578125
-0.005126953125
0.0146484375
-0.0098876953125
0.0205078125
-0.0084228515625
0.01171875
-0.003662109375
0.0047607421875
-0.006591796875
0.0120849609375
-0.0054931640625
0.0146484375
-0.005859375
0.006591796875
-0.0029296875
-0.0069580078125
-0.005859375
-0.0098876953125
-0.0062255859375
-0.0003662109375
-0.00146484375
0.0054931640625
-0.000732421875
0.005126953125
0.0062255859375
-0.0029296875
0.0003662109375
-0.0032958984375
-0.0018310546875
0.0025634765625
-0.0018310546875
0.0054931640625
-0.0025634765625
0.008056640625
-0.0018310546875
0.0018310546875
-0.0029296875
0.00146484375
-0.000732421875
0.0040283203125
0.0003662109375
-0.0003662109375
0.0003662109375
-0.0010986328125
-0.002197265625
0.0003662109375
0.0018310546875
0.0010986328125
0.0003662109375
0.0003662109375
-0.0003662109375
-0.0010986328125
-0.000732421875
0.000732421875
-0.0040283203125
0.0062255859375
-0.0003662109375
0.0032958984375
-0.0032958984375
0.00439453125
-0.0040283203125
0.0087890625
-0.0054931640625
0.000732421875
0.0003662109375
0.0003662109375
0.0032958984375
0.00439453125
-0.00146484375
0.0054931640625
-0.0003662109375
0.0040283203125
0.0029296875
-0.010986328125
-0.0234375
0.0465087890625
-0.171417236328125
0.146514892578125
0.0
-0.0509033203125
0.182403564453125
-0.172149658203125
0.031494140625
-0.0205078125
-0.0087890625
0.0194091796875
-0.002197265625
0.013916015625
-0.003662109375
0.0135498046875
-0.0032958984375
0.006591796875
-0.0029296875
0.0076904296875
-0.009521484375
0.0179443359375
-0.00732421875
0.0164794921875
-0.000732421875
0.005859375
0.0032958984375
-0.0128173828125
-0.0003662109375
-0.0146484375
-0.0032958984375
-0.0047607421875
0.0029296875
-0.0018310546875
0.002197265625
0.0
0.002197265625
-0.0032958984375
0.0032958984375
-0.008056640625
0.0047607421875
-0.00439453125
0.002197265625
0.000732421875
0.0032958984375
-0.002197265625
0.0047607421875
-0.0025634765625
-0.002197265625
-0.0003662109375
0.0
0.0003662109375
-0.0018310546875
0.0025634765625
-0.00146484375
0.0010986328125
-0.0010986328125
0.0
-0.0029296875
0.0029296875
0.0
0.003662109375
-0.000732421875
0.00146484375
0.0
-0.0018310546875
-0.002197265625
-0.003662109375
0.0
-0.0010986328125
-0.002197265625
0.0003662109375
-0.005859375
0.0029296875
-0.00439453125
0.002197265625
-0.0010986328125
0.00146484375
0.00439453125
0.0018310546875
0.0010986328125
-0.000732421875
-0.000732421875
0.0
0.009521484375
-0.012451171875
-0.052734375
0.094482421875
-0.170318603515625
0.134765625
0.03515625
-0.10986328125
0.185699462890625
-0.166259765625
0.031494140625
-0.0091552734375
-0.0098876953125
0.0252685546875
-0.0018310546875
0.0106201171875
-0.0003662109375
0.0098876953125
-0.0032958984375
0.00732421875
-0.005126953125
0.0047607421875
-0.005859375
0.0142822265625
-0.0062255859375
0.01611328125
0.002197265625
0.000732421875
0.0025634765625
-0.0142822265625
0.0
-0.0135498046875
0.0
-0.0087890625
0.002197265625
-0.0047607421875
0.0040283203125
-0.0018310546875
0.0069580078125
-0.006591796875
0.0091552734375
-0.00732421875
0.0087890625
-0.0069580078125
0.0076904296875
-0.0032958984375
0.0003662109375
0.0
0.00146484375
-0.0029296875
0.0025634765625
-0.003662109375
0.0029296875
-0.0010986328125
0.0047607421875
-0.0040283203125
0.0025634765625
-0.0040283203125
0.0047607421875
-0.000732421875
0.00146484375
-0.0029296875
0.0018310546875
-0.0029296875
0.00146484375
-0.003662109375
0.0029296875
-0.0040283203125
0.0029296875
-0.0025634765625
0.00146484375
-0.0025634765625
0.0040283203125
-0.0025634765625
-0.0025634765625
0.002197265625
-0.0025634765625
0.0010986328125
0.0040283203125
-0.0069580078125
0.0084228515625
-0.0040283203125
0.0069580078125
-0.0025634765625
0.0062255859375
-0.005126953125
0.010986328125
-0.0135498046875
0.0
0.005126953125
-0.1541748046875
0.1300048828125
-0.0245361328125
-0.018310546875
0.17138671875
-0.166259765625
0.0428466796875
-0.02783203125
-0.0040283203125
0.009521484375
-0.0018310546875
0.0087890625
-0.00146484375
0.01025390625
0.0018310546875
0.006591796875
-0.0025634765625
0.0069580078125
-0.00439453125
0.0106201171875
-0.002197265625
0.0098876953125
0.0003662109375
0.0069580078125
0.0025634765625
-0.01025390625
-0.0025634765625
-0.015380859375
-0.0047607421875
-0.00439453125
0.000732421875
-0.002197265625
0.002197265625
0.00439453125
0.00146484375
0.0040283203125
0.00146484375
0.0010986328125
-0.00146484375
0.0032958984375
-0.0029296875
0.005859375
-0.003662109375
0.005126953125
0.0
-0.0003662109375
0.0047607421875
-0.0029296875
0.000732421875
-0.0003662109375
0.0
0.0029296875
-0.003662109375
0.0054931640625
-0.0029296875
0.0040283203125
0.0003662109375
-0.003662109375
-0.0003662109375
-0.0003662109375
-0.0018310546875
0.0040283203125
-0.003662109375
0.00146484375
0.0
0.0010986328125
0.0010986328125
0.0
0.00146484375
0.000732421875
0.0
0.00146484375
-0.005126953125
0.005859375
-0.0091552734375
0.005126953125
-0.002197265625
-0.00146484375
0.0
0.0047607421875
-0.0040283203125
0.0113525390625
-0.00146484375
0.0047607421875
-0.0047607421875
-0.0029296875
0.01171875
0.0010986328125
-0.1607666015625
0.179443359375
-0.0955810546875
0.04248046875
0.1593017578125
-0.2010498046875
0.0816650390625
-0.0589599609375
-0.0029296875
0.0208740234375
-0.0186767578125
0.0267333984375
-0.0157470703125
0.0245361328125
-0.0098876953125
0.012451171875
-0.005859375
0.0040283203125
-0.0062255859375
0.0106201171875
-0.0098876953125
0.018310546875
-0.0047607421875
0.01171875
-0.0018310546875
-0.005859375
-0.0047607421875
-0.01171875
-0.0098876953125
-0.0062255859375
-0.00439453125
-0.0018310546875
-0.0018310546875
0.003662109375
0.000732421875
0.000732421875
0.0
-0.000732421875
-0.00146484375
0.0010986328125
0.00439453125
0.0
-0.0010986328125
0.00146484375
-0.0040283203125
0.000732421875
-0.00439453125
0.0003662109375
-0.003662109375
0.0032958984375
-0.00146484375
0.002197265625
-0.003662109375
0.0032958984375
-0.0025634765625
0.003662109375
-0.0010986328125
-0.0010986328125
-0.0010986328125
0.0018310546875
-0.000732421875
0.0032958984375
0.002197265625
-0.000732421875
0.0
0.0003662109375
0.0029296875
-0.0047607421875
0.00146484375
-0.005126953125
-0.005859375
0.0040283203125
-0.0003662109375
0.003662109375
0.00439453125
0.0010986328125
0.009521484375
-0.0054931640625
0.0032958984375
-0.0047607421875
0.0010986328125
-0.0010986328125
0.0208740234375
-0.010986328125
-0.143951416015625
0.165557861328125
-0.1131591796875
0.0626220703125
0.152374267578125
-0.200347900390625
0.11865234375
-0.0889892578125
0.01318359375
0.0040283203125
0.0010986328125
0.01171875
-0.000732421875
0.0135498046875
0.000732421875
0.005126953125
0.00439453125
-0.00146484375
-0.0018310546875
0.005126953125
-0.003662109375
0.012451171875
0.0010986328125
0.006591796875
0.005859375
-0.005859375
-0.00146484375
-0.012451171875
-0.0025634765625
-0.0113525390625
0.0032958984375
-0.005859375
0.0029296875
0.0
0.0054931640625
-0.003662109375
0.00439453125
-0.0084228515625
0.003662109375
-0.003662109375
0.00146484375
0.0018310546875
0.003662109375
0.0018310546875
0.00146484375
-0.000732421875
0.00146484375
-0.0025634765625
-0.000732421875
0.0003662109375
-0.0029296875
-0.00146484375
0.0047607421875
-0.0062255859375
0.0
-0.00439453125
0.000732421875
-0.00146484375
0.00146484375
-0.000732421875
-0.003662109375
0.003662109375
-0.0025634765625
0.002197265625
-0.0018310546875
-0.0003662109375
-0.0032958984375
0.002197265625
-0.0025634765625
-0.0010986328125
0.00146484375
-0.003662109375
-0.00146484375
0.0
-0.0029296875
0.0040283203125
-0.0054931640625
-0.0003662109375
-0.0010986328125
0.0
0.00146484375
0.006591796875
-0.0029296875
0.0054931640625
-0.0025634765625
0.0018310546875
0.0040283203125
-0.010986328125
-0.03515625
0.0611572265625
-0.170684814453125
0.135498046875
0.0106201171875
-0.0655517578125
0.178375244140625
-0.1571044921875
0.024169921875
-0.0098876953125
-0.0238037109375
0.0303955078125
-0.0142822265625
0.0238037109375
-0.00732421875
0.0216064453125
-0.0069580078125
0.01025390625
-0.0069580078125
0.009521484375
-0.0076904296875
0.016845703125
-0.0010986328125
0.01025390625
0.0040283203125
-0.000732421875
-0.0003662109375
-0.0098876953125
-0.0018310546875
-0.0098876953125
-0.0025634765625
-0.005126953125
0.0029296875
-0.0029296875
0.0047607421875
-0.0029296875
0.01025390625
-0.0076904296875
0.0069580078125
-0.005859375
0.003662109375
-0.0025634765625
0.0062255859375
0.0
0.002197265625
-0.0003662109375
0.0032958984375
-0.00146484375
0.0003662109375
-0.0010986328125
0.002197265625
0.0
0.00439453125
0.0
0.0069580078125
-0.0029296875
0.0069580078125
-0.00146484375
0.0010986328125
0.000732421875
0.0018310546875
-0.00146484375
0.0
-0.003662109375
-0.00146484375
0.00146484375
-0.000732421875
0.0003662109375
0.002197265625
-0.002197265625
0.003662109375
-0.0032958984375
-0.0018310546875
0.0
-0.0040283203125
0.0054931640625
-0.005859375
0.0010986328125
0.0
0.0018310546875
-0.000732421875
0.0069580078125
-0.0018310546875
0.003662109375
0.000732421875
-0.0025634765625
0.01171875
-0.009521484375
-0.0897216796875
0.13623046875
-0.1552734375
0.12158203125
0.0780029296875
-0.148681640625
0.156005859375
-0.14501953125
0.0216064453125
-0.0054931640625
-0.009521484375
0.0208740234375
-0.0062255859375
0.01611328125
-0.0087890625
0.0142822265625
-0.0084228515625
0.008056640625
-0.0025634765625
0.0087890625
-0.0106201171875
0.01611328125
-0.0106201171875
0.0146484375
-0.00439453125
0.000732421875
-0.0032958984375
-0.0087890625
-0.00732421875
-0.0069580078125
-0.003662109375
-0.0054931640625
0.00146484375
0.0
-0.002197265625
0.0032958984375
0.00146484375
0.0
0.000732421875
-0.0025634765625
0.002197265625
-0.0032958984375
-0.002197265625
0.0032958984375
-0.003662109375
0.005859375
-0.002197265625
0.002197265625
-0.00439453125
0.0010986328125
0.002197265625
-0.00146484375
0.0
0.0010986328125
-0.00146484375
0.0025634765625
0.0010986328125
-0.00146484375
0.002197265625
-0.0018310546875
-0.0010986328125
0.00146484375
0.0003662109375
0.000732421875
0.0018310546875
-0.000732421875
0.0018310546875
-0.0040283203125
0.0010986328125
-0.00439453125
-0.0054931640625
0.0010986328125
-0.0010986328125
0.00146484375
0.0040283203125
-0.00146484375
0.0069580078125
-0.003662109375
0.00439453125
-0.00146484375
0.00439453125
-0.0062255859375
0.019775390625
-0.01904296875
-0.11865234375
0.157867431640625
-0.1439208984375
0.110595703125
0.12158203125
-0.192657470703125
0.1541748046875
-0.136962890625
0.0201416015625
0.00146484375
0.0003662109375
0.012451171875
0.002197265625
0.01318359375
-0.000732421875
0.009521484375
0.00146484375
0.0032958984375
-0.000732421875
0.005859375
-0.0040283203125
0.0142822265625
-0.00439453125
0.0091552734375
0.0
0.0
0.0003662109375
-0.0091552734375
-0.003662109375
-0.01025390625
-0.000732421875
-0.0032958984375
0.0003662109375
-0.0025634765625
0.0032958984375
0.0003662109375
0.0025634765625
-0.00439453125
0.00146484375
-0.0062255859375
0.002197265625
-0.0054931640625
0.002197265625
0.0010986328125
-0.000732421875
0.0076904296875
-0.0032958984375
-0.002197265625
-0.0032958984375
0.0
-0.0040283203125
0.002197265625
0.000732421875
-0.0047607421875
-0.0018310546875
-0.000732421875
-0.0018310546875
0.0018310546875
0.0
-0.003662109375
0.0
-0.005859375
-0.0010986328125
-0.00146484375
-0.0040283203125
0.0003662109375
0.0
0.000732421875
-0.0003662109375
-0.002197265625
0.000732421875
-0.0032958984375
-0.003662109375
0.0010986328125
-0.00439453125
0.0040283203125
-0.000732421875
0.0010986328125
0.000732421875
-0.00146484375
0.0029296875
0.0032958984375
-0.00146484375
0.0025634765625
-0.00146484375
0.0003662109375
0.012451171875
-0.0135498046875
-0.11572265625
0.1549072265625
-0.147216796875
0.1190185546875
0.114990234375
-0.1798095703125
0.15673828125
-0.1402587890625
0.0201416015625
-0.00146484375
0.0
0.01318359375
-0.0025634765625
0.01318359375
-0.0018310546875
0.009521484375
-0.000732421875
0.005859375
-0.0047607421875
0.0120849609375
-0.000732421875
0.009521484375
0.0003662109375
0.003662109375
0.0029296875
-0.005859375
0.0003662109375
-0.015380859375
-0.0040283203125
-0.0087890625
-0.0047607421875
0.0047607421875
0.0003662109375
0.005126953125
0.0029296875
-0.0032958984375
0.00146484375
-0.0054931640625
0.0040283203125
-0.0054931640625
0.002197265625
0.0
0.003662109375
0.006591796875
0.00146484375
0.0054931640625
0.00146484375
0.003662109375
0.0003662109375
0.0
-0.0029296875
0.0
-0.00146484375
0.0025634765625
-0.0010986328125
0.0025634765625
0.0032958984375
0.0010986328125
-0.00146484375
-0.000732421875
-0.0032958984375
0.0029296875
-0.0025634765625
0.0040283203125
-0.00146484375
0.00146484375
-0.00146484375
0.00146484375
-0.0029296875
0.0003662109375
-0.0010986328125
0.0029296875
-0.0040283203125
0.0047607421875
-0.0040283203125
0.0010986328125
0.0003662109375
-0.0032958984375
0.0025634765625
0.003662109375
-0.0032958984375
0.0091552734375
-0.0047607421875
-0.0003662109375
0.005859375
-0.012451171875
-0.0618896484375
0.104736328125
-0.178741455078125
0.166259765625
0.0322265625
-0.09375
0.180572509765625
-0.17724609375
0.0245361328125
-0.021240234375
-0.0205078125
0.0201416015625
-0.0172119140625
0.0223388671875
-0.0135498046875
0.017578125
-0.0032958984375
0.0010986328125
-0.005859375
0.0018310546875
-0.0098876953125
0.017578125
-0.0087890625
0.0186767578125
0.0
0.003662109375
0.002197265625
-0.0120849609375
-0.003662109375
-0.010986328125
-0.00146484375
-0.000732421875
0.00439453125
-0.0010986328125
0.0054931640625
-0.0025634765625
0.00146484375
-0.0025634765625
0.006591796875
-0.00732421875
0.0062255859375
-0.006591796875
0.00439453125
-0.0018310546875
0.0025634765625
0.000732421875
0.0
0.000732421875
0.0018310546875
0.00146484375
-0.003662109375
0.005126953125
-0.0003662109375
0.003662109375
0.0025634765625
-0.0018310546875
0.0032958984375
-0.002197265625
0.0
0.0018310546875
-0.00146484375
0.002197265625
0.0018310546875
-0.00146484375
0.00146484375
-0.0029296875
0.0054931640625
-0.005126953125
0.00146484375
-0.0047607421875
-0.0003662109375
0.0010986328125
-0.00146484375
0.0010986328125
0.0010986328125
0.00146484375
0.0029296875
0.0040283203125
0.0010986328125
0.0010986328125
0.00146484375
-0.0003662109375
0.016845703125
-0.015380859375
-0.1278076171875
0.172882080078125
-0.1483154296875
0.125244140625
0.1307373046875
-0.191558837890625
0.144287109375
-0.1358642578125
0.0106201171875
-0.00146484375
-0.005859375
0.0172119140625
-0.0098876953125
0.0179443359375
-0.003662109375
0.0128173828125
-0.0040283203125
0.005859375
-0.0047607421875
0.005126953125
-0.0084228515625
0.010986328125
-0.00732421875
0.0084228515625
-0.0010986328125
-0.0010986328125
-0.0040283203125
-0.0087890625
-0.0047607421875
-0.0062255859375
-0.003662109375
0.0003662109375
0.0018310546875
0.0018310546875
0.002197265625
0.0003662109375
0.0047607421875
-0.003662109375
0.005859375
-0.0098876953125
0.0018310546875
-0.0010986328125
0.002197265625
0.0062255859375
0.0018310546875
0.000732421875
-0.0025634765625
0.0047607421875
-0.008056640625
-0.0135498046875
0.0062255859375
-0.0340576171875
0.056396484375
-0.0970458984375
0.120849609375
-0.235137939453125
0.0574951171875
-0.117950439453125
-0.091552734375
0.294830322265625
-0.1204833984375
0.320831298828125
-0.052001953125
0.052001953125
-0.0062255859375
-0.0076904296875
-0.009521484375
0.01171875
-0.02490234375
0.022705078125
-0.0355224609375
0.038818359375
-0.0428466796875
0.059722900390625
-0.0281982421875
0.038848876953125
0.006591796875
-0.0216064453125
0.032958984375
-0.074371337890625
0.0443115234375
-0.099639892578125
0.050537109375
-0.0919189453125
0.0406494140625
-0.0611572265625
0.022705078125
-0.0274658203125
0.0120849609375
-0.00732421875
0.008056640625
-0.003662109375
0.0106201171875
-0.0069580078125
0.0054931640625
-0.008056640625
0.0029296875
-0.000732421875
0.0
0.0054931640625
-0.000732421875
0.0047607421875
-0.000732421875
0.002197265625
-0.00146484375
0.0018310546875
0.000732421875
0.0010986328125
-0.0029296875
0.0029296875
-0.0010986328125
0.0062255859375
-0.0010986328125
0.0047607421875
-0.00146484375
0.0047607421875
-0.0029296875
0.0029296875
-0.0029296875
0.0018310546875
-0.002197265625
0.006591796875
-0.002197265625
0.0040283203125
-0.000732421875
0.0029296875
-0.0025634765625
0.005126953125
0.0003662109375
0.0040283203125
-0.0025634765625
0.003662109375
-0.0040283203125
0.0032958984375
-0.0040283203125
0.005859375
-0.0040283203125
0.005859375
-0.0018310546875
0.002197265625
0.0
0.0
-0.0003662109375
0.0029296875
-0.005126953125
0.0040283203125
-0.0003662109375
0.0003662109375
0.0003662109375
-0.0032958984375
-0.000732421875
0.0003662109375
0.0
0.002197265625
-0.0029296875
0.002197265625
0.0
0.002197265625
-0.002197265625
0.000732421875
-0.002197265625
0.0040283203125
-0.000732421875
-0.0010986328125
-0.0010986328125
0.000732421875
0.0
0.0032958984375
-0.002197265625
-0.0003662109375
-0.0040283203125
-0.00146484375
0.01318359375
-0.015380859375
-0.1212158203125
0.164093017578125
-0.139892578125
0.1124267578125
0.1168212890625
-0.173980712890625
0.141357421875
-0.1285400390625
0.01611328125
-0.0157470703125
-0.0098876953125
0.01025390625
-0.0069580078125
0.012451171875
-0.005126953125
0.0069580078125
-0.005126953125
0.0029296875
-0.003662109375
0.006591796875
-0.00732421875
0.0113525390625
-0.0047607421875
0.0098876953125
0.0
-0.002197265625
-0.00146484375
-0.01025390625
-0.00439453125
-0.0040283203125
-0.0040283203125
0.0003662109375
-0.0003662109375
0.006591796875
-0.0018310546875
0.00439453125
0.002197265625
-0.0003662109375
0.0025634765625
0.000732421875
0.00146484375
-0.0018310546875
-0.000732421875
0.0047607421875
-0.0032958984375
0.0069580078125
-0.0003662109375
0.0003662109375
-0.00146484375
-0.00146484375
0.000732421875
-0.0018310546875
0.0
-0.0003662109375
0.0025634765625
0.00146484375
0.00439453125
-0.0018310546875
0.00146484375
-0.00146484375
-0.0010986328125
0.0025634765625
-0.0003662109375
-0.0018310546875
0.0018310546875
-0.003662109375
0.0032958984375
-0.00439453125
0.005126953125
-0.006591796875
-0.0003662109375
0.000732421875
-0.0010986328125
0.0032958984375
0.00439453125
-0.0010986328125
0.0084228515625
-0.0018310546875
0.00439453125
-0.0018310546875
0.000732421875
-0.003662109375
0.0164794921875
-0.0150146484375
-0.097412109375
0.143218994140625
-0.1541748046875
0.13916015625
0.099609375
-0.162261962890625
0.1611328125
-0.1578369140625
0.021240234375
-0.009521484375
0.002197265625
0.0054931640625
0.0029296875
0.005859375
-0.0003662109375
0.0047607421875
-0.0029296875
0.0029296875
-0.0069580078125
0.0062255859375
-0.0062255859375
0.008056640625
-0.0029296875
0.005859375
-0.0010986328125
0.0
0.0003662109375
-0.008056640625
-0.0047607421875
-0.0084228515625
-0.000732421875
0.0003662109375
0.000732421875
0.0047607421875
0.000732421875
-0.0003662109375
0.0047607421875
-0.008056640625
0.005126953125
-0.009521484375
0.003662109375
0.0010986328125
-0.00146484375
0.0054931640625
0.000732421875
0.000732421875
0.0
0.000732421875
0.00146484375
-0.003662109375
0.0010986328125
-0.005126953125
0.0
0.002197265625
0.00146484375
0.00146484375
0.0
-0.0032958984375
0.002197265625
-0.002197265625
0.0003662109375
-0.0029296875
0.00146484375
-0.002197265625
-0.0003662109375
0.0010986328125
0.0
-0.0010986328125
0.0032958984375
-0.0062255859375
0.00146484375
-0.0076904296875
-0.0018310546875
0.002197265625
-0.0032958984375
0.0084228515625
-0.005859375
0.0087890625
-0.0040283203125
0.003662109375
0.0047607421875
0.0018310546875
0.0003662109375
0.005859375
-0.00146484375
0.00146484375
0.0106201171875
-0.015380859375
-0.0531005859375
0.082763671875
-0.169921875
0.1541748046875
0.0263671875
-0.0743408203125
0.17724609375
-0.1680908203125
0.03076171875
-0.0267333984375
-0.0113525390625
0.0157470703125
-0.0025634765625
0.01171875
-0.0032958984375
0.0128173828125
-0.003662109375
0.0062255859375
-0.005859375
0.0029296875
-0.0062255859375
0.010986328125
-0.005859375
0.0120849609375
-0.0003662109375
0.00439453125
0.000732421875
-0.0062255859375
0.0
-0.012451171875
0.0
-0.005859375
-0.0040283203125
0.0029296875
-0.0003662109375
0.0018310546875
0.0025634765625
-0.00439453125
0.0025634765625
-0.005859375
0.0018310546875
-0.00439453125
0.00146484375
-0.0010986328125
0.0
0.0032958984375
-0.002197265625
0.0025634765625
-0.0062255859375
0.0032958984375
-0.00732421875
0.0032958984375
0.0
0.000732421875
-0.0003662109375
0.000732421875
0.0
0.000732421875
0.0010986328125
0.0003662109375
0.002197265625
-0.0018310546875
0.0
0.0003662109375
-0.0040283203125
0.00146484375
-0.000732421875
-0.000732421875
0.0
-0.0040283203125
-0.0003662109375
-0.00146484375
-0.0018310546875
0.002197265625
-0.0029296875
0.0003662109375
0.0018310546875
0.0
0.005126953125
-0.00146484375
0.00146484375
0.002197265625
-0.0040283203125
0.003662109375
0.0069580078125
-0.0120849609375
-0.0479736328125
0.0794677734375
-0.178375244140625
0.1571044921875
0.0164794921875
-0.0758056640625
0.181671142578125
-0.182373046875
0.0322265625
-0.0296630859375
-0.0098876953125
0.0164794921875
0.0029296875
0.01318359375
0.002197265625
0.0113525390625
0.005126953125
0.0054931640625
0.0018310546875
0.0029296875
-0.000732421875
0.006591796875
-0.0010986328125
0.0120849609375
0.002197265625
0.006591796875
0.0062255859375
-0.009521484375
-0.00146484375
-0.0135498046875
-0.0010986328125
-0.005126953125
0.0018310546875
-0.002197265625
0.0029296875
-0.00146484375
0.0040283203125
-0.00439453125
0.0047607421875
-0.0069580078125
0.0069580078125
-0.00439453125
0.005859375
0.0003662109375
0.005859375
0.0010986328125
-0.000732421875
0.000732421875
-0.00146484375
-0.000732421875
0.0018310546875
-0.0047607421875
0.0032958984375
-0.0047607421875
0.002197265625
-0.0025634765625
0.00146484375
-0.0025634765625
0.0025634765625
-0.00146484375
0.0
-0.0018310546875
0.0040283203125
-0.00146484375
0.0
0.0
-0.0032958984375
0.0
0.0003662109375
-0.0003662109375
-0.0025634765625
0.0025634765625
-0.0069580078125
0.005859375
-0.0029296875
0.0
0.005126953125
-0.0025634765625
-0.0025634765625
0.0062255859375
-0.0025634765625
0.0029296875
-0.000732421875
-0.0018310546875
0.0098876953125
-0.000732421875
-0.1519775390625
0.185699462890625
-0.107666015625
0.078369140625
0.151611328125
-0.198150634765625
0.0977783203125
-0.0904541015625
0.0047607421875
0.000732421875
-0.0054931640625
0.0087890625
-0.0069580078125
0.0150146484375
-0.005126953125
0.0091552734375
-0.0010986328125
0.0010986328125
-0.005126953125
0.0106201171875
-0.0091552734375
0.0150146484375
-0.002197265625
0.006591796875
-0.0018310546875
-0.00439453125
0.0003662109375
-0.0091552734375
-0.0054931640625
-0.0032958984375
-0.00439453125
0.0010986328125
-0.0003662109375
0.003662109375
0.0010986328125
0.000732421875
0.0069580078125
-0.005859375
0.002197265625
-0.0040283203125
-0.0003662109375
0.0032958984375
-0.002197265625
0.003662109375
0.0003662109375
0.0029296875
-0.0010986328125
0.0029296875
-0.0018310546875
0.0003662109375
0.0
0.0
-0.0010986328125
0.0
0.0032958984375
-0.0003662109375
-0.0018310546875
0.0003662109375
-0.000732421875
0.0003662109375
-0.0018310546875
0.0
-0.0029296875
0.0003662109375
-0.0010986328125
0.0018310546875
-0.00146484375
0.0010986328125
0.0032958984375
-0.000732421875
-0.003662109375
0.0029296875
-0.0047607421875
0.002197265625
-0.000732421875
-0.00146484375
0.000732421875
0.002197265625
0.0003662109375
0.002197265625
-0.0003662109375
0.00146484375
-0.00146484375
0.002197265625
0.013916015625
-0.00732421875
-0.145416259765625
0.184600830078125
-0.1102294921875
0.0849609375
0.150177001953125
-0.200714111328125
0.103271484375
-0.0966796875
0.005126953125
0.0029296875
-0.0087890625
0.01904296875
-0.009521484375
0.0201416015625
-0.00439453125
0.01318359375
-0.0054931640625
0.0069580078125
-0.00732421875
0.012451171875
-0.0098876953125
0.015380859375
-0.0010986328125
0.003662109375
0.00146484375
-0.0076904296875
-0.00439453125
-0.013916015625
-0.00439453125
-0.0084228515625
0.000732421875
-0.00146484375
0.00439453125
0.000732421875
0.0018310546875
-0.00439453125
0.0047607421875
-0.005859375
0.00439453125
-0.00439453125
0.003662109375
-0.0029296875
0.0018310546875
-0.0003662109375
-0.000732421875
-0.0003662109375
-0.0003662109375
0.0018310546875
0.000732421875
-0.0018310546875
0.0032958984375
-0.0040283203125
0.0010986328125
-0.0029296875
0.0025634765625
-0.00146484375
-0.0018310546875
0.000732421875
0.0
0.0003662109375
0.0010986328125
0.0010986328125
-0.005859375
0.0032958984375
0.0
0.0025634765625
0.0029296875
-0.00439453125
0.0032958984375
-0.0010986328125
-0.0025634765625
0.0032958984375
-0.0040283203125
0.0003662109375
0.0
-0.0018310546875
0.0003662109375
-0.00146484375
0.00146484375
0.0040283203125
0.000732421875
0.0032958984375
0.0040283203125
-0.0040283203125
0.0150146484375
-0.0054931640625
-0.152008056640625
0.173980712890625
-0.0816650390625
0.0439453125
0.157867431640625
-0.195953369140625
0.079833984375
-0.0655517578125
0.006591796875
0.0025634765625
0.0010986328125
0.0113525390625
-0.000732421875
0.0091552734375
-0.0010986328125
0.003662109375
-0.00439453125
0.0010986328125
-0.0025634765625
0.0047607421875
-0.0029296875
0.0084228515625
-0.0025634765625
0.005859375
0.0040283203125
-0.0062255859375
0.0018310546875
-0.016845703125
-0.000732421875
-0.008056640625
0.0025634765625
-0.003662109375
0.008056640625
-0.00439453125
0.0054931640625
-0.0040283203125
0.0069580078125
-0.008056640625
0.009521484375
-0.00732421875
0.0047607421875
-0.0029296875
0.0040283203125
0.0003662109375
0.0018310546875
0.000732421875
0.0029296875
-0.0018310546875
0.000732421875
-0.00439453125
0.0018310546875
-0.0025634765625
0.00146484375
0.0
-0.000732421875
-0.0018310546875
0.00146484375
-0.0029296875
-0.002197265625
0.0003662109375
0.002197265625
0.000732421875
-0.0003662109375
-0.0003662109375
-0.0025634765625
0.002197265625
0.0003662109375
0.0003662109375
0.000732421875
-0.0040283203125
0.002197265625
-0.0040283203125
-0.0029296875
0.0040283203125
-0.005859375
0.005859375
-0.0040283203125
0.0003662109375
0.003662109375
0.0010986328125
-0.000732421875
0.003662109375
-0.0040283203125
0.0029296875
0.0032958984375
-0.0084228515625
-0.005126953125
0.0062255859375
-0.157470703125
0.148681640625
-0.03076171875
0.0113525390625
0.1673583984375
-0.161865234375
0.038818359375
-0.0369873046875
-0.0062255859375
0.00439453125
-0.00146484375
0.0106201171875
-0.0054931640625
0.015380859375
-0.0047607421875
0.00732421875
-0.005126953125
0.00439453125
-0.005859375
0.01171875
-0.0062255859375
0.010986328125
0.000732421875
0.0025634765625
0.000732421875
-0.0087890625
-0.0025634765625
-0.010986328125
-0.0040283203125
-0.00146484375
-0.0032958984375
0.0040283203125
0.0025634765625
-0.0003662109375
0.0054931640625
-0.0069580078125
0.0062255859375
-0.005859375
0.0029296875
-0.00439453125
0.003662109375
0.0018310546875
0.00146484375
0.003662109375
0.0
0.0010986328125
0.0018310546875
0.0
-0.0010986328125
-0.002197265625
-0.000732421875
0.00146484375
-0.0018310546875
0.002197265625
0.0029296875
-0.00146484375
0.0029296875
-0.0018310546875
-0.0010986328125
0.0040283203125
-0.0054931640625
0.0091552734375
-0.0018310546875
0.0032958984375
0.002197265625
-0.000732421875
-0.0032958984375
0.000732421875
0.0010986328125
-0.0018310546875
0.0003662109375
-0.00146484375
-0.0025634765625
0.005126953125
-0.00439453125
0.002197265625
-0.0010986328125
-0.00146484375
0.0
0.0047607421875
-0.003662109375
0.0047607421875
-0.00146484375
0.0025634765625
0.0003662109375
-0.00439453125
0.0120849609375
-0.00439453125
-0.158935546875
0.163726806640625
-0.05419921875
0.025634765625
0.161865234375
-0.177276611328125
0.0457763671875
-0.0413818359375
-0.0040283203125
0.005126953125
-0.006591796875
0.0146484375
-0.0029296875
0.0146484375
-0.003662109375
0.0069580078125
-0.00439453125
0.00439453125
-0.0069580078125
0.0091552734375
-0.00732421875
0.0135498046875
-0.003662109375
0.0084228515625
0.0
-0.0076904296875
-0.00146484375
-0.01171875
-0.00732421875
-0.002197265625
-0.0018310546875
0.005859375
0.0018310546875
0.00146484375
0.0032958984375
-0.005126953125
0.00146484375
-0.003662109375
0.0032958984375
-0.00439453125
0.0040283203125
0.000732421875
-0.00439453125
0.0054931640625
0.0
0.003662109375
-0.0003662109375
0.00146484375
0.0003662109375
-0.0003662109375
0.0
0.00146484375
-0.0029296875
0.0018310546875
0.0
0.0010986328125
0.0003662109375
-0.00146484375
-0.000732421875
0.000732421875
-0.0032958984375
0.0029296875
0.0025634765625
0.0003662109375
0.0018310546875
0.0
0.0040283203125
-0.0047607421875
0.00146484375
-0.00732421875
-0.003662109375
0.0010986328125
-0.00146484375
0.005126953125
0.0003662109375
-0.0003662109375
0.005126953125
-0.0003662109375
0.0029296875
-0.0018310546875
0.002197265625
-0.002197265625
0.010986328125
-0.01171875
-0.06591796875
0.1131591796875
-0.158599853515625
0.1461181640625
0.049072265625
-0.112060546875
0.171417236328125
-0.1680908203125
0.03076171875
-0.025634765625
-0.0040283203125
0.01318359375
0.0
0.009521484375
-0.0010986328125
0.01025390625
0.000732421875
0.0047607421875
-0.0010986328125
0.0018310546875
-0.002197265625
0.0091552734375
-0.00146484375
0.0076904296875
0.00439453125
-0.002197265625
0.0
-0.0084228515625
-0.000732421875
-0.0084228515625
0.0029296875
-0.0032958984375
0.003662109375
-0.0003662109375
0.0029296875
-0.00146484375
0.0062255859375
-0.006591796875
0.0091552734375
-0.0087890625
0.006591796875
-0.0069580078125
0.0087890625
-0.0047607421875
0.0018310546875
-0.000732421875
-0.0010986328125
0.0
0.0010986328125
-0.0018310546875
0.002197265625
-0.000732421875
0.000732421875
0.0010986328125
-0.0047607421875
0.002197265625
0.0029296875
-0.0032958984375
0.0025634765625
-0.0025634765625
-0.0018310546875
0.0018310546875
-0.002197265625
0.0003662109375
0.0003662109375
-0.0010986328125
0.0003662109375
0.0
-0.00439453125
0.003662109375
0.0
-0.0003662109375
-0.00146484375
-0.003662109375
0.0
0.0003662109375
-0.0003662109375
0.002197265625
-0.0025634765625
0.0
0.000732421875
-0.002197265625
-0.0003662109375
0.0025634765625
-0.002197265625
0.0054931640625
-0.0025634765625
0.0
0.008056640625
-0.01171875
-0.043212890625
0.07470703125
-0.1666259765625
0.15087890625
0.0186767578125
-0.0633544921875
0.175048828125
-0.1658935546875
0.0311279296875
-0.0311279296875
-0.0128173828125
0.01171875
-0.00439453125
0.013916015625
-0.00439453125
0.01171875
-0.0029296875
0.00732421875
-0.0062255859375
0.00732421875
-0.006591796875
0.0106201171875
-0.00146484375
0.0091552734375
0.00146484375
-0.0003662109375
0.0
-0.0076904296875
-0.00439453125
-0.0091552734375
-0.0018310546875
-0.0032958984375
-0.0018310546875
0.0025634765625
0.0032958984375
-0.000732421875
0.0032958984375
-0.0047607421875
0.0018310546875
-0.005126953125
0.00439453125
-0.0018310546875
0.0010986328125
0.0032958984375
0.00146484375
0.0032958984375
0.0003662109375
-0.0018310546875
0.002197265625
-0.003662109375
0.0003662109375
-0.000732421875
0.0018310546875
0.0
0.0029296875
-0.0018310546875
0.0018310546875
-0.0029296875
0.0018310546875
-0.00146484375
-0.0025634765625
0.0010986328125
-0.0010986328125
0.0018310546875
-0.00146484375
-0.0010986328125
0.0003662109375
-0.0010986328125
-0.0018310546875
0.000732421875
-0.0029296875
0.000732421875
0.0003662109375
-0.000732421875
-0.00439453125
-0.0029296875
-0.0032958984375
0.0018310546875
-0.0025634765625
0.00146484375
-0.000732421875
-0.0003662109375
0.0
0.0047607421875
0.00146484375
0.00146484375
-0.000732421875
-0.0032958984375
0.0146484375
-0.0146484375
-0.128173828125
0.170654296875
-0.1446533203125
0.12158203125
0.125244140625
-0.1798095703125
0.1373291015625
-0.129638671875
0.010986328125
-0.005126953125
-0.0069580078125
0.01171875
-0.0018310546875
0.0128173828125
-0.002197265625
0.01171875
-0.0062255859375
0.0062255859375
-0.0040283203125
0.0091552734375
-0.005859375
0.0128173828125
-0.0029296875
0.0062255859375
0.0
-0.006591796875
-0.0003662109375
-0.0106201171875
-0.0032958984375
-0.005126953125
-0.0010986328125
-0.0003662109375
0.0029296875
-0.0010986328125
0.003662109375
-0.003662109375
0.0106201171875
-0.010986328125
0.0084228515625
-0.015380859375
0.0062255859375
-0.0062255859375
0.0029296875
0.003662109375
0.0018310546875
0.002197265625
0.0076904296875
-0.00439453125
0.0084228515625
-0.0029296875
0.0076904296875
0.000732421875
0.003662109375
0.000732421875
0.005859375
0.000732421875
0.00439453125
-0.0003662109375
0.002197265625
0.0029296875
0.002197265625
0.0025634765625
-0.00146484375
0.00439453125
-0.002197265625
0.0040283203125
-0.0032958984375
-0.0054931640625
-0.0018310546875
-0.0069580078125
-0.0054931640625
0.0025634765625
-0.0062255859375
0.01171875
-0.0032958984375
0.0069580078125
-0.0003662109375
0.005859375
-0.005859375
0.0120849609375
-0.0113525390625
0.009521484375
-0.00439453125
-0.0003662109375
-0.0029296875
0.0025634765625
-0.1607666015625
0.1600341796875
-0.0531005859375
0.0289306640625
0.158203125
-0.1702880859375
0.0439453125
-0.043212890625
-0.0098876953125
0.006591796875
-0.0091552734375
0.019775390625
-0.0091552734375
0.0179443359375
-0.0029296875
0.0047607421875
-0.0087890625
0.008056640625
-0.0054931640625
0.010986328125
-0.0018310546875
0.0062255859375
-0.0032958984375
0.0054931640625
0.0003662109375
-0.005126953125
-0.0029296875
-0.01171875
-0.0018310546875
-0.00439453125
0.0003662109375
0.002197265625
0.00146484375
0.005126953125
0.0
0.0
0.002197265625
-0.005859375
0.00732421875
-0.0087890625
0.0029296875
-0.000732421875
-0.0003662109375
0.0032958984375
-0.000732421875
-0.0003662109375
0.0003662109375
0.0003662109375
-0.0032958984375
0.0010986328125
-0.0018310546875
0.0
-0.0010986328125
-0.0010986328125
-0.0010986328125
0.000732421875
0.0
0.0029296875
-0.003662109375
0.00439453125
-0.0025634765625
0.0025634765625
-0.0010986328125
0.0
0.0010986328125
-0.0018310546875
0.0025634765625
-0.0003662109375
0.0010986328125
0.0010986328125
