-0.749725341796875
-0.749725341796875
0.749359130859375
0.71197509765625
0.0267333984375
0.021240234375
-0.141021728515625
-0.072509765625
0.40106201171875
0.665863037109375
-1.0
-1.0
0.936492919921875
0.74749755859375
-0.310577392578125
-0.32672119140625
0.135162353515625
0.015380859375
0.031494140625
0.0179443359375
0.0
0.034454345703125
0.022735595703125
0.141754150390625
-0.57537841796875
-0.51348876953125
0.872406005859375
1.0
-0.924072265625
-0.970947265625
0.57244873046875
0.30694580078125
0.0
0.0
0.0003662109375
-0.008453369140625
0.030029296875
0.0208740234375
-0.105499267578125
-0.0391845703125
0.32635498046875
0.58526611328125
-1.0
-1.0
0.967620849609375
0.810150146484375
-0.37506103515625
-0.39630126953125
0.175445556640625
0.0347900390625
0.0267333984375
0.01318359375
0.0
0.030426025390625
0.010284423828125
0.104400634765625
-0.48492431640625
-0.41314697265625
0.79803466796875
0.978240966796875
-1.0
-1.0
0.660736083984375
0.37286376953125
-0.0084228515625
-0.0311279296875
0.003662109375
-0.013214111328125
0.035186767578125
0.0238037109375
-0.054229736328125
0.0054931640625
0.22265625
0.48052978515625
-0.917083740234375
-0.882293701171875
0.962890625
0.873870849609375
-0.52813720703125
-0.57867431640625
0.278717041015625
0.076171875
0.0091552734375
0.0
0.0
0.023101806640625
0.0098876953125
0.061553955078125
-0.247589111328125
-0.205108642578125
0.620086669921875
0.913421630859375
-1.0
-1.0
0.80718994140625
0.49114990234375
-0.130401611328125
-0.164093017578125
0.053131103515625
-0.014678955078125
0.038116455078125
0.02490234375
-0.0142822265625
0.036285400390625
0.0966796875
0.42156982421875
-0.768768310546875
-0.664764404296875
0.952606201171875
0.889617919921875
-0.716400146484375
-0.822967529296875
0.41204833984375
0.1234130859375
0.0
0.0
0.0
0.014312744140625
0.0234375
0.042144775390625
-0.228179931640625
-0.182769775390625
0.57904052734375
0.891815185546875
-1.0
-1.0
0.8702392578125
0.53216552734375
-0.093780517578125
-0.118682861328125
0.0267333984375
-0.014312744140625
0.037017822265625
0.02490234375
-0.028564453125
0.019073486328125
0.1666259765625
0.37432861328125
-0.8804931640625
-0.8702392578125
0.995849609375
0.944915771484375
-0.59039306640625
-0.60064697265625
0.299957275390625
0.1131591796875
0.006591796875
0.0
0.0
0.015411376953125
0.013916015625
0.048370361328125
-0.305084228515625
-0.264068603515625
0.644256591796875
0.891082763671875
-1.0
-1.0
0.79840087890625
0.524810791015625
-0.128936767578125
-0.121612548828125
0.036285400390625
-0.01318359375
0.038116455078125
0.02490234375
-0.0164794921875
0.025299072265625
0.1318359375
0.33587646484375
-0.817840576171875
-0.835052490234375
0.995086669921875
0.968353271484375
-0.665130615234375
-0.641326904296875
0.33441162109375
0.1292724609375
0.0
0.0
-0.0003662109375
0.012481689453125
0.0205078125
0.036651611328125
-0.258575439453125
-0.231475830078125
0.600677490234375
0.866912841796875
-1.0
-1.0
0.82806396484375
0.558135986328125
-0.162628173828125
-0.136260986328125
0.050201416015625
-0.0113525390625
0.038116455078125
0.0252685546875
-0.0113525390625
0.031524658203125
0.1043701171875
0.29705810546875
-0.787445068359375
-0.786346435546875
0.989227294921875
0.986297607421875
-0.700653076171875
-0.695526123046875
0.36773681640625
0.151611328125
0.0
0.0
0.0
0.008819580078125
0.0205078125
0.030029296875
-0.243560791015625
-0.201080322265625
0.55413818359375
0.828094482421875
-1.0
-1.0
0.861419677734375
0.60064697265625
-0.184967041015625
-0.179840087890625
0.063385009765625
-0.0091552734375
0.038116455078125
0.02490234375
-0.006591796875
0.034820556640625
0.08056640625
0.247955322265625
-0.750091552734375
-0.751922607421875
0.974578857421875
1.0
-0.742767333984375
-0.732513427734375
0.40618896484375
0.180908203125
0.0
0.0
0.0
0.002960205078125
0.0234375
0.0234375
-0.189361572265625
-0.137725830078125
0.46478271484375
0.740203857421875
-1.0
-1.0
0.917083740234375
0.68487548828125
-0.255645751953125
-0.244293212890625
0.094146728515625
0.0010986328125
0.035919189453125
0.0234375
0.0
0.036285400390625
0.04833984375
0.188262939453125
-0.665863037109375
-0.655975341796875
0.926239013671875
1.0
-0.833587646484375
-0.829925537109375
0.48895263671875
0.2340087890625
0.0
0.0
-0.0003662109375
0.002960205078125
0.0238037109375
0.029296875
-0.190093994140625
-0.166290283203125
0.49554443359375
0.832122802734375
-1.0
-1.0
0.898406982421875
0.59771728515625
-0.235137939453125
-0.196685791015625
0.081695556640625
-0.0087890625
0.036651611328125
0.0238037109375
0.0
0.039581298828125
0.06884765625
0.282379150390625
-0.705047607421875
-0.686737060546875
0.942718505859375
0.984130859375
-0.794403076171875
-0.803192138671875
0.45123291015625
0.17138671875
0.0
0.0
0.0
0.004791259765625
0.02490234375
0.02783203125
-0.173980712890625
-0.111358642578125
0.46441650390625
0.751922607421875
-1.0
-1.0
0.915618896484375
0.67205810546875
-0.249053955078125
-0.255645751953125
0.094512939453125
-0.002197265625
0.035919189453125
0.021240234375
0.0
0.038482666015625
0.057861328125
0.217559814453125
-0.669525146484375
-0.624114990234375
0.918914794921875
0.989990234375
-0.829925537109375
-0.863983154296875
0.48675537109375
0.23583984375
0.0
0.0
-0.0003662109375
-0.0018310546875
0.0274658203125
0.0234375
-0.134429931640625
-0.062255859375
0.41278076171875
0.684539794921875
-1.0
-1.0
0.928436279296875
0.73028564453125
-0.310943603515625
-0.33477783203125
0.130401611328125
0.01171875
0.031494140625
0.0179443359375
0.0003662109375
0.035552978515625
0.035919189453125
0.152740478515625
-0.56256103515625
-0.49920654296875
0.870208740234375
0.992523193359375
-0.9368896484375
-0.50982666015625
0.56182861328125
0.33367919921875
0.51055908203125
1.0
-0.288604736328125
0.000732421875
0.708709716796875
0.0003662109375
-0.9896240234375
-0.000732421875
-0.124542236328125
0.0
0.944183349609375
0.000732421875
0.052734375
0.0
-0.1614990234375
0.0
-0.0809326171875
0.0
-0.9976806640625
-1.0
0.43292236328125
-0.0164794921875
0.050567626953125
0.119781494140625
-0.57025146484375
-0.55743408203125
0.883758544921875
0.998382568359375
-0.92919921875
-0.9237060546875
0.55889892578125
0.34246826171875
0.0
0.0
0.0
-0.010284423828125
0.029296875
0.01904296875
-0.117584228515625
-0.0706787109375
0.38385009765625
0.58197021484375
-1.0
-1.0
0.951141357421875
0.819305419921875
-0.33184814453125
-0.306182861328125
0.135162353515625
0.030029296875
0.0322265625
0.0205078125
-0.0003662109375
0.033721923828125
0.041046142578125
0.152374267578125
-0.57281494140625
-0.56072998046875
0.891448974609375
0.992156982421875
-0.92626953125
-0.92333984375
0.53472900390625
0.290435791015625
0.035919189453125
0.0234375
-0.0296630859375
0.032257080078125
0.183837890625
0.46331787109375
-1.0
-0.799530029296875
0.9786376953125
0.850799560546875
-0.45452880859375
-0.688201904296875
0.300689697265625
0.1201171875
0.0208740234375
0.0069580078125
0.0003662109375
0.020538330078125
0.0087890625
0.0164794921875
0.0
0.0032958984375
0.033355712890625
0.120147705078125
-0.59075927734375
-0.606903076171875
0.883392333984375
0.977874755859375
-0.90869140625
-0.874603271484375
0.55303955078125
0.34613037109375
0.0
0.0
0.0
-0.009918212890625
0.028564453125
0.017578125
-0.129669189453125
-0.1051025390625
0.41021728515625
0.616790771484375
-1.0
-1.0
0.930267333984375
0.78558349609375
-0.32818603515625
-0.294830322265625
0.130401611328125
0.0303955078125
0.0325927734375
0.0234375
0.0
0.031524658203125
0.031890869140625
0.111358642578125
-0.59698486328125
-0.614227294921875
0.919281005859375
1.0
-0.9024658203125
-0.867645263671875
0.51568603515625
0.31134033203125
0.0
0.0
0.0
-0.008819580078125
0.0281982421875
0.017578125
-0.122344970703125
-0.08203125
-0.0281982421875
0.005859375
-0.976776123046875
-0.00732421875
0.54571533203125
0.730682373046875
0.12890625
-1.0
0.145782470703125
0.68707275390625
0.61383056640625
-0.319732666015625
-0.691497802734375
0.008056640625
0.0069580078125
0.0146484375
0.0333251953125
0.033355712890625
-1.0
0.106231689453125
0.621551513671875
-0.33953857421875
0.466217041015625
0.883026123046875
-0.0069580078125
-1.0
0.89697265625
0.448638916015625
-0.61273193359375
1.0
-0.0274658203125
0.045074462890625
-0.035186767578125
0.0
0.027099609375
0.0
1.0
0.000732421875
-0.0062255859375
0.0
0.039215087890625
0.0
0.0
0.0003662109375
-0.0003662109375
0.0
0.0003662109375
-0.0003662109375
0.0003662109375
0.0
-0.0029296875
0.0
0.0
0.0
0.002197265625
0.0
-0.063751220703125
0.0
-0.148345947265625
0.0
-0.1490478515625
0.0
0.0860595703125
0.0
0.0076904296875
0.0
-0.0853271484375
0.0
-0.142120361328125
0.0
-0.184600830078125
0.0
-0.15673828125
0.0
-0.2193603515625
0.0
-0.04541015625
0.0
-0.124176025390625
-0.0003662109375
-0.153839111328125
-0.0003662109375
-0.230010986328125
0.0
-0.1556396484375
0.0
-0.09228515625
0.0
-0.148712158203125
0.0
-0.03369140625
0.0
-0.003662109375
0.0
0.125244140625
0.0
0.158966064453125
0.0
0.162261962890625
0.0
0.02197265625
-0.0003662109375
0.0032958984375
0.0
0.0479736328125
-0.0003662109375
-0.1318359375
-0.076568603515625
0.413482666015625
-0.073638916015625
0.052001953125
-0.24169921875
-0.0263671875
-0.1065673828125
0.1695556640625
-0.072906494140625
-0.1556396484375
-0.05859375
0.015380859375
0.04248046875
-0.37103271484375
0.006591796875
0.310943603515625
0.171051025390625
-0.292633056640625
-0.092315673828125
0.209869384765625
0.168487548828125
0.35308837890625
-0.0809326171875
-1.0
0.0018310546875
0.78009033203125
0.0186767578125
-0.37652587890625
-0.056793212890625
0.087554931640625
0.126373291015625
0.027099609375
-0.345001220703125
0.0
0.1951904296875
0.028961181640625
-0.288604736328125
-0.38604736328125
0.0245361328125
0.83355712890625
-0.0216064453125
-1.0
-0.132568359375
0.609832763671875
0.192657470703125
-0.082061767578125
-0.239532470703125
0.0
0.2032470703125
0.046905517578125
-0.1622314453125
-0.199981689453125
-0.0025634765625
0.74639892578125
-0.029327392578125
-0.816009521484375
-0.1146240234375
0.64935302734375
0.013214111328125
-0.284210205078125
-0.097412109375
0.0087890625
0.0208740234375
-0.193389892578125
-0.099273681640625
-0.1131591796875
0.00732421875
0.52520751953125
-0.05419921875
-0.52960205078125
-0.051300048828125
0.50030517578125
0.0120849609375
-0.207672119140625
-0.0472412109375
0.1094970703125
-0.0230712890625
-0.287872314453125
-0.0552978515625
0.184967041015625
-0.0054931640625
0.108795166015625
-0.0582275390625
-0.351959228515625
-0.029296875
0.449005126953125
-0.0179443359375
-0.275787353515625
-0.0267333984375
0.121612548828125
-0.00146484375
-0.109893798828125
-0.0216064453125
0.218658447265625
0.0029296875
-0.232177734375
-0.038818359375
-0.098175048828125
-0.00146484375
0.325958251953125
-0.0223388671875
-0.367706298828125
-0.0234375
0.247589111328125
-0.01171875
-0.0736083984375
-0.0274658203125
0.1171875
-0.01171875
-0.231842041015625
-0.034423828125
0.181304931640625
0.0062255859375
0.04541015625
-0.030059814453125
-0.323394775390625
-0.0069580078125
0.366241455078125
-0.005859375
-0.228912353515625
-0.015380859375
0.107696533203125
0.0047607421875
-0.087921142578125
-0.013214111328125
0.219757080078125
0.020172119140625
-0.22412109375
-0.015380859375
-0.081329345703125
0.0113525390625
0.308380126953125
-0.00439453125
-0.386749267578125
-0.0032958984375
0.231475830078125
0.0054931640625
-0.0809326171875
-0.034820556640625
0.106201171875
0.029327392578125
-0.216827392578125
0.01025390625
0.209136962890625
-0.0003662109375
0.05712890625
-0.0164794921875
-0.33111572265625
0.0040283203125
0.360382080078125
0.003662109375
-0.2493896484375
-0.012847900390625
0.098175048828125
0.00146484375
-0.095611572265625
-0.0142822265625
0.2197265625
0.0106201171875
-0.191162109375
-0.01904296875
-0.053466796875
0.017974853515625
0.325958251953125
-0.003662109375
-0.362579345703125
-0.003692626953125
0.243194580078125
0.0084228515625
-0.0963134765625
-0.009521484375
0.0780029296875
0.0142822265625
-0.231842041015625
0.0003662109375
0.187164306640625
0.030792236328125
0.052734375
-0.006591796875
-0.31719970703125
-0.0106201171875
0.358551025390625
-0.016845703125
-0.217529296875
-0.014312744140625
0.117584228515625
0.0054931640625
-0.093780517578125
-0.0032958984375
0.19482421875
0.0150146484375
-0.2010498046875
-0.015380859375
-0.0743408203125
0.023101806640625
0.299957275390625
0.00732421875
-0.351593017578125
0.0098876953125
0.230712890625
0.01904296875
-0.0457763671875
-0.0010986328125
0.116851806640625
0.013580322265625
-0.213165283203125
-0.030059814453125
0.1475830078125
0.0596923828125
0.041748046875
0.01171875
-0.291900634765625
-0.029296875
0.342803955078125
0.006622314453125
-0.2061767578125
-0.00439453125
0.097076416015625
0.010986328125
-0.086456298828125
-0.008056640625
0.186767578125
0.015380859375
-0.18603515625
-0.016845703125
-0.08203125
0.0164794921875
0.276519775390625
0.00146484375
-0.333282470703125
-0.000732421875
0.2178955078125
0.01025390625
-0.0791015625
-0.0047607421875
0.098907470703125
0.0128173828125
-0.187530517578125
-0.006591796875
0.15966796875
0.024169921875
0.0472412109375
-0.0062255859375
-0.309478759765625
0.0098876953125
0.308380126953125
0.008056640625
-0.205078125
-0.0040283203125
0.085693359375
0.0120849609375
-0.082061767578125
-0.0040283203125
0.200714111328125
0.010986328125
-0.1644287109375
-0.017578125
-0.07177734375
0.0205078125
0.265899658203125
0.005859375
-0.327056884765625
-0.01171875
0.19482421875
-0.009521484375
-0.080596923828125
-0.0135498046875
0.093780517578125
0.005859375
-0.1798095703125
-0.03515625
0.1644287109375
0.0545654296875
0.062255859375
0.0223388671875
-0.276153564453125
-0.0146484375
0.301788330078125
0.0120849609375
-0.212066650390625
-0.0040283203125
0.0567626953125
0.0040283203125
-0.09228515625
-0.0194091796875
0.190460205078125
0.0032958984375
-0.1644287109375
-0.0201416015625
-0.0472412109375
0.0113525390625
0.289703369140625
-0.002197265625
-0.302520751953125
-0.0032958984375
0.2010498046875
0.0054931640625
-0.078399658203125
-0.01171875
0.073638916015625
-0.0003662109375
-0.191162109375
-0.0194091796875
0.1845703125
0.006591796875
0.05712890625
-0.0234375
-0.263702392578125
-0.0003662109375
0.341339111328125
0.00439453125
-0.1904296875
-0.0040283203125
0.0794677734375
0.00732421875
-0.078399658203125
-0.0113525390625
0.191925048828125
0.0069580078125
-0.182373046875
-0.0205078125
-0.044677734375
0.0091552734375
0.287139892578125
-0.0062255859375
-0.308013916015625
-0.0032958984375
0.226348876953125
0.0084228515625
-0.069580078125
-0.0054931640625
0.072509765625
0.01025390625
-0.193023681640625
-0.008056640625
0.1827392578125
0.0150146484375
0.0289306640625
-0.016845703125
-0.280548095703125
0.00146484375
0.339141845703125
-0.012481689453125
-0.2105712890625
0.017578125
0.083160400390625
0.024200439453125
-0.057891845703125
-0.028564453125
0.1959228515625
0.013916015625
-0.1893310546875
-0.0120849609375
-0.03662109375
0.0142822265625
0.271759033203125
-0.0069580078125
-0.333648681640625
-0.0047607421875
0.219390869140625
0.008056640625
-0.0787353515625
-0.000732421875
0.071044921875
0.0142822265625
-0.172882080078125
-0.0069580078125
0.185302734375
0.01904296875
0.0230712890625
-0.0106201171875
-0.273956298828125
0.005859375
0.319000244140625
0.0029296875
-0.230712890625
-0.0062255859375
0.073272705078125
0.0084228515625
-0.071807861328125
-0.0047607421875
0.1849365234375
0.0157470703125
-0.18310546875
-0.0120849609375
-0.024169921875
0.0172119140625
0.269561767578125
-0.0091552734375
-0.328887939453125
-0.0362548828125
0.2197265625
-0.031524658203125
-0.1036376953125
-0.02783203125
0.060821533203125
-0.0113525390625
-0.173614501953125
-0.020172119140625
0.19189453125
0.016510009765625
0.0238037109375
-0.012451171875
-0.268096923828125
0.005859375
0.321197509765625
0.005859375
-0.24462890625
0.0
0.07177734375
-0.000732421875
-0.091949462890625
0.01025390625
0.174346923828125
0.034454345703125
-0.17578125
-0.023834228515625
-0.0289306640625
0.008056640625
0.273590087890625
-0.0245361328125
-0.306549072265625
-0.024200439453125
0.226318359375
0.00439453125
-0.094482421875
-0.0128173828125
0.074371337890625
-0.0062255859375
-0.180206298828125
-0.0252685546875
0.1732177734375
0.00439453125
0.0296630859375
-0.0205078125
-0.254547119140625
0.000732421875
0.324859619140625
0.005126953125
-0.2127685546875
-0.0018310546875
0.08642578125
0.0120849609375
-0.077667236328125
-0.00732421875
0.176910400390625
0.0076904296875
-0.1805419921875
-0.0186767578125
-0.0450439453125
0.0040283203125
0.256011962890625
-0.013916015625
-0.306182861328125
-0.0172119140625
0.2120361328125
-0.0087890625
-0.0780029296875
-0.015380859375
0.082794189453125
0.0032958984375
-0.169586181640625
-0.010986328125
0.1732177734375
0.0106201171875
0.0245361328125
-0.01171875
-0.268463134765625
0.0003662109375
0.296295166015625
-0.006591796875
-0.2083740234375
-0.0054931640625
0.085693359375
0.008056640625
-0.064483642578125
-0.005859375
0.186065673828125
0.01611328125
-0.1688232421875
-0.0260009765625
-0.038818359375
0.0439453125
0.244293212890625
0.0164794921875
-0.313873291015625
-0.0325927734375
0.1915283203125
0.0018310546875
-0.0823974609375
-0.01025390625
0.081695556640625
0.0032958984375
-0.157501220703125
-0.0150146484375
0.191162109375
0.01025390625
0.03515625
-0.012451171875
-0.253082275390625
0.0069580078125
0.294464111328125
0.00732421875
-0.2193603515625
-0.0040283203125
0.066650390625
0.0084228515625
-0.075103759765625
-0.0054931640625
0.174346923828125
0.0135498046875
-0.1728515625
-0.0087890625
-0.008056640625
0.0179443359375
0.259674072265625
0.0076904296875
-0.315704345703125
0.01318359375
0.197021484375
0.02197265625
-0.0853271484375
0.0098876953125
0.060821533203125
0.0252685546875
-0.168121337890625
0.0054931640625
0.1893310546875
0.029327392578125
0.0245361328125
0.0047607421875
-0.239532470703125
0.0150146484375
0.317901611328125
0.0032958984375
-0.2076416015625
-0.0098876953125
0.0823974609375
0.013946533203125
-0.058624267578125
0.0076904296875
0.175445556640625
0.02197265625
-0.1893310546875
-0.0032958984375
-0.003662109375
0.0223388671875
0.256011962890625
-0.0018310546875
-0.322662353515625
0.03369140625
0.226318359375
0.0340576171875
-0.0791015625
-0.015380859375
0.058624267578125
0.01171875
-0.170684814453125
-0.0084228515625
0.1885986328125
0.0128173828125
-0.0003662109375
-0.01611328125
-0.261505126953125
0.0025634765625
0.303253173828125
0.0054931640625
-0.2427978515625
-0.0010986328125
0.091552734375
0.0150146484375
-0.041046142578125
-0.0029296875
0.168487548828125
0.012451171875
-0.194091796875
-0.0087890625
-0.005126953125
0.01611328125
0.2197265625
-0.0032958984375
-0.331085205078125
-0.0010986328125
0.230010986328125
0.010986328125
-0.0845947265625
-0.0018310546875
0.071807861328125
0.0128173828125
-0.143585205078125
-0.002197265625
0.204345703125
0.0186767578125
-0.0069580078125
-0.010986328125
-0.240264892578125
0.0076904296875
0.302520751953125
0.0040283203125
-0.238037109375
-0.009521484375
0.0948486328125
0.0032958984375
-0.056427001953125
-0.005859375
0.166656494140625
0.01171875
-0.1644287109375
-0.0194091796875
0.0234375
0.0025634765625
0.222320556640625
-0.0120849609375
-0.309478759765625
-0.0047607421875
0.2332763671875
-0.0142822265625
-0.1160888671875
0.031494140625
0.050567626953125
0.0355224609375
-0.132598876953125
-0.041015625
0.199951171875
0.012451171875
0.00146484375
-0.010986328125
-0.2186279296875
0.0054931640625
0.299957275390625
0.0010986328125
-0.234039306640625
-0.0040283203125
0.08642578125
0.0113525390625
-0.072174072265625
-0.005126953125
0.151275634765625
0.010986328125
-0.1746826171875
-0.0113525390625
0.0216064453125
0.0120849609375
0.216094970703125
-0.0054931640625
-0.305450439453125
-0.002197265625
0.2222900390625
0.00732421875
-0.10546875
-0.006591796875
0.055694580078125
0.00732421875
-0.150177001953125
-0.0069580078125
0.1845703125
0.015380859375
-0.025634765625
-0.0087890625
-0.217193603515625
0.009521484375
0.301055908203125
0.005859375
-0.21533203125
-0.003662109375
0.1025390625
0.010986328125
-0.062652587890625
-0.002197265625
0.143585205078125
0.0087890625
-0.1875
-0.015380859375
0.01611328125
0.01611328125
0.196685791015625
0.0003662109375
-0.301788330078125
-0.005126953125
0.2266845703125
0.0018310546875
-0.088623046875
-0.005859375
0.058990478515625
0.0091552734375
-0.131500244140625
-0.0296630859375
0.18017578125
0.046875
-0.046142578125
0.0098876953125
-0.246490478515625
-0.0281982421875
0.250152587890625
0.0047607421875
-0.226348876953125
-0.0047607421875
0.1007080078125
0.00439453125
-0.03515625
-0.0087890625
0.159332275390625
0.0076904296875
-0.180908203125
-0.0098876953125
0.0281982421875
0.0157470703125
0.182373046875
-0.0025634765625
-0.315704345703125
0.0003662109375
0.213897705078125
0.006591796875
-0.098541259765625
-0.006591796875
0.059326171875
0.005126953125
-0.114990234375
-0.008056640625
0.208038330078125
0.015380859375
-0.046142578125
-0.008056640625
-0.202178955078125
0.0098876953125
0.288604736328125
0.005859375
-0.2406005859375
-0.0032958984375
0.093017578125
0.00732421875
-0.044708251953125
-0.005859375
0.140289306640625
0.0076904296875
-0.1820068359375
-0.0128173828125
0.0655517578125
0.012451171875
0.18310546875
0.0003662109375
-0.306182861328125
0.0029296875
0.228546142578125
0.006591796875
-0.108428955078125
-0.00439453125
0.0443115234375
0.0025634765625
-0.1094970703125
-0.0142822265625
0.207305908203125
-0.0029296875
-0.0618896484375
-0.0146484375
-0.170684814453125
0.0208740234375
0.298126220703125
0.0098876953125
-0.2406005859375
0.000732421875
0.1065673828125
0.0113525390625
-0.042144775390625
-0.0040283203125
0.117218017578125
0.005126953125
-0.1893310546875
-0.01611328125
0.0721435546875
0.01171875
0.158935546875
-0.005126953125
-0.289703369140625
0.002197265625
0.250152587890625
0.01025390625
-0.1138916015625
-0.002197265625
0.0498046875
0.0084228515625
-0.104034423828125
-0.0087890625
0.187164306640625
0.0106201171875
-0.0908203125
-0.0146484375
-0.15380859375
0.0025634765625
0.288970947265625
-0.003662109375
-0.262969970703125
-0.008056640625
0.1314697265625
0.006591796875
-0.029327392578125
-0.0047607421875
0.113922119140625
0.0091552734375
-0.193359375
-0.010986328125
0.075439453125
0.0120849609375
0.128173828125
-0.0029296875
-0.296661376953125
0.0032958984375
0.260040283203125
0.00732421875
-0.1212158203125
-0.006591796875
0.07177734375
0.002197265625
-0.082427978515625
-0.0084228515625
0.190460205078125
0.0054931640625
-0.104736328125
-0.0194091796875
-0.147216796875
0.0234375
0.273590087890625
0.002197265625
-0.262237548828125
-0.0230712890625
0.1453857421875
0.0062255859375
-0.0347900390625
-0.003662109375
0.115386962890625
0.0054931640625
-0.177276611328125
-0.01171875
0.0977783203125
0.01318359375
0.1131591796875
-0.0069580078125
-0.290435791015625
0.005126953125
0.247589111328125
0.0106201171875
-0.147216796875
-0.00439453125
0.060791015625
0.0091552734375
-0.087554931640625
-0.0029296875
0.190460205078125
0.0128173828125
-0.110595703125
-0.0113525390625
-0.1182861328125
0.010986328125
0.272125244140625
0.0025634765625
-0.280914306640625
-0.0025634765625
0.0992431640625
0.0142822265625
-0.090118408203125
0.0010986328125
0.0963134765625
0.009521484375
-0.1798095703125
-0.008056640625
0.119049072265625
0.012451171875
0.113525390625
-0.012451171875
-0.266632080078125
-0.0029296875
0.266998291015625
0.0062255859375
-0.151275634765625
-0.0010986328125
0.062255859375
0.00732421875
-0.0889892578125
-0.0113525390625
0.186431884765625
0.00439453125
-0.1197509765625
-0.018310546875
-0.0882568359375
-0.0150146484375
0.273223876953125
0.030029296875
-0.266632080078125
0.01171875
0.172119140625
-0.0322265625
-0.052764892578125
-0.005859375
0.083526611328125
0.01025390625
-0.175048828125
-0.010986328125
0.122314453125
0.006591796875
0.0732421875
-0.0142822265625
-0.263702392578125
0.00146484375
0.272857666015625
0.0069580078125
-0.1453857421875
-0.0029296875
0.063720703125
0.0098876953125
-0.087554931640625
-0.00439453125
0.168853759765625
0.0106201171875
-0.15087890625
-0.0120849609375
-0.0849609375
0.009521484375
0.253082275390625
-0.0018310546875
-0.268463134765625
-0.0025634765625
0.1746826171875
0.009521484375
-0.0443115234375
-0.0025634765625
0.080963134765625
0.0087890625
-0.176544189453125
-0.009521484375
0.1373291015625
0.01171875
0.0443115234375
-0.01171875
-0.267730712890625
-0.000732421875
0.273223876953125
0.0029296875
-0.1578369140625
-0.0087890625
0.076171875
0.0018310546875
-0.051666259765625
-0.010986328125
0.175811767578125
0.0098876953125
-0.1541748046875
-0.01171875
-0.0560302734375
0.0087890625
0.235137939453125
-0.0010986328125
-0.285675048828125
-0.005126953125
0.17578125
0.003662109375
-0.052001953125
-0.0205078125
0.06884765625
0.0029296875
-0.157501220703125
0.006591796875
0.168121337890625
0.0146484375
0.03369140625
-0.015380859375
-0.244293212890625
0.0025634765625
0.276153564453125
0.0040283203125
-0.1856689453125
-0.0084228515625
0.0633544921875
0.00146484375
-0.056793212890625
-0.0087890625
0.163726806640625
0.0091552734375
-0.158203125
-0.0098876953125
-0.0128173828125
0.01318359375
0.232208251953125
-0.002197265625
-0.281646728515625
-0.002197265625
0.192626953125
0.005126953125
-0.0732421875
-0.0076904296875
0.0498046875
0.0040283203125
-0.149078369140625
-0.010986328125
0.174346923828125
0.0135498046875
0.016845703125
-0.0091552734375
-0.209136962890625
0.005126953125
0.290435791015625
0.005859375
-0.19189453125
-0.005859375
0.071044921875
0.0054931640625
-0.061187744140625
-0.006591796875
0.135528564453125
0.003662109375
-0.176513671875
-0.0128173828125
0.003662109375
0.01318359375
0.213897705078125
-0.0047607421875
-0.272491455078125
-0.00439453125
0.216064453125
0.0032958984375
-0.0780029296875
-0.0106201171875
0.051666259765625
-0.002197265625
-0.134429931640625
-0.0303955078125
0.1614990234375
0.032958984375
-0.0267333984375
0.0032958984375
-0.194854736328125
-0.0223388671875
0.295562744140625
0.000732421875
-0.201416015625
-0.005126953125
0.09814453125
0.005859375
-0.037353515625
-0.009521484375
0.127471923828125
0.0029296875
-0.180938720703125
-0.01318359375
0.0252685546875
0.012451171875
0.181671142578125
-0.00439453125
-0.285308837890625
-0.0025634765625
0.2230224609375
0.006591796875
-0.0904541015625
-0.005126953125
0.061553955078125
0.006591796875
-0.121246337890625
-0.0087890625
0.176513671875
0.01171875
-0.0439453125
-0.0091552734375
-0.1922607421875
0.0062255859375
0.275421142578125
0.0032958984375
-0.227813720703125
-0.0040283203125
0.1036376953125
0.008056640625
-0.046875
-0.003662109375
0.131866455078125
0.0087890625
-0.173614501953125
-0.009521484375
0.0494384765625
0.0106201171875
0.169952392578125
-0.009521484375
-0.286041259765625
0.0029296875
0.21826171875
0.0106201171875
-0.11865234375
-0.0087890625
0.052734375
0.0032958984375
-0.108795166015625
-0.01025390625
0.190460205078125
0.0098876953125
-0.0479736328125
-0.03369140625
-0.1640625
0.032958984375
0.275054931640625
0.022705078125
-0.234039306640625
-0.03515625
0.1021728515625
0.0040283203125
-0.0611572265625
-0.0054931640625
0.115753173828125
0.0084228515625
-0.176177978515625
-0.012451171875
0.076171875
0.01025390625
0.164794921875
-0.005126953125
-0.272491455078125
0.0018310546875
0.235870361328125
0.0069580078125
-0.126708984375
-0.0069580078125
0.0421142578125
0.00439453125
-0.116851806640625
-0.008056640625
0.182403564453125
0.009521484375
-0.078369140625
-0.012451171875
-0.136962890625
0.008056640625
0.285308837890625
0.002197265625
-0.245758056640625
-0.0025634765625
0.114990234375
0.009521484375
-0.057861328125
-0.0032958984375
0.097076416015625
0.01025390625
-0.195220947265625
-0.0084228515625
0.0860595703125
0.01318359375
0.13037109375
-0.005859375
-0.273956298828125
-0.0018310546875
0.242462158203125
0.0098876953125
-0.1322021484375
-0.002197265625
0.0498046875
0.0069580078125
-0.098175048828125
-0.002197265625
0.177276611328125
0.010986328125
-0.1124267578125
-0.0135498046875
-0.116455078125
0.0
0.267730712890625
-0.0054931640625
-0.256011962890625
0.010986328125
0.1376953125
0.0091552734375
-0.0355224609375
-0.018310546875
0.095977783203125
0.005859375
-0.177276611328125
-0.0091552734375
0.117919921875
0.012451171875
0.0919189453125
-0.009521484375
-0.275054931640625
-0.002197265625
0.249786376953125
0.0040283203125
-0.1424560546875
-0.005126953125
0.0545654296875
0.005126953125
-0.070343017578125
-0.005126953125
0.184600830078125
0.010986328125
-0.126708984375
-0.012451171875
-0.0867919921875
0.00732421875
0.248321533203125
-0.0018310546875
-0.282012939453125
-0.00439453125
0.1424560546875
0.005126953125
-0.04541015625
-0.006591796875
0.083526611328125
0.0040283203125
-0.157135009765625
-0.01171875
0.148681640625
0.01318359375
0.069580078125
-0.006591796875
-0.259674072265625
0.00146484375
0.255645751953125
-0.0003662109375
-0.170654296875
-0.01318359375
0.04833984375
0.0054931640625
-0.064483642578125
-0.0010986328125
0.173248291015625
0.0087890625
-0.1336669921875
-0.0135498046875
-0.03955078125
0.010986328125
0.241363525390625
-0.000732421875
-0.275054931640625
-0.0263671875
0.1534423828125
0.038818359375
-0.0714111328125
0.01904296875
0.063720703125
-0.027099609375
-0.152008056640625
-0.010986328125
0.159332275390625
0.01318359375
0.0413818359375
-0.0098876953125
-0.226348876953125
-0.0010986328125
0.270660400390625
0.000732421875
-0.1805419921875
-0.006591796875
0.060791015625
0.0076904296875
-0.059722900390625
-0.0029296875
0.147979736328125
0.0098876953125
-0.15380859375
-0.0120849609375
-0.016845703125
0.0087890625
0.224884033203125
-0.0029296875
-0.267730712890625
-0.0040283203125
0.193359375
0.005859375
-0.0670166015625
-0.003662109375
0.053466796875
0.0069580078125
-0.142120361328125
-0.008056640625
0.153106689453125
0.0128173828125
0.0
-0.0091552734375
-0.220123291015625
0.0054931640625
0.271759033203125
0.0054931640625
-0.1885986328125
-0.0091552734375
0.0831298828125
0.000732421875
-0.044708251953125
-0.009521484375
0.144683837890625
0.012451171875
-0.161865234375
-0.008056640625
-0.005126953125
0.00732421875
0.202911376953125
-0.006591796875
-0.267730712890625
-0.0087890625
0.208740234375
0.0010986328125
-0.0699462890625
-0.0230712890625
0.064483642578125
0.01025390625
-0.125640869140625
0.0098876953125
0.17138671875
0.0069580078125
-0.0179443359375
-0.0146484375
-0.210235595703125
0.00439453125
0.261505126953125
0.005126953125
-0.2076416015625
-0.0062255859375
0.09228515625
0.00439453125
-0.0472412109375
-0.005126953125
0.145416259765625
0.0113525390625
-0.157135009765625
-0.00439453125
0.0179443359375
0.01611328125
0.173248291015625
-0.0032958984375
-0.292266845703125
-0.0010986328125
0.192626953125
0.00732421875
-0.0999755859375
-0.005126953125
0.0589599609375
0.0062255859375
-0.113189697265625
-0.0054931640625
0.185333251953125
0.0146484375
-0.028564453125
-0.0062255859375
-0.187530517578125
0.0047607421875
0.269195556640625
0.0003662109375
-0.224853515625
-0.0032958984375
0.0831298828125
0.00732421875
-0.054595947265625
-0.0062255859375
0.131500244140625
0.0062255859375
-0.164794921875
-0.012451171875
0.040283203125
0.015380859375
0.1710205078125
0.003662109375
-0.281280517578125
0.005859375
0.211334228515625
0.01171875
-0.104736328125
-0.005859375
0.0435791015625
0.005859375
-0.119781494140625
-0.0245361328125
0.174713134765625
0.041748046875
-0.0501708984375
0.005126953125
-0.155303955078125
-0.0340576171875
0.287506103515625
-0.008056640625
-0.217529296875
-0.0091552734375
0.10107421875
0.0084228515625
-0.046142578125
0.000732421875
0.113555908203125
0.013916015625
-0.187530517578125
-0.00732421875
0.04833984375
0.01318359375
0.1512451171875
-0.0025634765625
-0.274322509765625
0.00146484375
0.224517822265625
0.0076904296875
-0.0999755859375
-0.005126953125
0.053466796875
0.0047607421875
-0.106231689453125
-0.0076904296875
0.175445556640625
0.010986328125
-0.0838623046875
-0.010986328125
-0.161163330078125
0.0054931640625
0.269561767578125
-0.0003662109375
-0.2259521484375
-0.0076904296875
0.1146240234375
0.0076904296875
-0.0281982421875
-0.0018310546875
0.117584228515625
0.008056640625
-0.177276611328125
-0.0128173828125
0.0670166015625
0.0062255859375
0.1256103515625
-0.0018310546875
-0.279449462890625
-0.000732421875
0.230377197265625
-0.00439453125
-0.1083984375
-0.009521484375
0.0523681640625
0.002197265625
-0.082061767578125
-0.01025390625
0.185333251953125
-0.0128173828125
-0.0966796875
0.00146484375
-0.146148681640625
0.0274658203125
0.259674072265625
-0.015380859375
-0.251220703125
-0.0091552734375
0.1146240234375
0.00439453125
-0.031158447265625
-0.00732421875
0.105499267578125
0.0032958984375
-0.1644287109375
-0.01318359375
0.0926513671875
0.010986328125
0.11572265625
-0.005126953125
-0.280914306640625
-0.0003662109375
0.222320556640625
0.0025634765625
-0.134063720703125
-0.0113525390625
0.0435791015625
0.0
-0.0802001953125
-0.0091552734375
0.178741455078125
0.008056640625
-0.093017578125
-0.013916015625
-0.1058349609375
0.005859375
0.266632080078125
-0.0069580078125
-0.243194580078125
-0.0128173828125
0.1300048828125
0.005126953125
-0.041015625
-0.005859375
0.083892822265625
0.0040283203125
-0.173980712890625
-0.0135498046875
0.10693359375
0.00732421875
0.1116943359375
-0.01318359375
-0.251251220703125
0.0032958984375
0.255279541015625
0.01318359375
-0.1259765625
-0.0062255859375
0.0574951171875
0.003662109375
-0.079864501953125
-0.00732421875
0.165924072265625
0.0113525390625
-0.1051025390625
-0.0263671875
-0.1058349609375
0.03515625
0.257843017578125
0.0135498046875
-0.234405517578125
-0.03662109375
0.1519775390625
0.0084228515625
-0.04248046875
-0.000732421875
0.080596923828125
0.0091552734375
-0.172882080078125
-0.0087890625
0.0970458984375
0.01025390625
0.085693359375
-0.0076904296875
-0.254180908203125
0.0054931640625
0.256744384765625
0.0106201171875
-0.1343994140625
-0.0029296875
0.0648193359375
0.009521484375
-0.076934814453125
-0.0010986328125
0.160430908203125
0.012451171875
-0.1204833984375
-0.010986328125
-0.1025390625
0.00732421875
0.243194580078125
-0.003662109375
-0.252349853515625
-0.0087890625
0.1541748046875
0.0047607421875
-0.0428466796875
-0.005859375
0.093780517578125
0.0062255859375
-0.162261962890625
-0.0069580078125
0.110595703125
0.0113525390625
0.0787353515625
-0.0128173828125
-0.261138916015625
0.0010986328125
0.243927001953125
0.003662109375
-0.1468505859375
-0.0098876953125
0.060791015625
0.0062255859375
-0.074005126953125
-0.005859375
0.172149658203125
0.0098876953125
-0.114990234375
-0.01611328125
-0.085693359375
0.005126953125
0.235870361328125
0.0142822265625
-0.260040283203125
-0.0003662109375
0.145751953125
-0.0029296875
-0.05859375
-0.0029296875
0.075836181640625
0.0128173828125
-0.164825439453125
-0.0025634765625
0.128173828125
0.0146484375
0.0802001953125
-0.00732421875
-0.247955322265625
0.003662109375
0.252349853515625
0.0098876953125
-0.154541015625
-0.000732421875
0.04541015625
0.005859375
-0.083526611328125
-0.0098876953125
0.165557861328125
0.005859375
-0.1248779296875
-0.01171875
-0.0728759765625
0.01025390625
0.250152587890625
0.002197265625
-0.251617431640625
-0.0025634765625
0.1512451171875
0.006591796875
-0.057861328125
-0.0040283203125
0.064483642578125
0.00732421875
-0.169952392578125
-0.0091552734375
0.1259765625
0.0113525390625
0.0648193359375
-0.0054931640625
-0.239898681640625
0.0003662109375
0.266265869140625
0.0054931640625
-0.144287109375
-0.0047607421875
0.050537109375
0.0062255859375
-0.074737548828125
-0.002197265625
0.157867431640625
0.00732421875
-0.14208984375
-0.015380859375
-0.0677490234375
0.005126953125
0.243194580078125
-0.02197265625
-0.259674072265625
0.02783203125
0.1585693359375
0.0238037109375
-0.0384521484375
-0.041015625
0.068145751953125
0.0040283203125
-0.160430908203125
-0.0084228515625
0.129638671875
0.012451171875
0.03955078125
-0.009521484375
-0.243560791015625
-0.0018310546875
0.263702392578125
0.0018310546875
-0.1534423828125
-0.0054931640625
0.052734375
0.0098876953125
-0.056060791015625
-0.0025634765625
0.163360595703125
0.0091552734375
-0.141357421875
-0.01171875
-0.0545654296875
0.0062255859375
0.226348876953125
-0.003662109375
-0.264068603515625
-0.005126953125
0.1622314453125
0.005126953125
-0.0516357421875
-0.0054931640625
0.06591796875
0.0047607421875
-0.136627197265625
-0.0106201171875
0.148345947265625
0.01025390625
0.03662109375
-0.0084228515625
-0.231842041015625
-0.000732421875
0.259307861328125
-0.00439453125
-0.1724853515625
-0.0087890625
0.0498046875
0.000732421875
-0.051666259765625
-0.01318359375
0.160064697265625
0.005859375
-0.1307373046875
-0.0157470703125
-0.0252685546875
0.006591796875
0.232208251953125
-0.012451171875
-0.259674072265625
-0.00732421875
0.1600341796875
0.01904296875
-0.069580078125
-0.0029296875
0.053466796875
0.0025634765625
-0.140289306640625
-0.005859375
0.148712158203125
0.0135498046875
0.03955078125
-0.008056640625
-0.206573486328125
0.0003662109375
0.266998291015625
0.0010986328125
-0.1717529296875
-0.0069580078125
0.0538330078125
0.0069580078125
-0.064483642578125
-0.0040283203125
0.142120361328125
0.0076904296875
-0.14501953125
-0.010986328125
-0.0289306640625
0.0113525390625
0.223419189453125
0.0025634765625
-0.246490478515625
0.0
0.17578125
0.0091552734375
-0.0673828125
-0.002197265625
0.056427001953125
0.0087890625
-0.146148681640625
-0.0062255859375
0.1336669921875
0.0084228515625
0.0238037109375
-0.0106201171875
-0.211334228515625
0.0025634765625
0.263336181640625
0.0029296875
-0.1669921875
-0.005859375
0.06884765625
0.005126953125
-0.057891845703125
-0.0010986328125
0.145416259765625
0.0098876953125
-0.14794921875
-0.0142822265625
-0.035888671875
0.0069580078125
0.211700439453125
-0.006591796875
-0.262237548828125
-0.005859375
0.1702880859375
-0.0010986328125
-0.0706787109375
-0.00439453125
0.065216064453125
0.0205078125
-0.141754150390625
-0.0062255859375
0.1431884765625
0.00732421875
0.022705078125
-0.005126953125
-0.226348876953125
0.0047607421875
0.257843017578125
0.0025634765625
-0.1728515625
-0.008056640625
0.0692138671875
0.003662109375
-0.052398681640625
-0.0054931640625
0.160797119140625
0.012451171875
-0.1424560546875
-0.0076904296875
-0.0289306640625
0.0087890625
0.216461181640625
-0.0018310546875
-0.267364501953125
-0.0047607421875
0.16259765625
0.0032958984375
-0.0732421875
-0.008056640625
0.065216064453125
0.0029296875
-0.138824462890625
-0.00732421875
0.1585693359375
0.015380859375
0.0311279296875
-0.0032958984375
-0.216827392578125
0.00439453125
0.256011962890625
0.003662109375
-0.185302734375
-0.005126953125
0.0538330078125
0.0032958984375
-0.065948486328125
-0.0029296875
0.151275634765625
0.0098876953125
-0.145751953125
-0.0098876953125
-0.0157470703125
0.0135498046875
0.226715087890625
0.0
-0.265899658203125
-0.0018310546875
0.1651611328125
0.0084228515625
-0.0758056640625
-0.0216064453125
0.0340576171875
0.0399169921875
-0.152374267578125
0.0091552734375
0.161529541015625
-0.024169921875
0.0274658203125
-0.0069580078125
-0.211334228515625
0.005126953125
0.269195556640625
0.005859375
-0.1724853515625
-0.0029296875
0.05859375
0.0062255859375
-0.056060791015625
-0.0062255859375
0.138824462890625
0.0091552734375
-0.15673828125
-0.008056640625
-0.0194091796875
0.0087890625
0.214263916015625
-0.0047607421875
-0.262237548828125
-0.0054931640625
0.1787109375
0.0029296875
-0.05859375
-0.00439453125
0.0523681640625
0.00732421875
-0.140655517578125
-0.008056640625
0.148712158203125
0.0091552734375
0.0054931640625
-0.0091552734375
-0.214630126953125
0.002197265625
0.256744384765625
0.00146484375
-0.1790771484375
-0.006591796875
0.071044921875
0.0029296875
-0.039581298828125
-0.0084228515625
0.144317626953125
0.0025634765625
-0.15234375
-0.01025390625
-0.012451171875
0.01025390625
0.194122314453125
-0.0062255859375
-0.271392822265625
-0.0040283203125
0.177978515625
0.0025634765625
-0.0615234375
-0.009521484375
0.060791015625
-0.0179443359375
-0.123809814453125
0.01611328125
0.160430908203125
0.0325927734375
0.0098876953125
-0.034423828125
-0.206573486328125
0.000732421875
0.246124267578125
0.0025634765625
-0.19189453125
-0.0069580078125
0.069580078125
0.00146484375
-0.039215087890625
-0.0098876953125
0.141387939453125
0.00439453125
-0.1387939453125
-0.0091552734375
0.0120849609375
0.013916015625
0.187896728515625
-0.0003662109375
-0.271392822265625
-0.003662109375
0.177978515625
0.0040283203125
-0.0791015625
-0.0098876953125
0.0494384765625
0.000732421875
-0.120147705078125
-0.0091552734375
0.169219970703125
0.0084228515625
0.005126953125
-0.0087890625
-0.197052001953125
0.002197265625
0.238067626953125
0.00146484375
-0.2047119140625
-0.0040283203125
0.0670166015625
0.0047607421875
-0.060821533203125
-0.0084228515625
0.130767822265625
0.00146484375
-0.1446533203125
-0.015380859375
0.015380859375
0.0142822265625
0.183135986328125
0.00439453125
-0.258941650390625
0.0
0.20068359375
0.005126953125
-0.0743408203125
-0.00732421875
0.050537109375
0.0040283203125
-0.123077392578125
-0.0216064453125
0.152740478515625
0.03955078125
-0.0201416015625
0.0091552734375
-0.178009033203125
-0.0201416015625
0.261871337890625
0.0047607421875
-0.1849365234375
-0.0018310546875
0.0908203125
0.009521484375
-0.0479736328125
0.0010986328125
0.127838134765625
0.0128173828125
-0.157135009765625
-0.0076904296875
0.0146484375
0.01318359375
0.169586181640625
0.0
-0.261138916015625
-0.00146484375
0.201416015625
0.00439453125
-0.07763671875
-0.00732421875
0.0574951171875
0.0040283203125
-0.112091064453125
-0.0062255859375
0.167022705078125
0.0120849609375
-0.0318603515625
-0.0098876953125
-0.188995361328125
0.000732421875
0.249786376953125
0.000732421875
-0.1988525390625
-0.005126953125
0.091552734375
0.0032958984375
-0.0377197265625
-0.006591796875
0.134796142578125
0.0084228515625
-0.156402587890625
-0.0091552734375
0.03076171875
0.0087890625
0.159332275390625
-0.0076904296875
-0.274688720703125
-0.00146484375
0.18896484375
0.008056640625
-0.0970458984375
-0.0003662109375
0.0509033203125
0.0113525390625
-0.101104736328125
-0.0069580078125
0.184234619140625
0.0098876953125
-0.041015625
-0.0076904296875
-0.168853759765625
-0.01171875
0.246124267578125
0.031494140625
-0.2193603515625
0.012451171875
0.0897216796875
-0.02490234375
-0.0443115234375
-0.0047607421875
0.121612548828125
0.0076904296875
-0.158233642578125
-0.0084228515625
0.060791015625
0.0120849609375
0.156402587890625
-0.005126953125
-0.265533447265625
-0.0018310546875
0.2047119140625
0.008056640625
-0.100341796875
0.0
0.0413818359375
0.005859375
-0.102569580078125
-0.0091552734375
0.175811767578125
0.009521484375
-0.064453125
-0.0113525390625
-0.150543212890625
0.0047607421875
0.264801025390625
0.003662109375
-0.2171630859375
-0.0032958984375
0.094482421875
0.0062255859375
-0.041748046875
-0.00439453125
0.100738525390625
0.0069580078125
-0.167755126953125
-0.0098876953125
0.0655517578125
0.0087890625
0.1336669921875
-0.009521484375
-0.258575439453125
-0.005126953125
0.224884033203125
0.0047607421875
-0.1029052734375
-0.00439453125
0.0377197265625
0.005859375
-0.091949462890625
-0.00732421875
0.163726806640625
0.006591796875
-0.088623046875
-0.0128173828125
-0.135162353515625
-0.0150146484375
0.248687744140625
0.0296630859375
-0.22412109375
0.0146484375
0.1226806640625
-0.0245361328125
-0.029296875
-0.0062255859375
0.096710205078125
0.0076904296875
-0.164459228515625
-0.0069580078125
0.0732421875
0.0091552734375
0.1043701171875
-0.009521484375
-0.262237548828125
-0.0032958984375
0.224151611328125
0.0062255859375
-0.1102294921875
-0.0029296875
0.0516357421875
0.005859375
-0.068878173828125
-0.005126953125
0.169586181640625
0.009521484375
-0.0970458984375
-0.0091552734375
-0.1241455078125
0.006591796875
0.236602783203125
-0.0003662109375
-0.235870361328125
-0.0054931640625
0.123046875
0.0032958984375
-0.0289306640625
-0.00732421875
0.093780517578125
0.0047607421875
-0.149078369140625
-0.0091552734375
0.0933837890625
0.009521484375
0.097412109375
-0.0084228515625
-0.249420166015625
-0.0040283203125
0.222686767578125
-0.0047607421875
-0.1278076171875
-0.01025390625
0.0501708984375
0.0032958984375
-0.064849853515625
-0.0098876953125
0.166290283203125
0.0091552734375
-0.0911865234375
-0.0106201171875
-0.0919189453125
0.005126953125
0.241729736328125
-0.016845703125
-0.239898681640625
0.0003662109375
0.1219482421875
0.0208740234375
-0.043212890625
-0.0135498046875
0.082427978515625
0.0029296875
-0.153839111328125
-0.008056640625
0.1025390625
0.0113525390625
0.093017578125
-0.0054931640625
-0.234771728515625
0.0018310546875
0.233306884765625
0.0040283203125
-0.1351318359375
-0.0047607421875
0.0487060546875
0.0098876953125
-0.080230712890625
-0.0025634765625
0.151641845703125
0.0069580078125
-0.112060546875
-0.013916015625
-0.078369140625
0.0040283203125
0.242095947265625
-0.00146484375
-0.231475830078125
-0.0040283203125
0.1453857421875
0.005126953125
-0.046875
-0.0069580078125
0.068511962890625
0.0054931640625
-0.167022705078125
-0.00732421875
0.1029052734375
0.009521484375
0.0655517578125
-0.0069580078125
-0.234405517578125
0.0025634765625
0.242462158203125
0.005859375
-0.1314697265625
-0.00439453125
0.062255859375
0.005126953125
-0.067047119140625
-0.000732421875
0.147613525390625
0.0087890625
-0.131103515625
-0.0135498046875
-0.0765380859375
0.0076904296875
0.220855712890625
-0.0029296875
-0.239166259765625
-0.0062255859375
0.15966796875
-0.005859375
-0.03955078125
-0.0040283203125
0.071807861328125
0.022705078125
-0.153472900390625
-0.0054931640625
0.120849609375
0.0069580078125
0.0439453125
-0.005126953125
-0.251983642578125
0.003662109375
0.231475830078125
0.0054931640625
-0.1435546875
-0.00439453125
0.0743408203125
0.0025634765625
-0.044708251953125
-0.006591796875
0.153839111328125
0.0120849609375
-0.138427734375
-0.005126953125
-0.0556640625
0.01025390625
0.230010986328125
-0.0032958984375
-0.220489501953125
-0.0267333984375
0.17578125
-0.021240234375
-0.0487060546875
-0.013916015625
0.062286376953125
0.0025634765625
-0.148345947265625
-0.006591796875
0.142822265625
0.0135498046875
0.034423828125
-0.003662109375
-0.226348876953125
0.0054931640625
0.243927001953125
0.006591796875
-0.16552734375
-0.0032958984375
0.046875
0.008056640625
-0.06298828125
0.002197265625
0.142486572265625
0.0146484375
-0.144317626953125
-0.0069580078125
-0.02197265625
0.0106201171875
0.212066650390625
0.000732421875
-0.256378173828125
0.0
0.1636962890625
-0.0076904296875
-0.0714111328125
0.02490234375
0.0369873046875
0.021240234375
-0.139923095703125
-0.0355224609375
0.145050048828125
0.0128173828125
0.0205078125
-0.005859375
-0.198150634765625
0.0040283203125
0.260772705078125
0.0069580078125
-0.164794921875
-0.0040283203125
0.057861328125
0.005859375
-0.0472412109375
-0.0025634765625
0.125640869140625
0.00732421875
-0.161163330078125
-0.01025390625
-0.010986328125
0.0062255859375
0.197418212890625
-0.0062255859375
-0.248687744140625
-0.0040283203125
0.1849365234375
0.00732421875
-0.0758056640625
-0.002197265625
0.0333251953125
0.003662109375
-0.116851806640625
-0.0106201171875
0.154937744140625
0.0076904296875
-0.0047607421875
-0.01171875
-0.195220947265625
-0.0003662109375
0.254180908203125
0.0032958984375
-0.170654296875
-0.003662109375
0.075439453125
0.003662109375
-0.0439453125
-0.002197265625
0.119781494140625
0.0084228515625
-0.157867431640625
-0.01025390625
-0.0018310546875
0.0113525390625
0.171051025390625
-0.0054931640625
-0.252716064453125
-0.0087890625
0.19189453125
0.0018310546875
-0.064453125
-0.025634765625
0.0439453125
0.03662109375
-0.110992431640625
0.013916015625
0.164093017578125
-0.02490234375
-0.019775390625
-0.0113525390625
-0.178009033203125
0.005126953125
0.246124267578125
0.003662109375
-0.188232421875
-0.006591796875
0.081298828125
0.0029296875
-0.038818359375
-0.0054931640625
0.124542236328125
0.0091552734375
-0.142852783203125
-0.00439453125
0.025634765625
0.0120849609375
0.164093017578125
-0.0032958984375
-0.249053955078125
-0.0029296875
0.1871337890625
0.0047607421875
-0.0904541015625
-0.005859375
0.041748046875
0.00439453125
-0.104400634765625
-0.0054931640625
0.160430908203125
0.0113525390625
-0.0263671875
-0.008056640625
-0.155303955078125
0.002197265625
0.249786376953125
0.0003662109375
-0.197021484375
-0.0062255859375
0.0794677734375
0.00439453125
-0.0516357421875
-0.006591796875
0.106231689453125
0.0106201171875
-0.154571533203125
-0.00439453125
0.0428466796875
0.0098876953125
0.166290283203125
-0.0025634765625
-0.239532470703125
-0.00146484375
0.1966552734375
0.005859375
-0.0970458984375
-0.0087890625
0.03662109375
-0.0010986328125
-0.116851806640625
0.0113525390625
0.153472900390625
0.0146484375
-0.041748046875
-0.024169921875
-0.146514892578125
0.0047607421875
0.256011962890625
0.0029296875
-0.1915283203125
-0.0029296875
0.094482421875
0.0084228515625
-0.044677734375
-0.003662109375
0.104034423828125
0.0047607421875
-0.168121337890625
-0.0076904296875
0.0457763671875
0.0128173828125
0.148345947265625
-0.0040283203125
-0.243194580078125
-0.0029296875
0.20654296875
0.0032958984375
-0.0897216796875
-0.005859375
0.047607421875
0.005859375
-0.100372314453125
-0.0047607421875
0.160064697265625
0.0106201171875
-0.0626220703125
-0.009521484375
-0.1475830078125
0.0029296875
0.245025634765625
0.000732421875
-0.204010009765625
-0.003662109375
0.101806640625
0.0062255859375
-0.0318603515625
-0.010986328125
0.108795166015625
0.00439453125
-0.162261962890625
-0.0091552734375
0.0618896484375
0.0040283203125
0.131134033203125
-0.0069580078125
-0.286407470703125
-0.0040283203125
0.1805419921875
0.002197265625
-0.0966796875
-0.005859375
0.0498046875
-0.013916015625
-0.092315673828125
0.02783203125
0.173980712890625
0.028564453125
-0.0582275390625
-0.043212890625
-0.1322021484375
0.0069580078125
0.245758056640625
0.00439453125
-0.224151611328125
-0.003662109375
0.0966796875
0.0062255859375
-0.035888671875
-0.00439453125
0.099639892578125
0.008056640625
-0.159332275390625
-0.0018310546875
0.0860595703125
0.017578125
0.129302978515625
0.0
-0.254913330078125
0.0025634765625
0.207275390625
0.0062255859375
-0.1160888671875
-0.005859375
0.032958984375
0.0040283203125
-0.080963134765625
-0.005859375
0.171783447265625
0.008056640625
-0.0736083984375
-0.01025390625
-0.10693359375
0.005859375
0.249053955078125
0.0018310546875
-0.223052978515625
-0.0047607421875
0.10107421875
0.003662109375
-0.0391845703125
-0.0054931640625
0.077667236328125
0.002197265625
-0.161163330078125
-0.0164794921875
0.0904541015625
0.0128173828125
0.113525390625
-0.0029296875
-0.239532470703125
-0.00732421875
0.219757080078125
0.0054931640625
-0.111328125
-0.005859375
0.0340576171875
0.0
-0.078399658203125
-0.0281982421875
0.146881103515625
0.0194091796875
-0.0977783203125
0.0062255859375
-0.100341796875
-0.01171875
0.238800048828125
-0.0010986328125
-0.219390869140625
-0.0047607421875
0.1212158203125
0.0069580078125
-0.0325927734375
-0.002197265625
0.076934814453125
0.005126953125
-0.153472900390625
-0.009521484375
0.08935546875
0.009521484375
0.0897216796875
-0.005126953125
-0.243927001953125
-0.0010986328125
0.218292236328125
0.0040283203125
-0.11572265625
-0.0040283203125
0.0479736328125
0.0047607421875
-0.066680908203125
-0.003662109375
0.154205322265625
0.008056640625
-0.0948486328125
-0.012451171875
-0.09814453125
0.00732421875
0.218658447265625
0.0029296875
-0.229278564453125
-0.005126953125
0.119384765625
0.002197265625
-0.03662109375
-0.005126953125
0.084625244140625
0.00732421875
-0.139923095703125
-0.0054931640625
0.1021728515625
0.0113525390625
0.084228515625
-0.0032958984375
-0.240264892578125
0.0032958984375
0.206939697265625
0.0062255859375
-0.128173828125
-0.0040283203125
0.0487060546875
0.0040283203125
-0.064483642578125
-0.005126953125
0.164093017578125
0.0076904296875
-0.08203125
-0.018310546875
-0.0791015625
0.024169921875
0.227081298828125
0.01025390625
-0.226348876953125
-0.018310546875
0.1190185546875
0.00732421875
-0.049072265625
-0.005859375
0.078765869140625
0.0054931640625
-0.138458251953125
-0.005859375
0.1116943359375
0.0091552734375
0.091583251953125
-0.008056640625
-0.231842041015625
0.00146484375
0.21826171875
0.006591796875
-0.132568359375
-0.0069580078125
0.0399169921875
0.00146484375
-0.076202392578125
-0.0098876953125
0.156768798828125
0.00439453125
-0.0977783203125
-0.0113525390625
-0.0831298828125
0.005126953125
0.231475830078125
-0.00146484375
-0.223419189453125
-0.005859375
0.125244140625
0.00439453125
-0.0494384765625
-0.005126953125
0.072174072265625
0.0062255859375
-0.157501220703125
-0.0091552734375
0.10400390625
0.00732421875
0.076904296875
-0.0062255859375
-0.234771728515625
-0.0010986328125
0.229644775390625
0.0076904296875
-0.120849609375
-0.003662109375
0.0498046875
0.0029296875
-0.07177734375
-0.0040283203125
0.154205322265625
0.006591796875
-0.119049072265625
-0.01171875
-0.08935546875
-0.0003662109375
0.222320556640625
-0.00732421875
-0.233673095703125
0.0120849609375
0.135498046875
0.01171875
-0.030029296875
-0.0146484375
0.079132080078125
0.0091552734375
-0.149810791015625
-0.005859375
0.1138916015625
0.010986328125
0.063720703125
-0.006591796875
-0.243194580078125
-0.0025634765625
0.227447509765625
0.0029296875
-0.1314697265625
-0.0032958984375
0.0472412109375
0.006591796875
-0.0538330078125
-0.005126953125
0.167388916015625
0.0091552734375
-0.117584228515625
-0.01025390625
-0.07763671875
0.0054931640625
0.221221923828125
0.0
-0.247955322265625
-0.00439453125
0.1270751953125
0.005859375
-0.041015625
-0.00439453125
0.074371337890625
0.00439453125
-0.138824462890625
-0.0087890625
0.1278076171875
0.0113525390625
0.0596923828125
-0.00439453125
-0.235870361328125
0.00146484375
0.225250244140625
0.003662109375
-0.151611328125
-0.0018310546875
0.040283203125
0.005126953125
-0.053497314453125
-0.00732421875
0.159698486328125
0.009521484375
-0.1190185546875
-0.010986328125
-0.0545654296875
0.005126953125
0.226348876953125
-0.00146484375
-0.236602783203125
-0.025634765625
0.1270751953125
0.0333251953125
-0.0531005859375
0.0098876953125
0.065948486328125
-0.0333251953125
-0.140655517578125
-0.0098876953125
0.1248779296875
0.009521484375
0.0509033203125
-0.00732421875
-0.212799072265625
0.000732421875
0.240264892578125
0.00146484375
-0.1446533203125
-0.006591796875
0.046875
0.0076904296875
-0.052734375
-0.002197265625
0.138092041015625
0.0054931640625
-0.132232666015625
-0.0135498046875
-0.0501708984375
0.003662109375
0.212799072265625
-0.0032958984375
-0.232574462890625
-0.0040283203125
0.15234375
0.0076904296875
-0.0443115234375
-0.0032958984375
0.057525634765625
0.005126953125
-0.139190673828125
-0.006591796875
0.1138916015625
0.0084228515625
0.027099609375
-0.0098876953125
-0.214263916015625
-0.0003662109375
0.235504150390625
0.0040283203125
-0.146484375
-0.0076904296875
0.0615234375
0.0106201171875
-0.044677734375
0.00439453125
0.139190673828125
0.0069580078125
-0.132232666015625
-0.01171875
-0.050537109375
0.0040283203125
0.194488525390625
-0.0047607421875
-0.233673095703125
-0.0245361328125
0.1497802734375
0.0303955078125
-0.0472412109375
0.012451171875
0.080230712890625
-0.021240234375
-0.123077392578125
-0.0047607421875
0.128173828125
0.0106201171875
0.0263671875
-0.0076904296875
-0.213165283203125
0.00146484375
0.225982666015625
0.0010986328125
-0.15673828125
-0.009521484375
0.064453125
0.0047607421875
-0.0435791015625
-0.0010986328125
0.147613525390625
0.0076904296875
-0.128936767578125
-0.01171875
-0.034423828125
0.0069580078125
0.198883056640625
-0.0029296875
-0.243194580078125
-0.0054931640625
0.14794921875
0.00439453125
-0.059326171875
-0.0069580078125
0.063018798828125
0.0029296875
-0.127838134765625
-0.0076904296875
0.1376953125
0.008056640625
0.0318603515625
-0.0087890625
-0.201812744140625
0.002197265625
0.234771728515625
0.0029296875
-0.1593017578125
-0.0069580078125
0.057861328125
0.0029296875
-0.053466796875
-0.0076904296875
0.136260986328125
0.0106201171875
-0.136260986328125
-0.008056640625
-0.0245361328125
0.003662109375
0.206573486328125
-0.0025634765625
-0.237701416015625
-0.0069580078125
0.1585693359375
0.0018310546875
-0.0523681640625
-0.0230712890625
0.050201416015625
0.0223388671875
-0.146881103515625
0.0113525390625
0.135498046875
-0.0087890625
0.0216064453125
-0.0069580078125
-0.201446533203125
0.005859375
0.245758056640625
0.006591796875
-0.1497802734375
-0.0010986328125
0.0655517578125
0.00732421875
-0.0516357421875
-0.0054931640625
0.129669189453125
0.0091552734375
-0.155303955078125
-0.005859375
-0.0318603515625
0.0098876953125
0.191925048828125
-0.000732421875
-0.242828369140625
-0.002197265625
0.16845703125
0.0047607421875
-0.046142578125
-0.0047607421875
0.057525634765625
0.006591796875
-0.136260986328125
-0.0062255859375
0.1336669921875
0.0087890625
0.0003662109375
-0.0084228515625
-0.204376220703125
0.0032958984375
0.240997314453125
0.0047607421875
-0.1600341796875
-0.005126953125
0.06884765625
0.00439453125
-0.0377197265625
-0.0054931640625
0.135162353515625
0.005126953125
-0.153106689453125
-0.005859375
-0.01904296875
0.009521484375
0.185699462890625
-0.00439453125
-0.251983642578125
-0.00439453125
0.169921875
0.0
-0.05126953125
-0.01025390625
0.05419921875
0.005859375
-0.117950439453125
-0.0208740234375
0.145416259765625
0.0421142578125
-0.002197265625
0.0113525390625
-0.193756103515625
-0.0274658203125
0.240264892578125
0.00732421875
-0.1768798828125
-0.0010986328125
0.060791015625
0.01025390625
-0.040283203125
0.0025634765625
0.128570556640625
0.010986328125
-0.141387939453125
-0.005859375
0.00439453125
0.0142822265625
0.184600830078125
0.0029296875
-0.251983642578125
0.0
0.1695556640625
0.006591796875
-0.0706787109375
-0.005859375
0.038818359375
0.0029296875
-0.122711181640625
-0.0087890625
0.149810791015625
0.0084228515625
-0.00146484375
-0.0084228515625
-0.180572509765625
0.002197265625
0.251983642578125
0.003662109375
-0.1695556640625
-0.0054931640625
0.0673828125
0.0010986328125
-0.046875
-0.0087890625
0.113922119140625
0.0032958984375
-0.148345947265625
-0.01318359375
0.0076904296875
0.0087890625
0.181304931640625
-0.003662109375
-0.234405517578125
-0.00439453125
0.185302734375
0.008056640625
-0.0673828125
-0.00439453125
0.041015625
0.0018310546875
-0.118682861328125
-0.01318359375
0.135528564453125
-0.0032958984375
-0.0216064453125
0.00732421875
-0.174346923828125
0.01025390625
0.249053955078125
-0.0146484375
-0.1669921875
-0.0054931640625
0.0794677734375
0.0087890625
-0.0435791015625
-0.0018310546875
0.113189697265625
0.00439453125
-0.148712158203125
-0.0113525390625
0.002197265625
0.00732421875
0.159332275390625
-0.0018310546875
-0.240997314453125
-0.00146484375
0.1849365234375
0.0040283203125
-0.0684814453125
-0.00732421875
0.0552978515625
0.0040283203125
-0.106964111328125
-0.0054931640625
0.147247314453125
0.009521484375
-0.0223388671875
-0.0069580078125
-0.174713134765625
0.0032958984375
0.240631103515625
0.00146484375
-0.1768798828125
-0.0062255859375
0.0831298828125
0.00439453125
-0.0406494140625
-0.00439453125
0.124908447265625
0.0069580078125
-0.141754150390625
-0.0084228515625
0.0157470703125
0.00732421875
0.162994384765625
-0.0062255859375
-0.244659423828125
0.000732421875
0.17578125
0.009521484375
-0.08056640625
-0.006591796875
0.0479736328125
0.002197265625
-0.107696533203125
-0.0091552734375
0.159332275390625
0.0076904296875
-0.0179443359375
-0.022705078125
-0.169586181640625
0.0238037109375
0.240264892578125
0.0157470703125
-0.1827392578125
-0.0267333984375
0.0692138671875
0.00732421875
-0.0501708984375
-0.0025634765625
0.116851806640625
0.0069580078125
-0.148345947265625
-0.0076904296875
0.028564453125
0.0084228515625
0.171783447265625
-0.0032958984375
-0.238433837890625
0.0010986328125
0.181640625
0.0087890625
-0.08642578125
-0.00439453125
0.032958984375
0.0029296875
-0.117218017578125
-0.0091552734375
0.155670166015625
0.00732421875
-0.0289306640625
-0.0091552734375
-0.158233642578125
0.0029296875
0.257843017578125
0.0029296875
-0.17578125
-0.0047607421875
0.0816650390625
0.0040283203125
-0.044677734375
-0.0062255859375
0.110626220703125
-0.00732421875
-0.162261962890625
-0.028564453125
0.028564453125
-0.0010986328125
0.163360595703125
-0.0106201171875
-0.238800048828125
-0.0106201171875
0.198486328125
0.003662109375
-0.076904296875
-0.0025634765625
0.041046142578125
0.0076904296875
-0.108428955078125
-0.0029296875
0.1552734375
0.008056640625
-0.046142578125
-0.01025390625
-0.15966796875
0.0029296875
0.252349853515625
-0.0186767578125
-0.198150634765625
0.0296630859375
0.0816650390625
0.028564453125
-0.0238037109375
-0.035888671875
0.109893798828125
0.0091552734375
-0.161163330078125
-0.005126953125
0.0384521484375
0.0106201171875
0.144317626953125
-0.00146484375
-0.253082275390625
-0.0018310546875
0.1922607421875
0.005126953125
-0.0867919921875
-0.00146484375
0.040679931640625
0.0084228515625
-0.091949462890625
-0.002197265625
0.1629638671875
0.0106201171875
-0.050537109375
-0.0084228515625
-0.15234375
0.0040283203125
0.240631103515625
0.0018310546875
-0.206207275390625
-0.0040283203125
0.08056640625
0.008056640625
-0.035888671875
-0.0018310546875
0.105133056640625
0.00732421875
-0.145782470703125
-0.006591796875
0.056396484375
0.01171875
0.142852783203125
-0.002197265625
-0.247589111328125
-0.00146484375
0.1885986328125
0.0062255859375
-0.1025390625
-0.0087890625
0.0322265625
0.0054931640625
-0.093414306640625
0.0
0.160064697265625
0.0084228515625
-0.046142578125
-0.0091552734375
-0.1322021484375
0.0025634765625
0.243194580078125
-0.00146484375
-0.201080322265625
-0.02490234375
0.0809326171875
0.0296630859375
-0.0498046875
0.0146484375
0.095245361328125
-0.0194091796875
-0.150909423828125
-0.008056640625
0.05712890625
0.0106201171875
0.141021728515625
-0.002197265625
-0.230743408203125
0.0003662109375
0.19921875
0.0040283203125
-0.099609375
-0.0062255859375
0.0362548828125
0.0054931640625
-0.097442626953125
-0.0047607421875
0.145050048828125
0.006591796875
-0.056396484375
-0.010986328125
-0.129638671875
0.0025634765625
0.231475830078125
-0.000732421875
-0.201812744140625
-0.005126953125
0.0977783203125
0.0040283203125
-0.0406494140625
-0.0084228515625
0.090484619140625
0.0029296875
-0.149810791015625
-0.0098876953125
0.0509033203125
0.005126953125
0.123443603515625
-0.0069580078125
-0.231842041015625
-0.0029296875
0.20068359375
0.003662109375
-0.0908203125
-0.0054931640625
0.0501708984375
-0.00146484375
-0.087554931640625
-0.00439453125
0.149444580078125
0.0157470703125
-0.0596923828125
-0.00732421875
-0.1336669921875
0.002197265625
0.224884033203125
-0.0010986328125
-0.199615478515625
-0.005859375
0.106201171875
-0.013916015625
-0.0391845703125
0.027099609375
0.104766845703125
0.025634765625
-0.133697509765625
-0.0355224609375
0.06591796875
0.012451171875
0.125640869140625
-0.00146484375
-0.251617431640625
0.0003662109375
0.183837890625
0.0054931640625
-0.0985107421875
-0.005126953125
0.047607421875
0.003662109375
-0.087188720703125
-0.0025634765625
0.164825439453125
0.0135498046875
-0.0560302734375
-0.00439453125
-0.1270751953125
0.005126953125
0.227447509765625
-0.0003662109375
-0.209136962890625
-0.005859375
0.0933837890625
0.0029296875
-0.0421142578125
-0.0054931640625
0.099273681640625
0.00732421875
-0.144683837890625
-0.00439453125
0.0791015625
0.0106201171875
0.128936767578125
-0.003662109375
-0.240264892578125
-0.0003662109375
0.19482421875
0.005859375
-0.1058349609375
-0.0040283203125
0.0318603515625
0.0029296875
-0.090484619140625
-0.008056640625
0.161895751953125
0.0120849609375
-0.06591796875
-0.006591796875
-0.1146240234375
0.00146484375
0.238067626953125
0.00146484375
-0.206573486328125
-0.00439453125
0.101806640625
0.0040283203125
-0.0347900390625
-0.0172119140625
0.085723876953125
0.00439453125
-0.155670166015625
0.0025634765625
0.08349609375
0.0040283203125
0.117218017578125
-0.008056640625
-0.236602783203125
0.000732421875
0.2156982421875
0.0054931640625
-0.101806640625
-0.00439453125
0.036285400390625
0.0032958984375
-0.0816650390625
-0.00732421875
0.1552734375
0.00732421875
-0.089019775390625
-0.0069580078125
-0.1171875
0.0062255859375
0.231842041015625
0.0
-0.210601806640625
-0.0054931640625
0.1146240234375
0.0047607421875
-0.0303955078125
-0.00439453125
0.086456298828125
0.0047607421875
-0.152740478515625
-0.00732421875
0.082763671875
0.0098876953125
0.091949462890625
-0.0054931640625
-0.245025634765625
-0.0029296875
0.2113037109375
0.0040283203125
-0.109130859375
-0.005126953125
0.0421142578125
0.002197265625
-0.064453125
-0.0106201171875
0.161895751953125
0.006591796875
-0.090850830078125
-0.00146484375
-0.1080322265625
0.0076904296875
0.214996337890625
-0.00146484375
-0.223785400390625
-0.0069580078125
0.1138916015625
0.0025634765625
-0.029296875
-0.0252685546875
0.077667236328125
0.0325927734375
-0.138092041015625
0.01318359375
0.1007080078125
-0.0194091796875
0.078033447265625
-0.0029296875
-0.241363525390625
0.0040283203125
0.2061767578125
0.0069580078125
-0.1256103515625
-0.0040283203125
0.0384521484375
0.0018310546875
-0.0633544921875
-0.0076904296875
0.156402587890625
0.006591796875
-0.084625244140625
-0.00732421875
-0.08642578125
0.0054931640625
0.220123291015625
-0.000732421875
-0.220489501953125
-0.005126953125
0.113525390625
0.0025634765625
-0.0479736328125
-0.0054931640625
0.072174072265625
0.0040283203125
-0.136260986328125
-0.008056640625
0.097412109375
0.0076904296875
0.084259033203125
-0.0076904296875
-0.214630126953125
-0.00439453125
0.216796875
-0.0018310546875
-0.1248779296875
-0.00732421875
0.0399169921875
0.0069580078125
-0.07177734375
-0.0040283203125
0.145050048828125
0.003662109375
-0.095245361328125
-0.0120849609375
-0.08203125
0.009521484375
0.216827392578125
0.00439453125
-0.204010009765625
-0.0054931640625
0.1307373046875
0.0054931640625
-0.041748046875
-0.00439453125
0.076202392578125
0.003662109375
-0.138092041015625
-0.0281982421875
0.0860595703125
0.0311279296875
0.065948486328125
0.0146484375
-0.212799072265625
-0.0238037109375
0.2197265625
0.005859375
-0.11572265625
-0.00146484375
0.054229736328125
0.006591796875
-0.065185546875
-0.0018310546875
0.146484375
0.008056640625
-0.105499267578125
-0.0087890625
-0.0889892578125
0.005859375
0.206207275390625
0.0018310546875
-0.219024658203125
-0.00146484375
0.129638671875
0.0040283203125
-0.0362548828125
-0.0054931640625
0.086090087890625
0.0040283203125
-0.136627197265625
-0.0069580078125
0.09814453125
0.0091552734375
0.061920166015625
-0.0032958984375
-0.228912353515625
0.0025634765625
0.211669921875
0.003662109375
-0.126708984375
-0.006591796875
0.0531005859375
0.0032958984375
-0.05419921875
-0.005859375
0.159332275390625
0.00439453125
-0.106597900390625
-0.0087890625
-0.072509765625
0.003662109375
0.207672119140625
0.0025634765625
-0.232574462890625
-0.0018310546875
0.1263427734375
-0.0010986328125
-0.040283203125
-0.0062255859375
0.076202392578125
0.0003662109375
-0.140655517578125
-0.01025390625
0.119384765625
0.00439453125
0.064483642578125
-0.02197265625
-0.230377197265625
0.0263671875
0.2142333984375
0.021240234375
-0.1318359375
-0.0267333984375
0.0377197265625
0.0069580078125
-0.0589599609375
-0.0029296875
0.154937744140625
0.002197265625
-0.116485595703125
-0.0106201171875
-0.049072265625
0.002197265625
0.217559814453125
-0.0025634765625
-0.227447509765625
-0.00146484375
0.1292724609375
0.0069580078125
-0.052001953125
-0.0040283203125
0.057525634765625
0.0029296875
-0.142852783203125
-0.009521484375
0.1219482421875
0.005126953125
0.046905517578125
-0.0069580078125
-0.205108642578125
-0.0003662109375
0.2373046875
0.0018310546875
-0.1376953125
-0.0047607421875
0.048370361328125
0.0029296875
-0.0538330078125
-0.0054931640625
0.136962890625
0.0054931640625
-0.134063720703125
-0.0087890625
-0.04541015625
0.0062255859375
0.199249267578125
0.0
-0.234405517578125
-0.003662109375
0.15380859375
0.0076904296875
-0.0399169921875
-0.000732421875
0.055694580078125
0.005126953125
-0.137725830078125
-0.002197265625
0.12158203125
0.0076904296875
0.0146484375
-0.009521484375
-0.204010009765625
-0.0029296875
0.234039306640625
-0.0150146484375
-0.15234375
0.0194091796875
0.060791015625
0.0245361328125
-0.0413818359375
-0.01904296875
0.120147705078125
0.0135498046875
-0.145416259765625
0.00146484375
-0.0289306640625
0.0120849609375
0.177642822265625
-0.002197265625
-0.236602783203125
-0.0054931640625
0.158935546875
0.0029296875
-0.0472412109375
-0.003662109375
0.054595947265625
0.003662109375
-0.112823486328125
-0.0069580078125
0.1343994140625
0.00732421875
0.0018310546875
-0.0091552734375
-0.184967041015625
-0.0047607421875
0.223052978515625
-0.0032958984375
-0.1578369140625
-0.008056640625
0.068115234375
0.0029296875
-0.0362548828125
-0.0047607421875
0.119049072265625
0.0029296875
-0.126373291015625
-0.009521484375
0.0047607421875
0.0032958984375
0.167022705078125
-0.00439453125
-0.229278564453125
-0.0047607421875
0.1600341796875
-0.0025634765625
-0.0703125
-0.005126953125
0.042144775390625
0.0069580078125
-0.104034423828125
-0.006591796875
0.140625
0.002197265625
-0.0040283203125
-0.01171875
-0.158966064453125
0.00146484375
0.228179931640625
-0.0179443359375
-0.173583984375
0.022705078125
0.06884765625
0.0146484375
-0.0369873046875
-0.044677734375
0.112091064453125
-0.0029296875
-0.128936767578125
-0.01318359375
0.024169921875
0.0025634765625
0.161163330078125
-0.0040283203125
-0.221221923828125
-0.0018310546875
0.173583984375
0.003662109375
-0.0765380859375
-0.0029296875
0.039215087890625
0.0054931640625
-0.110595703125
-0.0062255859375
0.13916015625
0.003662109375
-0.024200439453125
-0.009521484375
-0.147216796875
-0.0010986328125
0.232208251953125
-0.000732421875
-0.167022705078125
-0.0040283203125
0.084991455078125
0.00146484375
-0.0384521484375
-0.0069580078125
0.103271484375
0.003662109375
-0.146881103515625
-0.00732421875
0.02490234375
0.0054931640625
0.142852783203125
-0.0069580078125
-0.223785400390625
-0.006591796875
0.1834716796875
-0.00146484375
-0.0699462890625
-0.0146484375
0.047637939453125
0.00146484375
-0.1007080078125
0.0025634765625
0.139892578125
0.009521484375
-0.046173095703125
-0.005859375
-0.1497802734375
0.0025634765625
0.224151611328125
-0.0003662109375
-0.173614501953125
-0.0201416015625
0.085723876953125
0.0142822265625
-0.03515625
0.01171875
0.109130859375
-0.0069580078125
-0.142852783203125
-0.008056640625
0.04248046875
0.00732421875
0.128936767578125
-0.003662109375
-0.238800048828125
-0.0032958984375
0.1787109375
-0.0010986328125
-0.08349609375
-0.008056640625
0.039215087890625
0.0032958984375
-0.09228515625
-0.000732421875
0.1563720703125
0.0113525390625
-0.051300048828125
-0.0087890625
-0.13330078125
-0.0025634765625
0.224517822265625
-0.0029296875
-0.194854736328125
-0.006591796875
0.083160400390625
0.0010986328125
-0.0369873046875
-0.00439453125
0.095947265625
0.0032958984375
-0.142120361328125
-0.0076904296875
0.069580078125
0.0076904296875
0.124908447265625
-0.0040283203125
-0.227081298828125
-0.00439453125
0.19189453125
-0.0018310546875
-0.0966796875
-0.006591796875
0.028228759765625
0.0018310546875
-0.08642578125
-0.0076904296875
0.1541748046875
0.0084228515625
-0.065948486328125
-0.008087158203125
-0.107666015625
0.0018310546875
0.230743408203125
0.001861572265625
-0.193023681640625
-0.006591796875
0.098907470703125
0.003662109375
-0.0362548828125
-0.0062255859375
0.069580078125
0.0032958984375
-0.157501220703125
0.01025390625
0.079833984375
0.013916015625
0.104034423828125
-0.0087890625
-0.223052978515625
0.003662109375
0.2109375
0.00732421875
-0.099609375
-0.00146484375
0.031890869140625
0.0029296875
-0.0743408203125
-0.0069580078125
0.1431884765625
0.0054931640625
-0.098175048828125
-0.0032958984375
-0.1007080078125
0.0087890625
0.218658447265625
0.003662109375
-0.199615478515625
0.0
0.123809814453125
0.006591796875
-0.0311279296875
0.0003662109375
0.060791015625
0.00732421875
-0.136627197265625
-0.00439453125
0.08203125
0.0087890625
0.070709228515625
-0.0010986328125
-0.213531494140625
0.00146484375
0.2017822265625
0.0025634765625
-0.104736328125
-0.0029296875
0.043975830078125
0.003662109375
-0.052001953125
-0.0047607421875
0.138427734375
-0.0003662109375
-0.101837158203125
-0.005859375
-0.076904296875
0.0113525390625
0.196319580078125
-0.002197265625
-0.208038330078125
-0.0091552734375
0.123809814453125
-0.0025634765625
-0.0318603515625
-0.005859375
0.06884765625
-0.012451171875
-0.125244140625
0.000732421875
0.099609375
0.022705078125
0.0574951171875
-0.0106201171875
-0.208404541015625
0.000732421875
0.19921875
0.00439453125
-0.1285400390625
-0.0025634765625
0.039581298828125
0.0032958984375
-0.0487060546875
-0.0040283203125
0.13623046875
0.003662109375
-0.097442626953125
-0.00732421875
-0.0494384765625
0.0084228515625
0.189361572265625
0.002197265625
-0.217926025390625
-0.002197265625
0.120147705078125
0.0047607421875
-0.052001953125
-0.0018310546875
0.047607421875
0.0047607421875
-0.119781494140625
-0.0054931640625
0.1146240234375
0.005126953125
0.047637939453125
-0.0069580078125
-0.185333251953125
0.002197265625
0.2083740234375
0.00439453125
-0.1343994140625
-0.002197265625
0.052032470703125
0.005126953125
-0.056396484375
-0.00439453125
0.131103515625
0.0018310546875
-0.121612548828125
-0.01318359375
-0.025634765625
0.0069580078125
0.199615478515625
0.0010986328125
-0.217193603515625
-0.0047607421875
0.157135009765625
0.005126953125
-0.0560302734375
-0.0010986328125
0.0523681640625
0.0047607421875
-0.13623046875
-0.022705078125
0.1182861328125
0.0245361328125
0.02783203125
0.00732421875
-0.1871337890625
-0.0179443359375
0.2303466796875
0.006591796875
-0.141021728515625
-0.0018310546875
0.056793212890625
0.005859375
-0.05419921875
0.002197265625
0.1201171875
0.0087890625
-0.134429931640625
-0.005859375
-0.0252685546875
0.01025390625
0.174713134765625
0.0032958984375
-0.223785400390625
-0.000732421875
0.154571533203125
0.005126953125
-0.05126953125
-0.0025634765625
0.0516357421875
0.0047607421875
-0.1182861328125
-0.0032958984375
0.1300048828125
0.008056640625
0.00146484375
-0.0047607421875
-0.1856689453125
0.0018310546875
0.22119140625
0.0018310546875
-0.151275634765625
-0.0025634765625
0.064483642578125
0.005126953125
-0.03369140625
-0.0010986328125
0.123779296875
0.00732421875
-0.130401611328125
-0.0076904296875
0.000732421875
0.0032958984375
0.160430908203125
0.0025634765625
-0.234405517578125
0.0040283203125
0.157135009765625
0.0029296875
-0.0545654296875
-0.0076904296875
0.0487060546875
0.0
-0.10107421875
-0.0054931640625
0.146484375
-0.005859375
-0.015380859375
0.0142822265625
-0.1673583984375
0.017578125
0.22265625
-0.016845703125
-0.170318603515625
-0.00439453125
0.058624267578125
0.0040283203125
-0.037353515625
-0.0029296875
0.110595703125
0.0047607421875
-0.134796142578125
-0.00732421875
0.029296875
0.005859375
0.154571533203125
-0.0010986328125
-0.230743408203125
0.0
0.163360595703125
0.0040283203125
-0.0750732421875
-0.00439453125
0.0263671875
0.0018310546875
-0.100341796875
-0.0054931640625
0.1461181640625
0.005859375
-0.032958984375
-0.005126953125
-0.1424560546875
0.005859375
0.2281494140625
0.0054931640625
-0.176177978515625
-0.0018310546875
0.069610595703125
0.0040283203125
-0.0347900390625
-0.00146484375
0.0867919921875
0.005126953125
-0.148712158203125
-0.00732421875
0.0406494140625
0.005126953125
0.136627197265625
-0.0047607421875
-0.225250244140625
0.0029296875
0.1812744140625
0.0062255859375
-0.0743408203125
-0.00439453125
0.030426025390625
0.003662109375
-0.087158203125
-0.008056640625
0.1387939453125
0.00146484375
-0.057159423828125
-0.0098876953125
-0.13037109375
-0.0172119140625
0.218292236328125
0.0281982421875
-0.178741455078125
0.0128173828125
0.096710205078125
-0.0267333984375
-0.0238037109375
-0.0032958984375
0.0845947265625
0.0040283203125
-0.139190673828125
-0.0054931640625
0.052734375
0.006591796875
0.108428955078125
-0.005859375
-0.224151611328125
-0.002197265625
0.1849365234375
0.00439453125
-0.085693359375
-0.0029296875
0.039947509765625
0.0025634765625
-0.0684814453125
-0.0047607421875
0.1424560546875
0.0069580078125
-0.068878173828125
-0.0062255859375
-0.116455078125
0.0032958984375
0.205841064453125
-0.000732421875
-0.197052001953125
-0.005859375
0.096710205078125
0.0040283203125
-0.0223388671875
0.0
0.087158203125
0.006591796875
-0.128570556640625
-0.0054931640625
0.0706787109375
0.0069580078125
0.100006103515625
-0.0032958984375
-0.217559814453125
-0.006591796875
0.1834716796875
0.0003662109375
-0.1036376953125
0.0029296875
0.037750244140625
0.0069580078125
-0.0615234375
-0.0047607421875
0.150146484375
0.003662109375
-0.0640869140625
-0.0091552734375
-0.0897216796875
-0.018310546875
0.2061767578125
0.02783203125
-0.201812744140625
0.0179443359375
0.102203369140625
-0.024169921875
-0.041015625
-0.003662109375
0.0758056640625
0.0032958984375
-0.1314697265625
-0.005859375
0.07763671875
0.0091552734375
0.100341796875
-0.0025634765625
-0.207305908203125
-0.0010986328125
0.192657470703125
0.003662109375
-0.1083984375
-0.0018310546875
0.03369140625
0.003662109375
-0.0758056640625
-0.0062255859375
0.1365966796875
0.0029296875
-0.078765869140625
-0.0091552734375
-0.0889892578125
0.002197265625
0.214630126953125
-0.000732421875
-0.190826416015625
-0.0040283203125
0.107696533203125
0.0029296875
-0.03955078125
-0.0040283203125
0.0684814453125
0.0032958984375
-0.146148681640625
-0.0047607421875
0.07470703125
0.0069580078125
0.082427978515625
-0.0054931640625
-0.209503173828125
-0.0003662109375
0.20068359375
0.003662109375
-0.0985107421875
-0.006591796875
0.045074462890625
0.0069580078125
-0.06884765625
0.0
0.135498046875
0.0047607421875
-0.095245361328125
-0.0047607421875
-0.090087890625
0.00146484375
0.206573486328125
-0.0040283203125
-0.198883056640625
-0.0025634765625
0.113555908203125
-0.010986328125
-0.034423828125
0.0267333984375
0.0736083984375
0.0223388671875
-0.1322021484375
-0.034423828125
0.088623046875
0.0069580078125
0.0736083984375
-0.0040283203125
-0.217926025390625
-0.0018310546875
0.1966552734375
0.0
-0.1080322265625
-0.00732421875
0.043975830078125
0.00146484375
-0.0552978515625
-0.0025634765625
0.14501953125
0.0062255859375
-0.095977783203125
-0.00732421875
-0.0758056640625
0.0047607421875
0.202545166015625
0.0003662109375
-0.215362548828125
-0.0040283203125
0.107330322265625
0.0029296875
-0.0362548828125
-0.0025634765625
0.0677490234375
0.003662109375
-0.13037109375
-0.005859375
0.107666015625
0.005126953125
0.069580078125
-0.0069580078125
-0.208038330078125
-0.0003662109375
0.2039794921875
0.003662109375
-0.1241455078125
-0.0018310546875
0.032623291015625
-0.0010986328125
-0.05712890625
-0.00439453125
0.13916015625
0.01171875
-0.101104736328125
-0.006591796875
-0.0560302734375
0.00439453125
0.204010009765625
-0.000732421875
-0.211700439453125
-0.0047607421875
0.121246337890625
-0.018310546875
-0.046875
0.0069580078125
0.0439453125
0.019775390625
-0.1307373046875
-0.02197265625
0.107666015625
0.006591796875
0.0556640625
-0.0025634765625
-0.196319580078125
0.0029296875
0.2120361328125
0.0054931640625
-0.1219482421875
-0.0040283203125
0.038116455078125
0.0010986328125
-0.0531005859375
-0.0018310546875
0.1241455078125
0.00732421875
-0.114288330078125
-0.005859375
-0.0498046875
0.00439453125
0.192657470703125
-0.0018310546875
-0.206573486328125
-0.0025634765625
0.141754150390625
0.00439453125
-0.037353515625
-0.00146484375
0.0531005859375
0.0040283203125
-0.13037109375
-0.0062255859375
0.10400390625
0.0069580078125
0.0380859375
-0.005126953125
-0.197418212890625
0.0010986328125
0.2164306640625
0.0047607421875
-0.1278076171875
-0.0029296875
0.051300048828125
0.0032958984375
-0.0384521484375
-0.008056640625
0.125244140625
0.0047607421875
-0.120513916015625
-0.000732421875
-0.046142578125
0.006591796875
0.179107666015625
-0.00146484375
-0.215728759765625
-0.00439453125
0.133697509765625
0.0025634765625
-0.034423828125
-0.02490234375
0.0556640625
0.022705078125
-0.11865234375
0.0146484375
0.1190185546875
-0.0164794921875
0.0296630859375
-0.0069580078125
-0.191558837890625
0.00146484375
0.2021484375
0.0032958984375
-0.13916015625
-0.0025634765625
0.050933837890625
0.0047607421875
-0.0406494140625
-0.002197265625
0.1365966796875
0.0076904296875
-0.1029052734375
-0.0010986328125
-0.0333251953125
0.008056640625
0.1783447265625
-0.0029296875
-0.217193603515625
-0.0054931640625
0.129302978515625
0.0018310546875
-0.05419921875
-0.00439453125
0.0501708984375
0.0029296875
-0.1160888671875
-0.003662109375
0.1197509765625
0.0087890625
0.03662109375
-0.0047607421875
-0.1783447265625
0.0010986328125
0.210205078125
0.0029296875
-0.141021728515625
-0.0029296875
0.046173095703125
0.003662109375
-0.052734375
-0.005859375
0.122314453125
-0.002197265625
-0.115020751953125
-0.005859375
-0.0281982421875
0.0142822265625
0.186431884765625
0.0003662109375
-0.207672119140625
-0.0040283203125
0.138458251953125
0.0025634765625
-0.0545654296875
-0.0040283203125
0.05126953125
-0.0113525390625
-0.1278076171875
0.00732421875
0.1138916015625
0.0230712890625
0.0303955078125
-0.018310546875
-0.1787109375
-0.00146484375
0.2208251953125
0.0032958984375
-0.131134033203125
-0.002197265625
0.053497314453125
0.00439453125
-0.050537109375
-0.0029296875
0.1171875
0.0029296875
-0.130767822265625
-0.0091552734375
-0.0311279296875
0.005859375
0.176910400390625
0.0
-0.213165283203125
-0.003662109375
0.143585205078125
0.00146484375
-0.0439453125
-0.005126953125
0.0516357421875
0.0032958984375
-0.1190185546875
-0.00439453125
0.1212158203125
0.006591796875
0.0098876953125
-0.005126953125
-0.186767578125
0.0010986328125
0.2138671875
0.000732421875
-0.139923095703125
-0.005126953125
0.055694580078125
0.0025634765625
-0.034423828125
-0.0025634765625
0.1241455078125
0.005126953125
-0.128936767578125
-0.006591796875
-0.0164794921875
0.005126953125
0.168487548828125
0.0
-0.227447509765625
-0.0025634765625
0.140655517578125
0.0029296875
-0.052734375
-0.00146484375
0.0487060546875
0.0018310546875
-0.0999755859375
-0.005126953125
0.1387939453125
0.0076904296875
0.0062255859375
-0.0230712890625
-0.182373046875
0.03369140625
0.210205078125
0.016845703125
-0.153839111328125
-0.0413818359375
0.048370361328125
0.0018310546875
-0.0369873046875
-0.0010986328125
0.116455078125
0.006591796875
-0.127838134765625
-0.006591796875
0.0062255859375
0.0047607421875
0.169952392578125
-0.00146484375
-0.223785400390625
-0.0010986328125
0.145416259765625
0.005859375
-0.065185546875
-0.000732421875
0.0303955078125
0.00439453125
-0.107666015625
-0.005126953125
0.1358642578125
0.005859375
-0.00439453125
-0.0047607421875
-0.1556396484375
0.0029296875
0.2197265625
0.00439453125
-0.161895751953125
-0.0010986328125
0.053863525390625
0.005126953125
-0.0380859375
-0.0018310546875
0.09521484375
0.0040283203125
-0.139190673828125
-0.00732421875
0.0128173828125
0.005126953125
0.160430908203125
-0.006591796875
-0.210968017578125
-0.0040283203125
0.161529541015625
0.0098876953125
-0.06591796875
-0.0010986328125
0.02783203125
0.0010986328125
-0.099609375
-0.005859375
0.12744140625
0.0040283203125
-0.01611328125
-0.0267333984375
-0.1541748046875
0.0296630859375
0.2156982421875
0.0216064453125
-0.152374267578125
-0.0322265625
0.069244384765625
0.0047607421875
-0.030029296875
0.0018310546875
0.094482421875
0.0069580078125
-0.135894775390625
-0.005859375
0.0128173828125
0.005126953125
0.139190673828125
-0.0032958984375
-0.216094970703125
-0.002197265625
0.1629638671875
0.0040283203125
-0.0677490234375
-0.0029296875
0.042510986328125
0.002197265625
-0.0853271484375
-0.005126953125
0.1318359375
0.0054931640625
-0.0281982421875
-0.0054931640625
-0.146484375
0.003662109375
0.2054443359375
0.0003662109375
-0.166290283203125
-0.006591796875
0.075103759765625
0.0018310546875
-0.0281982421875
-0.0032958984375
0.1036376953125
0.0047607421875
-0.124176025390625
-0.0054931640625
0.0322265625
0.005126953125
0.136627197265625
-0.0087890625
-0.216094970703125
-0.00439453125
0.157867431640625
0.009521484375
-0.0791015625
-0.0010986328125
0.040283203125
0.0010986328125
-0.084228515625
-0.0054931640625
0.142822265625
0.005859375
-0.0201416015625
-0.0263671875
-0.1365966796875
0.032958984375
0.2080078125
0.02197265625
-0.165924072265625
-0.0347900390625
0.069976806640625
0.0040283203125
-0.0384521484375
-0.00146484375
0.09375
0.0047607421875
-0.132232666015625
-0.005126953125
0.043212890625
0.0054931640625
0.137725830078125
-0.003662109375
-0.212799072265625
-0.000732421875
0.167022705078125
0.00732421875
-0.084228515625
-0.000732421875
0.031494140625
0.0010986328125
-0.091552734375
-0.008056640625
0.136962890625
0.0010986328125
-0.041015625
-0.0087890625
-0.125244140625
0.0025634765625
0.2197265625
0.0029296875
-0.170318603515625
-0.0010986328125
0.081329345703125
0.0047607421875
-0.0325927734375
-0.0032958984375
0.0849609375
0.0040283203125
-0.148712158203125
-0.005859375
0.0457763671875
0.005126953125
0.128936767578125
-0.0062255859375
-0.203277587890625
-0.0076904296875
0.188262939453125
-0.0032958984375
-0.0772705078125
-0.00439453125
0.03662109375
0.005859375
-0.087890625
-0.000732421875
0.140625
0.00732421875
-0.063720703125
-0.0091552734375
-0.1241455078125
0.0
0.2178955078125
0.0003662109375
-0.181671142578125
-0.0216064453125
0.088653564453125
0.0281982421875
-0.0267333984375
0.013916015625
0.094482421875
-0.0234375
-0.1490478515625
-0.005126953125
0.06298828125
0.0084228515625
0.1065673828125
-0.0029296875
-0.234771728515625
-0.0003662109375
0.190460205078125
0.00146484375
-0.093017578125
-0.0062255859375
0.040283203125
0.00439453125
-0.0736083984375
-0.0010986328125
0.158935546875
0.008056640625
-0.076904296875
-0.0062255859375
-0.117919921875
0.000732421875
0.2237548828125
-0.0032958984375
-0.211334228515625
-0.005126953125
0.095611572265625
0.003662109375
-0.03076171875
-0.002197265625
0.0845947265625
0.00439453125
-0.13916015625
-0.0062255859375
0.0838623046875
0.006591796875
0.1036376953125
-0.0040283203125
-0.229644775390625
-0.002197265625
0.194122314453125
0.0018310546875
-0.112060546875
-0.0032958984375
0.0260009765625
-0.0003662109375
-0.0670166015625
-0.00439453125
0.1453857421875
0.013916015625
-0.0787353515625
-0.0025634765625
-0.087890625
0.003662109375
0.2156982421875
0.0003662109375
-0.201446533203125
-0.00439453125
0.099273681640625
-0.015380859375
-0.046142578125
0.02783203125
0.0589599609375
0.0216064453125
-0.129638671875
-0.037353515625
0.087158203125
0.00732421875
0.0838623046875
-0.002197265625
-0.204376220703125
0.0003662109375
0.200347900390625
0.0025634765625
-0.1083984375
-0.003662109375
0.0296630859375
0.0040283203125
-0.065185546875
-0.002197265625
0.126708984375
0.0084228515625
-0.094879150390625
-0.0047607421875
-0.0765380859375
0.00439453125
0.203277587890625
0.000732421875
-0.194122314453125
-0.0032958984375
0.117584228515625
0.00439453125
-0.034423828125
-0.0010986328125
0.054931640625
0.0054931640625
-0.1343994140625
-0.0040283203125
0.0845947265625
0.00732421875
0.05859375
-0.0029296875
-0.201080322265625
0.0003662109375
0.202880859375
0.002197265625
-0.1116943359375
-0.0040283203125
0.046173095703125
0.0032958984375
-0.0479736328125
-0.008056640625
0.1314697265625
0.0040283203125
-0.102569580078125
-0.0025634765625
-0.0673828125
0.0040283203125
0.189727783203125
-0.0003662109375
-0.204010009765625
-0.0040283203125
0.126373291015625
0.000732421875
-0.031494140625
-0.0142822265625
0.0648193359375
0.0029296875
-0.1212158203125
0.0076904296875
0.1051025390625
0.0087890625
0.04833984375
-0.003662109375
-0.198516845703125
0.0040283203125
0.1973876953125
0.003662109375
-0.1285400390625
-0.0054931640625
0.046539306640625
0.000732421875
-0.0443115234375
-0.0047607421875
0.1365966796875
0.005859375
-0.1051025390625
-0.0029296875
-0.04541015625
0.0084228515625
0.1845703125
0.0003662109375
-0.213165283203125
-0.003662109375
0.120513916015625
0.000732421875
-0.0487060546875
-0.0069580078125
0.0567626953125
0.0003662109375
-0.1153564453125
-0.0054931640625
0.1204833984375
0.0069580078125
0.0428466796875
-0.0040283203125
-0.1827392578125
0.00146484375
0.205810546875
0.0032958984375
-0.137725830078125
-0.00146484375
0.041412353515625
0.003662109375
-0.050537109375
-0.0054931640625
0.123046875
0.0018310546875
-0.114654541015625
-0.009521484375
-0.0234375
0.0010986328125
0.188629150390625
0.0018310546875
-0.209136962890625
0.000732421875
0.134429931640625
0.00146484375
-0.050537109375
-0.003662109375
0.0435791015625
0.0003662109375
-0.122314453125
-0.0098876953125
0.125244140625
-0.0150146484375
0.0146484375
0.0120849609375
-0.1790771484375
0.0194091796875
0.224853515625
-0.016845703125
-0.136260986328125
-0.0032958984375
0.052764892578125
0.0062255859375
-0.0439453125
-0.00146484375
0.113525390625
0.0047607421875
-0.135894775390625
-0.0084228515625
-0.0157470703125
0.0025634765625
0.173248291015625
-0.0029296875
-0.216094970703125
-0.002197265625
0.148712158203125
0.0047607421875
-0.046875
-0.0018310546875
0.0428466796875
0.005126953125
-0.1142578125
-0.00439453125
0.128173828125
0.0062255859375
-0.0087890625
-0.0032958984375
-0.1768798828125
0.0025634765625
0.2142333984375
0.0010986328125
-0.148712158203125
-0.00439453125
0.062286376953125
0.0047607421875
-0.0267333984375
0.0
0.113525390625
0.005859375
-0.136627197265625
-0.005859375
0.003662109375
0.0047607421875
0.152740478515625
-0.00439453125
-0.229278564453125
0.0018310546875
0.150543212890625
0.0087890625
-0.057861328125
-0.0025634765625
0.041015625
0.0029296875
-0.0926513671875
-0.0040283203125
0.140625
0.0076904296875
-0.0208740234375
-0.017578125
-0.16259765625
0.0201416015625
0.21240234375
0.013916015625
-0.167388916015625
-0.0238037109375
0.061187744140625
0.0029296875
-0.0274658203125
-0.000732421875
0.1021728515625
0.0047607421875
-0.131500244140625
-0.005859375
0.03076171875
0.00732421875
0.145416259765625
-0.0010986328125
-0.222686767578125
0.000732421875
0.159332275390625
0.006591796875
-0.076171875
-0.0032958984375
0.0267333984375
0.0018310546875
-0.0875244140625
-0.0047607421875
0.14208984375
0.006591796875
-0.0325927734375
-0.005126953125
-0.1322021484375
0.0032958984375
0.2186279296875
0.0032958984375
-0.168487548828125
-0.0025634765625
0.071075439453125
0.002197265625
-0.03515625
-0.0047607421875
0.0823974609375
0.002197265625
-0.138824462890625
-0.0069580078125
0.0443115234375
0.0054931640625
0.127105712890625
-0.0047607421875
-0.208404541015625
-0.0062255859375
0.178741455078125
0.00439453125
-0.075439453125
-0.00146484375
0.0347900390625
-0.0018310546875
-0.08056640625
-0.0087890625
0.1307373046875
0.002197265625
-0.0560302734375
-0.00732421875
-0.1175537109375
-0.01611328125
0.2120361328125
0.022705078125
-0.168487548828125
0.0142822265625
0.096710205078125
-0.01904296875
-0.02783203125
-0.0018310546875
0.0791015625
0.0047607421875
-0.1376953125
-0.0040283203125
0.0501708984375
0.00732421875
0.1043701171875
-0.00439453125
-0.210968017578125
-0.002197265625
0.184600830078125
0.005126953125
-0.08642578125
0.000732421875
0.03955078125
0.006591796875
-0.0684814453125
-0.0025634765625
0.1365966796875
0.005859375
-0.0706787109375
-0.005859375
-0.112060546875
0.0032958984375
0.2039794921875
0.0003662109375
-0.186065673828125
-0.0032958984375
0.098175048828125
0.0032958984375
-0.02783203125
-0.0040283203125
0.081298828125
0.0032958984375
-0.1318359375
-0.0047607421875
0.0706787109375
0.0084228515625
0.0919189453125
-0.0010986328125
-0.216094970703125
0.0010986328125
0.181671142578125
-0.0018310546875
-0.1021728515625
-0.0032958984375
0.0369873046875
0.0106201171875
-0.0640869140625
-0.00146484375
0.147216796875
0.005859375
-0.0714111328125
-0.00732421875
-0.0919189453125
0.00146484375
0.210205078125
-0.018310546875
-0.198883056640625
0.0106201171875
0.088653564453125
0.0186767578125
-0.03662109375
-0.0205078125
0.0721435546875
0.002197265625
-0.1322021484375
-0.003662109375
0.087158203125
0.008056640625
0.090087890625
-0.0029296875
-0.205841064453125
0.00146484375
0.190093994140625
0.0032958984375
-0.111328125
-0.0032958984375
0.0263671875
0.005126953125
-0.0706787109375
-0.00146484375
0.1376953125
0.005126953125
-0.0908203125
-0.008056640625
-0.0758056640625
0.0025634765625
0.2138671875
-0.0003662109375
-0.195953369140625
-0.00146484375
0.107696533203125
0.0054931640625
-0.0399169921875
-0.002197265625
0.0611572265625
0.0040283203125
-0.1453857421875
-0.005859375
0.0933837890625
0.005859375
0.0732421875
-0.00439453125
-0.204376220703125
0.0003662109375
0.212066650390625
0.0025634765625
-0.1087646484375
-0.00439453125
0.040283203125
-0.00146484375
-0.0596923828125
-0.0054931640625
0.1322021484375
0.0113525390625
-0.110992431640625
-0.0047607421875
-0.066650390625
0.0003662109375
0.206207275390625
-0.00439453125
-0.203277587890625
-0.0047607421875
0.126007080078125
-0.015380859375
-0.0355224609375
0.0281982421875
0.057861328125
0.021240234375
-0.126708984375
-0.038818359375
0.1014404296875
0.006591796875
0.041748046875
-0.002197265625
-0.205474853515625
0.0010986328125
0.204345703125
0.0025634765625
-0.123779296875
-0.003662109375
0.043243408203125
0.0029296875
-0.041015625
-0.002197265625
0.13330078125
0.0076904296875
-0.118316650390625
-0.005126953125
-0.0516357421875
0.00439453125
0.184967041015625
-0.0040283203125
-0.220855712890625
-0.00732421875
0.123077392578125
0.00146484375
-0.0380859375
-0.0040283203125
0.0494384765625
0.0025634765625
-0.11572265625
-0.0047607421875
0.123046875
0.00732421875
0.0340576171875
-0.0040283203125
-0.193756103515625
0.0018310546875
0.2061767578125
0.003662109375
-0.13916015625
-0.00439453125
0.038116455078125
0.0010986328125
-0.0380859375
-0.006591796875
0.12744140625
-0.000732421875
-0.113922119140625
-0.00439453125
-0.0234375
0.0113525390625
0.185333251953125
0.002197265625
-0.216461181640625
-0.0025634765625
0.130767822265625
0.00146484375
-0.052001953125
-0.0054931640625
0.0377197265625
-0.017578125
-0.114990234375
0.01318359375
0.1263427734375
0.02197265625
0.027099609375
-0.0263671875
-0.177978515625
0.002197265625
0.2069091796875
0.0047607421875
-0.143585205078125
-0.002197265625
0.046173095703125
0.0029296875
-0.044677734375
-0.00439453125
0.1087646484375
0.00439453125
-0.124542236328125
-0.005126953125
-0.01171875
0.006591796875
0.175079345703125
0.0
-0.206573486328125
-0.0029296875
0.148712158203125
0.003662109375
-0.0538330078125
-0.002197265625
0.0369873046875
0.0025634765625
-0.112060546875
-0.005126953125
0.11865234375
0.0069580078125
0.005126953125
-0.00439453125
-0.1651611328125
0.0
0.2186279296875
0.0003662109375
-0.139923095703125
-0.003662109375
0.065216064453125
0.005126953125
-0.0322265625
-0.002197265625
0.11279296875
0.0010986328125
-0.128204345703125
-0.008056640625
-0.0142822265625
0.009521484375
0.160430908203125
0.00146484375
-0.213165283203125
-0.003662109375
0.153839111328125
0.00146484375
-0.050537109375
-0.00439453125
0.0538330078125
-0.002197265625
-0.1036376953125
-0.0113525390625
0.12451171875
0.0186767578125
-0.0010986328125
0.0003662109375
-0.1724853515625
-0.00732421875
0.207275390625
0.0029296875
-0.152740478515625
-0.00146484375
0.064117431640625
0.00439453125
-0.0318603515625
-0.00439453125
0.11865234375
0.0025634765625
-0.123046875
-0.00732421875
0.0003662109375
0.0076904296875
0.15380859375
0.0018310546875
-0.221954345703125
-0.000732421875
0.144683837890625
0.003662109375
-0.063720703125
-0.0047607421875
0.0421142578125
0.0029296875
-0.1025390625
-0.0018310546875
0.139892578125
0.0087890625
-0.0025634765625
-0.00439453125
-0.1563720703125
0.00146484375
0.2197265625
-0.00146484375
-0.151275634765625
-0.0084228515625
0.057525634765625
-0.0003662109375
-0.0413818359375
-0.005126953125
0.109130859375
0.00439453125
-0.1322021484375
-0.0054931640625
0.0157470703125
0.0018310546875
0.158935546875
0.00146484375
-0.220489501953125
0.006591796875
0.154571533203125
0.0040283203125
-0.0677490234375
-0.0025634765625
0.0303955078125
0.0040283203125
-0.1025390625
-0.0054931640625
0.1424560546875
-0.0062255859375
-0.0201416015625
-0.00439453125
-0.1541748046875
0.0128173828125
0.2259521484375
-0.0018310546875
-0.168487548828125
-0.00439453125
0.050567626953125
0.005859375
-0.0399169921875
-0.0003662109375
0.09375
0.005126953125
-0.147979736328125
-0.0069580078125
0.0205078125
0.0040283203125
0.147613525390625
-0.0029296875
-0.218292236328125
-0.00146484375
0.169586181640625
0.00439453125
-0.06298828125
-0.0018310546875
0.034423828125
0.0040283203125
-0.095947265625
-0.0040283203125
0.1380615234375
0.006591796875
-0.040283203125
-0.0054931640625
-0.151611328125
0.0025634765625
0.216796875
0.003662109375
-0.164459228515625
-0.002197265625
0.076202392578125
0.0029296875
-0.0230712890625
-0.00146484375
0.099609375
0.0062255859375
-0.140655517578125
-0.00439453125
0.031494140625
0.00732421875
0.127838134765625
-0.0047607421875
-0.231842041015625
-0.0018310546875
0.1651611328125
0.0076904296875
-0.066650390625
-0.0029296875
0.035186767578125
0.0032958984375
-0.079833984375
-0.0025634765625
0.144287109375
0.005859375
-0.043212890625
-0.0069580078125
-0.1424560546875
-0.009521484375
0.2025146484375
0.02197265625
-0.177642822265625
0.0098876953125
0.076202392578125
-0.016845703125
-0.025634765625
-0.003662109375
0.0919189453125
0.005126953125
-0.124542236328125
-0.005859375
0.049072265625
0.005126953125
0.124176025390625
-0.00439453125
-0.219757080078125
-0.0010986328125
0.1666259765625
0.0062255859375
-0.0853271484375
-0.000732421875
0.029693603515625
0.003662109375
-0.0780029296875
-0.0040283203125
0.1365966796875
0.0047607421875
-0.0439453125
-0.0087890625
-0.1160888671875
0.00146484375
0.2138671875
0.00146484375
-0.175811767578125
-0.0029296875
0.081695556640625
0.0047607421875
-0.032958984375
-0.0029296875
0.0809326171875
0.0010986328125
-0.130767822265625
-0.0084228515625
0.0552978515625
0.0040283203125
0.127105712890625
-0.005859375
-0.198516845703125
-0.0040283203125
0.180206298828125
-0.0029296875
-0.085693359375
-0.003662109375
0.0311279296875
0.0087890625
-0.081298828125
-0.0029296875
0.1307373046875
0.0029296875
-0.0556640625
-0.008056640625
-0.11279296875
0.005126953125
0.2193603515625
-0.016845703125
-0.172149658203125
0.0230712890625
0.089019775390625
0.0179443359375
-0.02783203125
-0.0377197265625
0.0802001953125
0.0003662109375
-0.13623046875
-0.0054931640625
0.0435791015625
0.0069580078125
0.1083984375
-0.002197265625
-0.207672119140625
-0.0018310546875
0.179473876953125
0.000732421875
-0.0809326171875
-0.0032958984375
0.04248046875
0.005859375
-0.073974609375
-0.0032958984375
0.1329345703125
0.005126953125
-0.060791015625
-0.0062255859375
-0.1248779296875
0.0032958984375
0.2010498046875
0.00146484375
-0.175811767578125
-0.0040283203125
0.090484619140625
0.0040283203125
-0.03076171875
0.0
0.08935546875
0.0069580078125
-0.1318359375
-0.0032958984375
0.053466796875
0.0087890625
0.1043701171875
0.0
-0.219757080078125
0.0010986328125
0.172515869140625
0.0040283203125
-0.0897216796875
-0.0040283203125
0.0399169921875
0.0003662109375
-0.0728759765625
0.000732421875
0.1446533203125
0.0142822265625
-0.054931640625
-0.003662109375
-0.111328125
0.0018310546875
0.2061767578125
-0.0010986328125
-0.186431884765625
-0.0032958984375
0.082794189453125
-0.015380859375
-0.0380859375
0.01904296875
0.0831298828125
0.01904296875
-0.1270751953125
-0.0333251953125
0.06884765625
0.005859375
0.1087646484375
0.0
-0.212066650390625
0.00146484375
0.178375244140625
0.003662109375
-0.09375
-0.0047607421875
0.027099609375
0.0003662109375
-0.0787353515625
-0.005126953125
0.140625
0.005859375
-0.066650390625
-0.0069580078125
-0.1007080078125
0.00146484375
0.217529296875
-0.0018310546875
-0.181671142578125
-0.0054931640625
0.090118408203125
0.00439453125
-0.0355224609375
-0.00146484375
0.0692138671875
0.0047607421875
-0.1424560546875
-0.0047607421875
0.06884765625
0.006591796875
0.0992431640625
-0.003662109375
-0.209869384765625
-0.0010986328125
0.193389892578125
0.0047607421875
-0.088623046875
-0.0018310546875
0.0303955078125
0.003662109375
-0.069580078125
-0.0069580078125
0.1314697265625
0.008056640625
-0.0860595703125
0.0003662109375
-0.098876953125
0.0040283203125
0.2083740234375
0.00146484375
-0.186065673828125
-0.002197265625
0.103302001953125
0.0032958984375
-0.0205078125
-0.012451171875
0.0662841796875
0.0018310546875
-0.140625
0.0076904296875
0.0743408203125
0.0098876953125
0.076171875
-0.006591796875
-0.213531494140625
0.0
0.19189453125
0.0054931640625
-0.0926513671875
-0.002197265625
0.035552978515625
0.0032958984375
-0.056396484375
-0.0032958984375
0.1358642578125
0.005859375
-0.0860595703125
-0.005126953125
-0.087890625
0.00439453125
0.192626953125
0.0
-0.200714111328125
-0.003662109375
0.100006103515625
0.003662109375
-0.027099609375
-0.0025634765625
0.066650390625
0.0029296875
-0.120849609375
-0.00439453125
0.0875244140625
0.0087890625
0.0684814453125
-0.0025634765625
-0.206939697265625
0.000732421875
0.183837890625
0.0047607421875
-0.116455078125
-0.002197265625
0.030792236328125
0.0029296875
-0.052001953125
-0.0084228515625
0.13330078125
0.0040283203125
-0.0823974609375
0.000732421875
-0.066650390625
0.006591796875
0.1951904296875
-0.00146484375
-0.195953369140625
-0.0062255859375
0.108428955078125
-0.0003662109375
-0.038818359375
-0.012451171875
0.0538330078125
-0.005859375
-0.1234130859375
0.0040283203125
0.095947265625
0.0113525390625
0.0703125
-0.0084228515625
-0.190826416015625
0.0018310546875
0.19775390625
0.005859375
-0.1116943359375
-0.000732421875
0.036285400390625
0.003662109375
-0.0604248046875
-0.0047607421875
0.125244140625
0.0025634765625
-0.091949462890625
-0.0076904296875
-0.063720703125
0.00439453125
0.197052001953125
-0.000732421875
-0.187530517578125
-0.0047607421875
0.119415283203125
0.000732421875
-0.0391845703125
-0.00439453125
0.0582275390625
0.003662109375
-0.1278076171875
-0.0054931640625
0.088623046875
0.0054931640625
0.05859375
-0.005126953125
-0.190826416015625
-0.00146484375
0.2025146484375
0.002197265625
-0.1043701171875
-0.003662109375
0.046539306640625
0.0025634765625
-0.056396484375
-0.0040283203125
0.1259765625
0.0010986328125
-0.099609375
-0.0087890625
-0.0684814453125
0.0076904296875
0.1871337890625
0.002197265625
-0.196319580078125
-0.00439453125
0.120513916015625
0.0029296875
-0.0325927734375
-0.0029296875
0.0670166015625
0.0010986328125
-0.125244140625
-0.012451171875
0.0919189453125
0.021240234375
0.0516357421875
0.005126953125
-0.201812744140625
-0.01171875
0.1981201171875
0.003662109375
-0.1124267578125
-0.00146484375
0.041046142578125
0.0047607421875
-0.0531005859375
-0.0029296875
0.136962890625
0.0040283203125
-0.0970458984375
-0.0062255859375
-0.060791015625
0.006591796875
0.1871337890625
0.002197265625
-0.207305908203125
-0.003662109375
0.111724853515625
0.000732421875
-0.0399169921875
-0.005859375
0.0611572265625
0.0010986328125
-0.120849609375
-0.005859375
0.1102294921875
0.005859375
0.05712890625
-0.003662109375
-0.1944580078125
0.0003662109375
0.198516845703125
0.0010986328125
-0.121978759765625
-0.0047607421875
0.0311279296875
0.0010986328125
-0.0556640625
-0.0047607421875
0.1212158203125
0.01025390625
-0.116485595703125
0.0003662109375
-0.0479736328125
0.0010986328125
0.197784423828125
-0.0010986328125
-0.204010009765625
0.005126953125
0.116851806640625
0.0069580078125
-0.0406494140625
-0.00439453125
0.0457763671875
0.0018310546875
-0.129638671875
-0.0047607421875
0.1142578125
-0.01171875
0.04541015625
0.0205078125
-0.191925048828125
0.0201416015625
0.21826171875
-0.02197265625
-0.11572265625
-0.003662109375
0.039581298828125
0.005126953125
-0.047607421875
-0.0025634765625
0.1204833984375
0.00439453125
-0.119415283203125
-0.00732421875
-0.0435791015625
0.0047607421875
0.193023681640625
0.0025634765625
-0.208770751953125
0.0010986328125
0.129669189453125
0.005859375
-0.03369140625
-0.0032958984375
0.046875
0.0025634765625
-0.12451171875
-0.006591796875
0.1072998046875
0.0047607421875
0.030029296875
-0.005126953125
-0.192291259765625
0.0010986328125
0.2109375
0.0032958984375
-0.1226806640625
-0.0040283203125
0.049102783203125
0.0040283203125
-0.0355224609375
-0.0003662109375
0.1234130859375
0.0076904296875
-0.1160888671875
-0.005859375
-0.041748046875
0.0029296875
0.176513671875
-0.0069580078125
-0.212432861328125
-0.0025634765625
0.127838134765625
0.0087890625
-0.037353515625
-0.0047607421875
0.0516357421875
0.00146484375
-0.1080322265625
-0.005859375
0.1142578125
0.0047607421875
0.032958984375
-0.017578125
-0.1875
0.000732421875
0.193359375
0.013916015625
-0.131134033203125
-0.008056640625
0.043975830078125
-0.000732421875
-0.03955078125
-0.00146484375
0.122314453125
0.005859375
-0.10107421875
-0.0062255859375
-0.0252685546875
0.0040283203125
0.17431640625
-0.0029296875
-0.208770751953125
-0.0040283203125
0.123077392578125
0.00439453125
-0.0523681640625
-0.0029296875
0.0439453125
0.00146484375
-0.109130859375
-0.006591796875
0.116455078125
0.00439453125
0.03515625
-0.005126953125
-0.1717529296875
0.00146484375
0.2017822265625
0.0025634765625
-0.135162353515625
-0.0040283203125
0.042510986328125
0.003662109375
-0.0494384765625
-0.0029296875
0.1102294921875
0.003662109375
-0.1116943359375
-0.0062255859375
-0.0267333984375
0.0047607421875
0.1787109375
-0.0018310546875
-0.194854736328125
-0.0084228515625
0.132232666015625
0.0
-0.0501708984375
0.0003662109375
0.0450439453125
0.0010986328125
-0.1171875
-0.0106201171875
0.1087646484375
0.0018310546875
0.0274658203125
-0.0054931640625
-0.1695556640625
-0.0164794921875
0.199951171875
0.03076171875
-0.125274658203125
0.0150146484375
0.057525634765625
-0.02490234375
-0.046875
-0.00146484375
0.11572265625
0.00732421875
-0.11865234375
-0.003662109375
-0.035888671875
0.005859375
0.1739501953125
-0.000732421875
-0.201446533203125
-0.0018310546875
0.133331298828125
0.005126953125
-0.0399169921875
0.0
0.052734375
0.006591796875
-0.11572265625
-0.0018310546875
0.113525390625
0.00732421875
0.0245361328125
-0.00439453125
-0.18603515625
0.000732421875
0.199951171875
0.0025634765625
-0.129669189453125
-0.0032958984375
0.050567626953125
0.0029296875
-0.037353515625
-0.002197265625
0.1285400390625
0.0069580078125
-0.1131591796875
-0.0040283203125
-0.0325927734375
0.005126953125
0.1754150390625
-0.000732421875
-0.215362548828125
-0.0029296875
0.123443603515625
0.0018310546875
-0.043212890625
-0.0091552734375
0.0523681640625
0.000732421875
-0.112060546875
0.0018310546875
0.12451171875
0.0091552734375
0.034423828125
-0.006591796875
-0.180908203125
-0.0032958984375
0.205108642578125
-0.00146484375
-0.131866455078125
-0.0238037109375
0.0318603515625
0.030029296875
-0.04833984375
0.0146484375
0.1314697265625
-0.02490234375
-0.111328125
-0.0069580078125
-0.022705078125
0.0062255859375
0.1849365234375
0.0025634765625
-0.208770751953125
0.0
0.127838134765625
0.0032958984375
-0.0472412109375
-0.0032958984375
0.0377197265625
0.0047607421875
-0.122314453125
-0.002197265625
0.1182861328125
0.00732421875
0.030029296875
-0.0047607421875
-0.1768798828125
-0.0003662109375
0.213531494140625
0.0018310546875
-0.131134033203125
-0.0029296875
0.040283203125
0.003662109375
-0.0457763671875
-0.002197265625
0.1138916015625
0.005126953125
-0.1201171875
-0.005859375
-0.0303955078125
0.0054931640625
0.1812744140625
-0.0003662109375
-0.206573486328125
-0.002197265625
0.136993408203125
0.0047607421875
-0.041015625
-0.002197265625
0.0439453125
-0.00146484375
-0.1190185546875
-0.0047607421875
0.10400390625
0.01318359375
0.01904296875
-0.0025634765625
-0.1856689453125
0.0003662109375
0.2061767578125
0.0029296875
-0.128936767578125
-0.0047607421875
0.054595947265625
-0.005126953125
-0.0391845703125
-0.0091552734375
0.114990234375
0.013916015625
-0.1146240234375
-0.000732421875
-0.0391845703125
0.0003662109375
0.1680908203125
-0.00146484375
-0.209869384765625
-0.0029296875
0.131866455078125
0.0029296875
-0.0413818359375
-0.003662109375
0.052734375
0.000732421875
-0.10693359375
-0.005126953125
0.1102294921875
0.00732421875
0.025634765625
-0.0047607421875
-0.1805419921875
0.000732421875
0.193359375
0.00146484375
-0.136993408203125
-0.00439453125
0.047271728515625
0.0029296875
-0.037353515625
-0.0029296875
0.1241455078125
0.0054931640625
-0.0992431640625
-0.0047607421875
-0.0322265625
0.0062255859375
0.1702880859375
-0.0003662109375
-0.205108642578125
-0.0029296875
0.119415283203125
0.0029296875
-0.053466796875
-0.0029296875
0.04541015625
0.0025634765625
-0.1072998046875
-0.0106201171875
0.1146240234375
0.0032958984375
0.0479736328125
-0.0054931640625
-0.1644287109375
-0.0047607421875
0.200347900390625
-0.000732421875
-0.127471923828125
-0.0062255859375
0.041015625
0.0010986328125
-0.047607421875
-0.0186767578125
0.113525390625
0.0128173828125
-0.1102294921875
0.0084228515625
-0.0311279296875
-0.006591796875
0.183837890625
-0.002197265625
-0.196319580078125
-0.00146484375
0.124908447265625
0.0040283203125
-0.0457763671875
-0.0032958984375
0.04833984375
0.0010986328125
-0.1234130859375
-0.008056640625
0.1058349609375
0.003662109375
0.0380859375
-0.0040283203125
-0.1812744140625
0.0010986328125
0.205108642578125
-0.0003662109375
-0.119415283203125
-0.006591796875
0.04541015625
0.00146484375
-0.04833984375
-0.003662109375
0.120849609375
0.0054931640625
-0.11572265625
-0.0054931640625
-0.04541015625
0.003662109375
0.1827392578125
-0.002197265625
-0.200714111328125
-0.0054931640625
0.125640869140625
0.0018310546875
-0.0347900390625
-0.003662109375
0.056396484375
0.0032958984375
-0.1212158203125
-0.0032958984375
0.10546875
0.0032958984375
0.0322265625
-0.0047607421875
-0.1981201171875
0.0076904296875
0.199981689453125
0.00732421875
-0.117950439453125
-0.003662109375
0.04541015625
0.002197265625
-0.0377197265625
-0.00146484375
0.1365966796875
-0.0113525390625
-0.1138916015625
0.024169921875
-0.052734375
0.0230712890625
0.1875
-0.0322265625
-0.212432861328125
-0.0047607421875
0.115753173828125
0.00439453125
-0.0377197265625
-0.0018310546875
0.0531005859375
0.003662109375
-0.1153564453125
-0.005126953125
0.11572265625
0.005126953125
0.0439453125
-0.0018310546875
-0.1951904296875
0.005859375
0.198150634765625
0.005859375
-0.129302978515625
-0.0040283203125
0.0325927734375
0.0003662109375
-0.0450439453125
-0.0054931640625
0.1314697265625
0.00439453125
-0.1043701171875
-0.005126953125
-0.0421142578125
0.00439453125
0.191162109375
0.0003662109375
-0.206573486328125
-0.0010986328125
0.115386962890625
0.0040283203125
-0.0465087890625
-0.0032958984375
0.0435791015625
0.0032958984375
-0.12451171875
-0.003662109375
0.107666015625
0.0062255859375
0.05126953125
-0.009521484375
-0.1845703125
0.000732421875
0.202911376953125
0.009521484375
-0.122344970703125
-0.002197265625
0.03515625
0.0032958984375
-0.0516357421875
-0.0029296875
0.1168212890625
0.0047607421875
-0.1051025390625
-0.0128173828125
-0.0545654296875
-0.000732421875
0.1845703125
0.0091552734375
-0.193389892578125
0.000732421875
0.123809814453125
-0.000732421875
-0.0311279296875
-0.0032958984375
0.052001953125
0.0040283203125
-0.1226806640625
-0.003662109375
0.091552734375
0.0054931640625
0.043212890625
-0.005859375
-0.188995361328125
-0.00146484375
0.19775390625
0.0029296875
-0.1142578125
-0.00146484375
0.045440673828125
0.00439453125
-0.043212890625
-0.0029296875
0.1204833984375
0.005126953125
-0.10107421875
-0.005859375
-0.06298828125
0.003662109375
0.1776123046875
0.0
-0.197784423828125
-0.003662109375
0.116119384765625
0.002197265625
-0.03369140625
-0.0029296875
0.064453125
0.00439453125
-0.1131591796875
-0.0032958984375
0.0911865234375
0.005126953125
0.052734375
-0.0062255859375
-0.192657470703125
-0.0047607421875
0.1827392578125
0.0003662109375
-0.116455078125
0.0003662109375
0.042510986328125
0.005126953125
-0.047607421875
-0.0029296875
0.1322021484375
0.005859375
-0.0845947265625
-0.005859375
-0.06005859375
-0.00146484375
0.182373046875
-0.009521484375
-0.197052001953125
0.0091552734375
0.101470947265625
0.01318359375
-0.041748046875
-0.0113525390625
0.0618896484375
0.0018310546875
-0.1201171875
-0.00439453125
0.09814453125
0.006591796875
0.07470703125
-0.003662109375
-0.187530517578125
-0.000732421875
0.188262939453125
0.00146484375
-0.112060546875
-0.0010986328125
0.0318603515625
0.005126953125
-0.0618896484375
-0.005126953125
0.131103515625
0.003662109375
-0.087158203125
-0.005859375
-0.0692138671875
0.0047607421875
0.202880859375
0.002197265625
-0.186798095703125
0.0003662109375
0.104034423828125
0.005126953125
-0.0369873046875
-0.0025634765625
0.0596923828125
0.003662109375
-0.134765625
-0.005859375
0.0838623046875
0.0047607421875
0.0750732421875
-0.0047607421875
-0.195953369140625
-0.0003662109375
0.197418212890625
0.002197265625
-0.0963134765625
-0.0087890625
0.0347900390625
0.0025634765625
-0.064453125
0.0047607421875
0.131103515625
0.0084228515625
-0.0948486328125
-0.0084228515625
-0.08349609375
0.000732421875
0.2021484375
-0.00146484375
-0.185333251953125
-0.0216064453125
0.101104736328125
0.0347900390625
-0.028564453125
0.01611328125
0.072509765625
-0.0281982421875
-0.1343994140625
-0.0054931640625
0.0816650390625
0.0076904296875
0.0692138671875
-0.0018310546875
-0.210601806640625
0.0010986328125
0.190826416015625
0.0029296875
-0.0977783203125
-0.0040283203125
0.0362548828125
0.0040283203125
-0.0538330078125
0.0003662109375
0.1376953125
0.0087890625
-0.0897216796875
-0.0047607421875
-0.085693359375
0.00439453125
0.1962890625
0.000732421875
-0.199981689453125
-0.0040283203125
0.099639892578125
0.003662109375
-0.028564453125
0.0003662109375
0.0677490234375
0.0069580078125
-0.123779296875
-0.0029296875
0.0882568359375
0.0062255859375
0.079833984375
-0.0047607421875
-0.207672119140625
-0.0003662109375
0.187530517578125
0.0025634765625
-0.1094970703125
-0.005859375
0.0296630859375
-0.005126953125
-0.0589599609375
-0.00732421875
0.1343994140625
0.010986328125
-0.076904296875
-0.00439453125
-0.07763671875
0.0018310546875
0.204345703125
0.0
-0.195220947265625
-0.0032958984375
0.102203369140625
-0.0146484375
-0.0421142578125
0.013916015625
0.0574951171875
0.0186767578125
-0.1256103515625
-0.0263671875
0.078369140625
0.0047607421875
0.0889892578125
-0.0025634765625
-0.198150634765625
0.0003662109375
0.190826416015625
0.005126953125
-0.100341796875
-0.002197265625
0.03076171875
0.0029296875
-0.0706787109375
-0.00146484375
0.123779296875
0.008056640625
-0.0791015625
-0.0025634765625
-0.0933837890625
0.0054931640625
0.20361328125
0.0003662109375
-0.179473876953125
-0.0032958984375
0.100372314453125
0.00439453125
-0.032958984375
-0.0010986328125
0.0670166015625
0.00439453125
-0.132568359375
-0.005126953125
0.057861328125
0.006591796875
0.0882568359375
-0.0029296875
-0.202178955078125
-0.0018310546875
0.183502197265625
0.0018310546875
-0.085693359375
-0.003662109375
0.040283203125
0.003662109375
-0.0670166015625
-0.00732421875
0.1285400390625
0.0054931640625
-0.0670166015625
0.000732421875
-0.1131591796875
0.00439453125
0.19482421875
-0.000732421875
-0.173248291015625
-0.005126953125
0.091949462890625
0.0003662109375
-0.0245361328125
-0.02197265625
0.0787353515625
0.01904296875
-0.128173828125
0.01171875
0.0567626953125
-0.01171875
0.098876953125
-0.00439453125
-0.208038330078125
-0.0003662109375
0.164093017578125
0.003662109375
-0.085693359375
-0.0040283203125
0.03662109375
0.000732421875
-0.06884765625
-0.0054931640625
0.138427734375
0.00439453125
-0.052734375
-0.005126953125
-0.109130859375
0.0047607421875
0.195556640625
0.0025634765625
-0.176177978515625
-0.0025634765625
0.077667236328125
0.0032958984375
-0.0325927734375
-0.0029296875
0.0809326171875
0.003662109375
-0.126708984375
-0.0047607421875
0.0604248046875
0.006591796875
0.114990234375
-0.0025634765625
-0.202545166015625
-0.00146484375
0.168487548828125
0.002197265625
-0.08349609375
-0.00439453125
0.0252685546875
0.0010986328125
-0.0802001953125
-0.00732421875
0.1395263671875
-0.000732421875
-0.05126953125
-0.00439453125
-0.1094970703125
0.00732421875
0.2164306640625
0.00146484375
-0.168487548828125
-0.0025634765625
0.080230712890625
0.002197265625
-0.03076171875
-0.0018310546875
0.073974609375
-0.01171875
-0.1475830078125
0.02197265625
0.047607421875
0.0238037109375
0.1190185546875
-0.0322265625
-0.205841064453125
-0.0040283203125
0.183868408203125
0.0025634765625
-0.072509765625
-0.002197265625
0.0289306640625
0.005859375
-0.08056640625
-0.0025634765625
0.13037109375
0.006591796875
-0.0684814453125
-0.000732421875
-0.1263427734375
0.0076904296875
0.2135009765625
0.0018310546875
-0.168121337890625
-0.005126953125
0.087921142578125
0.000732421875
-0.02197265625
-0.0047607421875
0.08349609375
0.003662109375
-0.135498046875
-0.0047607421875
0.04833984375
0.0054931640625
0.1094970703125
-0.0040283203125
-0.214996337890625
-0.0025634765625
0.175811767578125
0.0029296875
-0.076904296875
-0.003662109375
0.03515625
0.0040283203125
-0.0703125
-0.0025634765625
0.1387939453125
0.0047607421875
-0.0523681640625
-0.0120849609375
-0.1226806640625
0.00146484375
0.2003173828125
0.00732421875
-0.180572509765625
-0.00439453125
0.081329345703125
0.00146484375
-0.0260009765625
-0.0029296875
0.0875244140625
0.0032958984375
-0.1201171875
-0.0205078125
0.0494384765625
0.0179443359375
0.1138916015625
0.0135498046875
-0.210601806640625
-0.01318359375
0.167388916015625
0.0018310546875
-0.0897216796875
-0.0032958984375
0.0296630859375
0.00439453125
-0.0765380859375
-0.0018310546875
0.136962890625
0.0054931640625
-0.041015625
-0.0069580078125
-0.1160888671875
0.0040283203125
0.208740234375
0.0047607421875
-0.179107666015625
0.0
0.076202392578125
0.00439453125
-0.038818359375
-0.005126953125
0.0853271484375
-0.0010986328125
-0.1241455078125
-0.009521484375
0.05419921875
0.0025634765625
0.13037109375
-0.0054931640625
-0.204010009765625
-0.0025634765625
0.173980712890625
0.003662109375
-0.087158203125
-0.0025634765625
0.0281982421875
0.0032958984375
-0.090087890625
-0.0032958984375
0.128173828125
0.005859375
-0.04833984375
-0.0069580078125
-0.1241455078125
0.0
0.20947265625
0.0047607421875
-0.167022705078125
0.000732421875
0.083160400390625
0.0047607421875
-0.0391845703125
-0.0010986328125
0.0838623046875
0.0025634765625
-0.1373291015625
-0.006591796875
0.03515625
-0.012451171875
0.1142578125
0.0194091796875
-0.209503173828125
0.0164794921875
0.176910400390625
-0.0205078125
-0.075439453125
-0.003662109375
0.0406494140625
0.005126953125
-0.0816650390625
-0.0018310546875
0.1307373046875
0.005126953125
-0.0479736328125
-0.0076904296875
-0.1314697265625
0.00146484375
0.204345703125
0.0010986328125
-0.168853759765625
-0.002197265625
0.082794189453125
0.0032958984375
-0.0281982421875
-0.0040283203125
0.09375
0.003662109375
-0.1307373046875
-0.0062255859375
0.03955078125
0.0054931640625
0.120849609375
-0.00146484375
-0.218658447265625
-0.0010986328125
0.161529541015625
0.003662109375
-0.0794677734375
-0.002197265625
0.038818359375
0.003662109375
-0.079833984375
-0.0025634765625
0.138427734375
0.0069580078125
-0.041748046875
-0.0054931640625
-0.125244140625
-0.002197265625
0.207275390625
0.000732421875
-0.176910400390625
0.0032958984375
0.070709228515625
0.0047607421875
-0.0333251953125
-0.003662109375
0.0933837890625
0.0029296875
-0.128173828125
-0.00732421875
0.05712890625
-0.0120849609375
0.12451171875
0.0146484375
-0.216827392578125
0.015380859375
0.171783447265625
-0.0172119140625
-0.0845947265625
-0.005859375
0.0267333984375
0.002197265625
-0.0849609375
-0.0040283203125
0.1402587890625
0.006591796875
-0.04248046875
-0.005859375
-0.1146240234375
0.0010986328125
0.2186279296875
0.0018310546875
-0.175811767578125
0.0
0.076568603515625
0.005859375
-0.03369140625
-0.0029296875
0.0794677734375
0.0018310546875
-0.1373291015625
-0.0084228515625
0.0501708984375
0.0047607421875
0.123046875
-0.0025634765625
-0.208770751953125
-0.000732421875
0.183502197265625
0.005126953125
-0.078369140625
-0.00146484375
0.030029296875
0.0040283203125
-0.08203125
-0.0032958984375
0.131103515625
0.0054931640625
-0.0574951171875
-0.006591796875
-0.1212158203125
0.0029296875
0.216796875
-0.003662109375
-0.174346923828125
-0.003662109375
0.088287353515625
0.0106201171875
-0.0260009765625
-0.0010986328125
0.0823974609375
0.003662109375
-0.1351318359375
-0.0062255859375
0.0479736328125
0.00439453125
0.1116943359375
-0.0128173828125
-0.220123291015625
-0.003662109375
0.177276611328125
0.01171875
-0.0794677734375
-0.0047607421875
0.0391845703125
-0.000732421875
-0.0714111328125
-0.0032958984375
0.1343994140625
0.0076904296875
-0.05712890625
-0.003662109375
-0.343902587890625
0.1124267578125
0.1036376953125
0.1226806640625
